th1 (rad),w1 (rad/s),th2 (rad),w2 (rad/s)
4.082747618867512,-1.476670356996276,1.4507965977326336,-1.49213870280319
4.067980915297549,-1.418586948487917,1.4358752107046018,-1.5280936638976406
4.05379504581267,-1.362768186882774,1.4205942740656254,-1.5666585300981393
4.0401673639438425,-1.3091566907012382,1.404927688764644,-1.6076839241318812
4.02707579703683,-1.2576956442587865,1.3888508495233252,-1.6510230168206927
4.014498840594243,-1.2083282112221467,1.3723406193551182,-1.6965310859455276
4.002415558482022,-1.1609968104587653,1.355375308495663,-1.7440648850949017
3.990805590377434,-1.1156422574886844,1.337934659644714,-1.7934818271873747
3.979649167802547,-1.0722027728503774,1.3199998413728402,-1.844638984134213
3.9689271400740433,-1.0306128572195856,1.3015534515314982,-1.8973919016708929
3.9586210115018474,-0.9908020323067173,1.2825795325147893,-1.9515932268785605
3.9487129911787804,-0.952693446573046,1.2630636002460036,-2.007091145527468
3.93918605671305,-0.9162023458601898,1.242992688790729,-2.063727627348074
3.930024033254448,-0.8812344113801234,1.2223554125172482,-2.1213364799805405
3.9212116891406468,-0.8476839714729417,1.2011420477174428,-2.179741217047626
3.9127348494259175,-0.8154320994617299,1.1793446355469666,-2.2387527529851665
3.9045805284313,-0.784344618207698,1.1569571080171148,-2.2981669474504023
3.8967370822492233,-0.7542700429937744,1.1339754385426108,-2.3577620358427858
3.889194381819286,-0.7250375085085564,1.110397818184183,-2.417296000226596
3.8819440067342,-0.696454743234292,1.086224858181917,-2.476503957153536
3.874979459301857,-0.6683061755381758,1.0614598186103816,-2.535095665745259
3.8682963975464753,-0.6403512799778271,1.036108861952929,-2.592753290731849
3.861892884746697,-0.6123232990225574,1.0101813290456105,-2.649129590186303
3.8557696517564715,-0.5839285031417834,0.9836900331437475,-2.703846734839752
3.8499303667250535,-0.554846178712122,0.9566515657953499,-2.7564960023841913
3.8443819049379324,-0.5247295550683339,0.929086605771508,-2.806638621974435
3.839134609387249,-0.4932078947281619,0.9010202195517637,-2.8538080655996687
3.8342025304399674,-0.45988996871846366,0.872482138895767,-2.8975140869743883
3.8296036307527825,-0.42436911561914353,0.8435069980260231,-2.937248786818156
3.825359939596591,-0.386230031962997,0.8141345101578416,-2.9724949272436123
3.821497639276961,-0.34505735760837103,0.7844095608854055,-3.00273661989874
3.818047065700877,-0.30044599991794174,0.7543821946864181,-3.0274723679751845
3.8150426057016977,-0.25201298681745005,0.7241074710066663,-3.0462302520516493
3.812522475833523,-0.1994104591558582,0.6936451684861498,-3.058584822614245
3.8105283712419644,-0.14233922281748482,0.6630593202600074,-3.064175016113244
3.8091049790137896,-0.0805621037540057,0.6324175700988749,-3.0627221744563005
3.8082993579762494,-0.013916213028270036,0.6017903483543119,-3.0540470554793786
3.8081601958459665,0.05767683594936503,0.5712498777995181,-3.038084612669065
3.80873696420546,0.13420368407505262,0.5408690316728274,-3.0148953304003587
3.8100790010462107,0.21555574046939302,0.5107200783688238,-2.9846720476048105
3.8122345584509048,0.3015299858946178,0.48087335789277574,-2.9477414892072593
3.815249858309851,0.3918342605253431,0.4513959430007031,-2.9045601275565107
3.8191682009151044,0.4860968474731252,0.422350341725138,-2.855704468936042
3.824029169389836,0.5838797856852083,0.3937932970357776,-2.801856340598763
3.8298679672466878,0.6846950271296182,0.36577473362978996,-2.743784174995213
3.836714917517984,0.7880223376733926,0.33833689187983784,-2.682321592656505
3.844595140894718,0.893327754742317,0.3115136759532728,-2.6183447370034676
3.8535284184421412,1.0000814611434612,0.2853302285832381,-2.552749803644164
3.8635292330535758,1.1077740952356991,0.2598027305467964,-2.486432050651151
3.874606974005933,1.215930759065532,0.2349384100402849,-2.420267312521941
3.886766281596588,1.3241222668879191,0.21073573691506547,-2.3550967173763366
3.900007504265467,1.4319734566055513,0.1871847697413021,-2.29171497313834
3.9143272388315227,1.5391686338874637,0.1642676200099187,-2.2308622846745485
3.9297189251703974,1.6454544123689288,0.14195899716317323,-2.1732197178766075
3.9461734692940866,1.750640344740598,0.12022679998440715,-2.11940765208899
3.963679872741493,1.8545978103067549,0.09903272346351724,-2.0699868602374147
3.9822258508445603,1.9572576434943776,0.0783328548611431,-2.025461718575
4.001798427279504,2.0586069674052365,0.05807823767539309,-1.9862850620023853
4.022384496953556,2.158685650334959,0.03821538705536924,-1.9528642515716057
4.0439713534569055,2.2575827436370144,0.01868674453965318,-1.9255680940253437
4.066547180893275,2.355433196525914,-0.0005689364006002569,-1.904734337418656
4.090101512858535,2.4524150848787754,-0.01961627977478682,-1.8906775534431501
4.114625663707323,2.5487475417802132,-0.03852305530921832,-1.8836973005281077
4.140113139125125,2.6446895403661026,-0.05736002831449939,-1.884086539349523
4.1665600345287865,2.740539655858361,-0.07620089370799463,-1.892140343438439
4.19396543108737,2.8366369240045826,-0.09512229714237902,-1.9081650131736243
4.2223318003274155,2.933362917441743,-0.11420394727411526,-1.932487763735933
4.251665429501833,3.0311451796967934,-0.13352882491147458,-1.9654672194917797
4.281976881298801,3.1304621886608133,-0.15318349710639237,-2.0075050120567997
4.31328150318541,3.2318500676776862,-0.17325854722696038,-2.059058850315628
4.345600003862186,3.3359113231791575,-0.19384913573011667,-2.120657510846396
4.378959117093978,3.443325962919042,-0.21505571083858063,-2.1929182880856115
4.413392376723168,3.554865436500942,-0.23698489371943676,-2.276567543610981
4.448941031088178,3.671409934109497,-0.25975056915554656,-2.3724650948356287
4.485655130429273,3.793969665036242,-0.28347522010390286,-2.481633262998088
4.523594827079635,3.9237107804186286,-0.30829155273388376,-2.60529140815235
4.562831934883821,4.061986531033038,-0.33434446681540725,-2.744896607759466
4.603451800194152,4.2103739083271625,-0.3617934328930019,-2.9021905650696875
4.6455555392774235,4.370715093847387,-0.3908153385436988,-3.0792514177557666
4.689262690215897,4.545160910624327,-0.4216078527212565,-3.2785459613586942
4.734714299322141,4.736208871833968,-0.4543933123348434,-3.502971121668415
4.782076388040481,4.946718861206049,-0.48942302355152756,-3.7558597768320103
4.831543576652541,5.179870090984988,-0.5269816213198477,-4.0408983839319905
4.883342277562391,5.438984630260859,-0.5673906051591676,-4.361849452287823
4.937732123865,5.727069698358401,-0.6110090996820459,-4.721868577826115
4.995002820848583,6.045801191248089,-0.658227785460307,-5.12202292504848
5.055460832761064,6.39347548343729,-0.7094480147107918,-5.558343557939348
5.119395587595436,6.761288125456903,-0.7650314502901853,-6.01650991663354
5.1870084688500055,7.127625755142228,-0.8251965494565207,-6.463734929761928
5.258284726401428,7.4521942881220955,-0.88983389875414,-6.840448478701309
5.332806669282649,7.677286076210537,-0.9582383835411531,-7.062129118727335
5.409579530044754,7.748022838421637,-1.0288596747284264,-7.048049515355737
5.48705975842897,7.649177373454525,-1.0993401698819838,-6.773607388396569
5.563551532163515,7.422407748652751,-1.1670762437659494,-6.295169077364197
5.637775609650043,7.137348451366784,-1.2300279345395915,-5.7096883085401275
5.709149094163711,6.851055826029496,-1.2871248176249928,-5.097439701745014
5.777659652424005,6.594083982343295,-1.3380992146424429,-4.501948038714559
5.843600492247439,6.377154800941602,-1.3831186950295884,-3.9389805002599365
5.907372040256854,6.200790292857644,-1.4225085000321878,-3.409923515535571
5.969379943185431,6.0614274891560305,-1.4566077351875435,-2.9103685728131548
6.029994218076991,5.954350925534392,-1.485711420915675,-2.434296230345695
6.089537727332336,5.874875183823214,-1.510054383219132,-1.9758254658685042
6.148286479170568,5.818726133883471,-1.529812637877817,-1.5298421027492761
6.206473740509402,5.7820926104772825,-1.5451110589053096,-1.0921620050279601
6.264294666614175,5.761558256102713,-1.5560326789555892,-0.6595205917621657
6.321910249175202,5.754001329255945,-1.562627884873211,-0.22950943201723029
6.379450262467762,5.7564973900300975,-1.5649229791933832,0.19949431543385
6.437015236368063,5.766237784566173,-1.5629280360390447,0.6283916564310121
6.494677614213725,5.780468066139829,-1.5566441194747347,1.0574177267697613
6.552482294875123,5.7964471247025475,-1.546069942207037,1.4861938032762532
6.610446766122148,5.811426490938761,-1.5312080041742744,1.913780402704561
6.668561031031536,5.822648623107961,-1.5120702001472288,2.3387360359582203
6.726787517262616,5.82736242924508,-1.4886828397876466,2.759184877587096
6.785061141555066,5.822853677833221,-1.4610909910117755,3.172894909744532
6.843289678333399,5.806487348112146,-1.4293620419143303,3.5773663131337154
6.90135455181452,5.775758481551112,-1.393588378782993,3.969928270173644
6.959112136630031,5.728347832464141,-1.3538890960812566,4.347841139780723
7.016395614954672,5.6621786389830895,-1.3104106846834493,4.708400299144942
7.0730174013445035,5.5754711260636425,-1.263326681692,5.049037846630984
7.12877211260514,5.466791813431731,-1.2128363032256901,5.367418713770427
7.183440030739457,5.335095193524913,-1.159162116087986,5.66152833848664
7.236790982674706,5.179755737077131,-1.1025468327031196,5.929749670912392
7.2885885400454775,5.000588409086265,-1.0432493359939956,6.170927731451007
7.33859442413634,4.797855962892432,-0.9815400586794856,6.384420146125534
7.386572983765264,4.5722613458085215,-0.9176958572182302,6.5701321139739255
7.432295597223349,4.324923771207984,-0.851994536078491,6.728534296682828
7.4755448349354285,4.057337552849354,-0.7847091931116627,6.8606623891639975
7.516118210463922,3.771313739556186,-0.7161025692200227,6.968097815836846
7.553831347859484,3.4689058833129534,-0.6464215910616542,7.0529301641609345
7.588520406692614,3.1523227338533926,-0.5758922894200449,7.117703517290515
7.6200436340311475,2.823831992581848,-0.5047152542471397,7.165350540423244
7.648281953956966,2.4856601735725183,-0.43306174884290727,7.199119692986157
7.673138555692691,2.1398938754169365,-0.3610705519130457,7.222501982614537
7.69453749444686,1.7883872711362128,-0.28884553208690034,7.2391640551107095
7.712421367158222,1.432679447227909,-0.21645389153579325,7.252894091099094
7.726748161630501,1.0739235852319104,-0.14392495062480232,7.267566067750279
7.73748739748282,0.7128281895973917,-0.07124928994729952,7.287126644487486
7.744615679378794,0.3496089707313114,0.0016219764975753392,7.315607436728849
7.7481117690861065,-0.01605104336446811,0.07477805086486383,7.357163805969059
7.747951258652462,-0.3850356304994694,0.1483496889245544,7.416139266919043
7.744100902347467,-0.7588245387875813,0.22251108159374483,7.497151366132467
7.736512656959592,-1.1395137896572165,0.2974825952550695,7.605188499482222
7.72511751906302,-1.529812626982109,0.3735344802498917,7.745693524440843
7.709819392793199,-1.932980253780406,0.45099141549430016,7.92458077630452
7.690489590255395,-2.352619455069946,0.5302372232573453,8.148071358214253
7.666963395704696,-2.7921519867866262,0.6117179368394878,8.422105442812082
7.6390418758368295,-3.2536258040243977,0.6959389912676086,8.750847652561543
7.606505617796586,-3.735213337372066,0.783447467793224,9.133392128334757
7.569153484422865,-4.226436177705835,0.8747813890765717,9.557305281638179
7.526889122645807,-4.70041786671,0.9703544418929535,9.98797071108583
7.479884943978707,-5.105394812932133,1.0702341490038119,10.356697605029035
7.428830995849386,-5.366298509656448,1.1738011250541023,10.562416536682374
7.375168010752821,-5.414957896616761,1.279425290420926,10.512571501427882
7.321018431786654,-5.24303809770643,1.3845510054352048,10.195153452296417
7.26858805080959,-4.917778771942608,1.486502539958169,9.699531403893054
7.219410263090164,-4.530922232958536,1.5834978539970996,9.146404745537327
7.174101040760578,-4.146987503445937,1.6749619014524728,8.618341805933714
7.132631165726119,-3.795283178933211,1.7611453195118099,8.150404275224934
7.094678333936787,-3.4834975981935155,1.8426493622640592,7.74936428658733
7.059843357954851,-3.209864019241454,1.9201430051299324,7.410259664148153
7.027744717762437,-2.969531432034658,1.9942456017714139,7.124811322600759
6.99804940344209,-2.7572210436217435,2.0654937149974213,6.884783693794195
6.970477193005873,-2.568153127089142,2.1343415519353632,6.683054126038413
6.9447956617349815,-2.3982742398110446,2.2011720931957472,6.513790100390642
6.920812919336871,-2.2442315170352884,2.266309994199654,6.372325288084009
6.8983706041665185,-2.1032723962070663,2.330033247080494,6.25496189132145
6.877337880204448,-1.9731363261336297,2.3925828659937087,6.158778652758885
6.857606516943111,-1.8519606735676342,2.4541706525212974,6.081466856793242
6.839086910207435,-1.7382062862395504,2.5149853210892297,6.021195923319483
6.821704847345039,-1.6306024167759374,2.5751972803224246,5.9765034882958314
6.8053988231772795,-1.5281092256622835,2.634962315205383,5.94620332398601
6.790117730920657,-1.429896152640604,2.694424348445243,5.929304651411155
6.775818769394251,-1.3353349720337508,2.7537173949593545,5.924937091019038
6.762465419673913,-1.2440068443046906,2.812966765869545,5.9322763307532735
6.7500253512308666,-1.1557228633345813,2.8722895291770776,5.950466610501964
6.738468122597521,-1.070557220310367,2.931794195282097,5.978537597305108
6.727762550394417,-0.9888908589790623,2.9915795712551483,6.015315576357473
6.717873641804627,-0.9114610486495222,3.051732727018723,6.059332601760058
6.708759031318132,-0.8394084047983339,3.1123260530363233,6.108742725537521
6.700364947270148,-0.7743076667146789,3.1734134802916985,6.161261562250703
6.692621870603001,-0.7181629518294937,3.2350260959142054,6.214153074284691
6.685440241084706,-0.6733445441506697,3.2971676266570524,6.264292642914562
6.678706795643199,-0.6424463164097759,3.359810553086198,6.308333332224866
6.672282332479101,-0.6280548964410879,3.422893886408447,6.342987198727282
6.66600178351469,-0.6324456590699152,3.4863237583957196,6.365402926067669
6.659677326923991,-0.6572523635104739,3.5499777876563963,6.373580384761234
6.653104803288887,-0.7031842913476467,3.6137135915040086,6.366728086591708
6.6460729603754105,-0.7698702322283537,3.6773808723699255,6.345462658955971
6.638374258053127,-0.8558821314821888,3.7408354989594854,6.311783747807398
6.629815436738305,-0.9589391601807298,3.8039533364375595,6.268824461885444
6.620226045136498,-1.0762385514862038,3.866641581056414,6.220446598862746
6.609463659621635,-1.2048284013075143,3.9288460470450417,6.170788738605436
6.59741537560856,-1.3419409786607475,3.990553934431096,6.123870068483591
6.583995965821953,-1.4852346491320936,4.051792635115932,6.0833147256144775
6.569143619330632,-1.6329296498762276,4.112625782372077,6.052214522887063
6.552814322831869,-1.7838518142906166,4.173147927600947,6.033112172572944
6.534975804688963,-1.9374126252619248,4.233479049326677,6.028070167319385
6.515601678436344,-2.0935556444032253,4.293759750999871,6.0387895242829925
6.494666121992312,-2.252693868211263,4.3541476462427005,6.06675063360779
6.472139183310199,-2.415654933513145,4.414815152578778,6.1133591686152045
6.447982633975068,-2.583644388913788,4.47594874426493,6.1800896959925575
6.42214619008593,-2.758232654692275,4.537749641224856,6.268626924751684
6.394563863539007,-2.941368841014192,4.600435910472373,6.38100951802628
6.365150175128865,-3.135423785665089,4.664246005652636,6.519784648149033
6.333795937272214,-3.3432647970152423,4.729443852134127,6.68818349230319
6.300363289302061,-3.568364678198551,4.796325687057158,6.890328532977483
6.2646796425200755,-3.814945944617513,4.865228972386933,7.1314813661921965
6.2265301830739,-4.088153923373736,4.936543786048855,7.4183301160722666
6.185648643840163,-4.3942304853993095,5.0107270872095775,7.759286347583746
6.14170633898617,-4.740601078787819,5.088319950685415,8.164681930979977
6.094300328198292,-5.135636983171635,5.169966769995215,8.646551295655126
6.042943958366576,-5.587484628585803,5.256432282951766,9.217176072055194
5.987069112080718,-6.100497137286871,5.348604043672318,9.88438188825497
5.926064140707849,-6.666085496316439,5.447447862554868,10.639176354573202
5.859403285744685,-7.242746137466986,5.5538396261006,11.428388756639661
5.786975824370015,-7.724259690480858,5.6681235136669965,12.11071075984226
5.709733227465207,-7.928379208066431,5.789230621265419,12.440682606016027
5.630449435384542,-7.697146614760841,5.91363744732558,12.2067244309886
5.553477969236933,-7.084618559482906,6.035704691635465,11.48844642388618
5.482631783642105,-6.321122129883946,6.150589155874327,10.603255868844967
5.419420562343265,-5.583088643203845,6.256621714562777,9.789306115412241
5.363589675911227,-4.929554500941828,6.3545147757169,9.122810363364598
5.314294130901809,-4.360478471493231,6.445742879350545,8.600738198543727
5.2706893461868765,-3.859692000597673,6.531750261335983,8.199788328713938
5.2320924261809,-3.4102096330331797,6.6137481446231225,7.896790545071515
5.197990329850568,-2.9978975216880093,6.692716050073837,7.673240023867073
5.168011354633688,-2.611681897906437,6.769448450312508,7.515253177693057
5.1418945356546235,-2.242989382937046,6.844600982089438,7.412573730579982
5.119464641825253,-1.8851618994532349,6.918726719395238,7.357591346511254
5.1006130228307205,-1.5330086079210516,6.99230263286035,7.344559230158218
5.0852829367515096,-1.1825022599301471,7.065748225161933,7.368998369656579
5.0734579141522085,-0.8305943060559133,7.139438208858499,7.427239549896404
5.065151971091649,-0.47512175599914686,7.213710604357463,7.516059154546957
5.060400753531658,-0.11478320792344143,7.288871195902932,7.632377828398289
5.059252921452424,0.2508354133050269,7.365194974186915,7.773004203773961
5.061761275585474,0.6212045963622234,7.442925016224654,7.93441785258478
5.067973321549096,0.9947860633485024,7.5222691947505025,8.11259651033053
5.077921182182581,1.3689843569881854,7.603395159853807,8.302902134694824
5.091611025752463,1.7401447923528985,7.686424181200755,8.500047192044297
5.109012473675992,2.1036283677674397,7.771424653121199,8.698164294626427
5.130048757353666,2.4539890604738823,7.8584062960674625,8.890995994836546
5.1545886479584055,2.7852649401916367,7.947316256015828,9.072205126347113
5.182441297360322,3.0913714945473423,8.0380383072793,9.235780500050044
5.2133550123057955,3.3665574893346144,8.130396112279799,9.376483739051094
5.247020587199142,3.605859128760507,8.22416094967031,9.490260872915606
5.283079178486747,3.8054777115597815,8.319063558399465,9.574538312728558
5.3211339556023445,3.963016584272482,8.41480894152675,9.628343146075977
5.36076412144507,4.077543848236956,8.51109237298751,9.652228216191038
5.401539559927439,4.149487632161936,8.60761465514942,9.64802913106556
5.443034436249058,4.180406007076791,8.704094946460076,9.61851595458397
5.484838496319826,4.172692212476133,8.800280106005916,9.567015465906183
5.526565418444587,4.129274687716932,8.895950260664979,9.497070010072548
5.5678581653217565,4.053355637728902,8.990920960765704,9.41217464869029
5.6083917216990455,3.948210501530962,9.085042707252608,9.315607026904592
5.647873826714355,3.8170516170427855,9.178198777521654,9.21034279524021
5.6860443428847836,3.662946753676124,9.270302205474056,9.099037153337287
5.722673810421544,3.4887775397959895,9.36129257700743,8.984049451427834
5.757561585819504,3.297222505029986,9.451133071521708,8.867490030724328
5.790533810869804,3.0907522218665813,9.539807971828951,8.75127360937584
5.82144133308847,2.8716279254716244,9.62732070792271,8.637169265674038
5.850157612343186,2.6418987347607636,9.71369240057945,8.526842118290444
5.876576599690794,2.403395536852667,9.798960821762355,8.4218856015861
5.900610555059321,2.1577215271288837,9.883179677778216,8.323845716075729
5.922187770330609,1.906240383729691,9.966418134938973,8.2342399879296
5.941250174167906,1.650063294574884,10.04876053481827,8.154574385787814
5.957750807113655,1.3900357816198154,10.130306278676148,8.086361419605314
5.971651164929853,1.1267246989293624,10.211169892872201,8.031142353268978
