th1 (rad),w1 (rad/s),th2 (rad),w2 (rad/s)
0.6490618031150458,-1.991610420941669,0.6906574510217424,1.7999211987631356
0.6291456989056291,-2.044617347882217,0.7086566630093737,1.7888025335090754
0.6086995254268069,-2.0902368107126574,0.7265446883444644,1.767177630523176
0.5877971573196804,-2.128360910333203,0.7442164646496962,1.7347999570512398
0.5665135482163484,-2.15907010753834,0.7615644642202085,1.6916926555289171
0.544922847140965,-2.1826239369696405,0.7784813907754977,1.638139585836235
0.5230966077712685,-2.1994364429205024,0.7948627866338601,1.5746546206774135
0.5011022433420635,-2.2100403306124052,0.8106093328406343,1.5019345995989262
0.4790018400359395,-2.2150452671115195,0.8256286788366236,1.4208034342794393
0.4568513873648243,-2.2150958939474967,0.839836713179418,1.3321551129117202
0.4347004284253493,-2.210834123416302,0.8531582643085351,1.2369020325717073
0.4125920871911863,-2.2028686678678535,0.8655272846342522,1.1359328651016525
0.39056340051250776,-2.1917530323419574,0.8768866132852687,1.030081781583402
0.3686458701890882,-2.1779717837350066,0.8871874311011028,0.9201088820997694
0.3468661523517381,-2.161933979831102,0.8963885199221004,0.8066903662129272
0.3252468125534271,-2.143972199629123,0.9044554235842297,0.6904163425100686
0.30380709055713584,-2.1243455540561644,0.9113595870093304,0.5717940664747222
0.2825636350165742,-2.1032452312053853,0.9170775276740776,0.45125461982460613
0.26153118270452036,-2.080801416172529,0.9215900738723236,0.3291614266117191
0.24072316854279507,-2.0570907325647347,0.9248816881384408,0.20581941710384422
0.22015226121714773,-2.032143628804417,0.9269398823094793,0.0814840270711843
0.19983082492910356,-2.0059513548411743,0.9277547225801912,-0.043630474456275326
0.17977131138069183,-1.9784723400794286,0.9273184178356284,-0.16934360746374738
0.15998658797989754,-1.9496378974826245,0.925624981760991,-0.2955023722413329
0.14049020900507128,-1.9193572520770583,0.9226699580385777,-0.42197602444692417
0.1212966364843007,-1.8875219349557868,0.9184501977941084,-0.5486518855685344
0.10242141713474283,-1.8540096055381454,0.9129636789384231,-0.6754321059525659
0.08388132107936137,-1.81868737252836,0.9062093578788974,-0.8022312819505106
0.06569444735407777,-1.7814146831226618,0.8981870450593923,-0.9289748247027941
0.04788030052285115,-1.7420458443499336,0.8888972968123643,-1.0555979805259499
0.030459842079351814,-1.7004322325991343,0.8783413170071048,-1.1820454083715077
0.01345551975336047,-1.6564242391216124,0.8665208629233897,-1.3082712261629943
-0.003108722637855655,-1.6098729917442767,0.8534381506617598,-1.4342394435926622
-0.01920745255529842,-1.5606318869668714,0.8390957562258331,-1.5599247032903665
-0.03481377142496714,-1.5085579626133965,0.8234965091929294,-1.6853132545677465
-0.049899351051101104,-1.4535131397506507,0.8066433766472519,-1.8104040837046524
-0.06443448244860761,-1.3953653641747636,0.7885393358102054,-1.935210121461993
-0.07838813609035525,-1.333989682991212,0.7691872345955855,-2.0597594415010216
-0.09172803292026736,-1.2692693014358527,0.7485896401805753,-2.1840963517162373
-0.1044207259346259,-1.2010966801124758,0.7267486766634129,-2.3082822628049464
-0.11643169273575066,-1.1293747545998172,0.7036658540353634,-2.4323961928271105
-0.12772544028174884,-1.0540183896826332,0.6793418921070923,-2.556534730497887
-0.13826562417857519,-0.974956221591325,0.6537765448021134,-2.6808112301047298
-0.14801518639448843,-0.8921330965042528,0.6269684325010662,-2.8053539428743233
-0.15693651735953096,-0.8055133857040799,0.5989148930723229,-2.9303026979222566
-0.16499165121657175,-0.7150855511669476,0.5696118660931003,-3.0558036243210602
-0.17214250672824122,-0.6208684539167137,0.5390538298498897,-3.1820012478092234
-0.17835119126740837,-0.5229200438175022,0.5072338173717975,-3.3090270960724633
-0.18358039170558338,-0.42134924240856836,0.47414354641107287,-3.4369837048825786
-0.18779388412966908,-0.3163320200987698,0.4397737093622471,-3.565922644327027
-0.19095720433065677,-0.2081328486064753,0.4041144829189768,-3.6958149132596287
-0.19303853281672154,-0.09713282075207362,0.36715633378638046,-3.826511856484101
-0.19400986102424228,0.016134338577574528,0.32889121522153947,-3.9576947909068108
-0.19384851763846653,0.1309375876903186,0.28931426731247134,-4.08881204542383
-0.19253914176156334,0.2462955475571582,0.24842614685823305,-4.21900354415302
-0.19007618628599177,0.36091771362951397,0.20623611141670284,-4.347015990045121
-0.18646700914969663,0.4731463012863039,0.16276595151625162,-4.471116831612886
-0.1817355461368336,0.5809108921125258,0.11805478320012275,-4.589023010116598
-0.17592643721570833,0.6817153954446836,0.07216455309895677,-4.697870567258811
-0.16910928326126148,0.7726838768505305,0.02518584742636866,-4.794261028698237
-0.16138244449275618,0.850694201600188,-0.022756762860613712,-4.874424199313049
-0.1528755024767543,0.9126195293159118,-0.0715010048537442,-4.934525494198153
-0.1437493071835952,0.9556713530442594,-0.12084625979572572,-4.971110726222662
-0.1341925936531526,0.9777950452981583,-0.17055736705795232,-4.981623644101295
-0.12441464320017101,0.9780250435168143,-0.2203736034989653,-4.964872187200171
-0.11463439276500287,0.9566898171327834,-0.270022325370967,-4.9212964108079005
-0.10506749459367504,0.9153895708701393,-0.319235289479046,-4.8529354982636175
-0.09591359888497364,0.8567460659484417,-0.36776464446168217,-4.763094503468359
-0.08734613822548923,0.7840042613751317,-0.41539558949636574,-4.655819183558144
-0.07950609561173791,0.7006046831323929,-0.4619537813319472,-4.535338575042171
-0.07250004878041398,0.6098287395154502,-0.5073071670823689,-4.405610631474254
-0.06640176138525948,0.5145684086399415,-0.5513632733971114,-4.270036730789172
-0.06125607729886007,0.4172208023116559,-0.5940636407050032,-4.131342457322804
-0.05708386927574351,0.3196778463573404,-0.6353770652782312,-3.991582429516224
-0.0538870908121701,0.22337345188136873,-0.6752928895733935,-3.852217708744413
-0.05165335629335641,0.12935649531724736,-0.7138150666608376,-3.7142233782788767
-0.05035979134018394,0.03836847790016061,-0.7509573004436264,-3.5781986563112933
-0.04997610656118233,-0.04908562922856895,-0.7867392870067393,-3.444465038928329
-0.050466962853468016,-0.1326780800418005,-0.8211839373960226,-3.313146995443485
-0.05179374365388602,-0.21221134500277627,-0.8543154073504574,-3.1842348956195567
-0.05391585710391378,-0.2875822102663508,-0.8861577563066529,-3.057632267070315
-0.05679167920657729,-0.35875508333500117,-0.9167340789773561,-2.933190270936293
-0.0603792300399273,-0.42574254047687654,-0.9460659816867191,-2.8107322411175075
-0.06463665544469606,-0.4885913764950835,-0.9741733040978942,-2.690070740298814
-0.06952256920964689,-0.5473727338338124,-1.0010740115008823,-2.571019102721426
-0.07499629654798501,-0.6021752001074598,-1.0267842025280964,-2.453398979084179
-0.08101804854905961,-0.653100032527731,-1.0513181923189383,-2.337045017594146
-0.08754904887433693,-0.7002578847558907,-1.0746886424948798,-2.221807514494099
-0.09455162772189583,-0.743766579669012,-1.0969067176398208,-2.1075536390915044
-0.10198929351858596,-0.7837495982606111,-1.1179822540307358,-1.9941676691476204
-0.10982678950119207,-0.820335048964355,-1.137923930722212,-1.8815505491568973
-0.11803013999083561,-0.853654950753238,-1.156739436213781,-1.7696189951102672
-0.126566689498368,-0.8838447136852974,-1.1744356261648838,-1.6583043056560158
-0.13540513663522097,-0.9110427370110855,-1.191018669221444,-1.5475509941689416
-0.14451556400533183,-0.9353900712078201,-1.2064941791631334,-1.4373153239241243
-0.15386946471741003,-0.9570301090914229,-1.2208673324023747,-1.327563805559952
-0.16343976580832426,-0.9761082844854836,-1.2341429704579743,-1.218271699579857
-0.17320084865317908,-0.9927717662588299,-1.246325687453773,-1.1094215548403852
-0.18312856631576738,-1.0071691419463449,-1.2574199030021769,-1.0010018054319132
-0.19320025773523083,-1.019450089416944,-1.267429921056496,-0.8930054421159481
-0.20339475862940026,-1.0297650377144294,-1.2763599754776556,-0.7854287698722523
-0.21369240900654457,-1.0382648196854514,-1.284214263176378,-0.6782702596725816
-0.2240750572033991,-1.045100319627534,-1.2909969657731037,-0.5715295000269205
-0.23452606039967444,-1.0504221191612335,-1.296712260773373,-0.4652062519394657
-0.24503028159128679,-1.0543801440155371,-1.3013643232927676,-0.35929960953656814
-0.25557408303144213,-1.057123313529928,-1.3049573193881334,-0.25380726771179674
-0.2661453161667414,-1.0587991934993504,-1.3074953920652514,-0.1487248976368989
-0.2767333081017349,-1.0595536515694741,-1.3089826410416205,-0.04404563090272716
-0.28732884461742964,-1.059530512754328,-1.3094230973506478,0.06024034660575088
-0.2979241497449729,-1.058871210799893,-1.3088206938845903,0.16414608919993606
-0.30851286185297183,-1.0577144290389988,-1.3071792329925909,0.26768807104234627
-0.3190900061433618,-1.0561957220392515,-1.3045023522821675,0.37088624589439534
-0.3296519633637543,-1.0544471066827743,-1.3007934898232236,0.47376397936501996
-0.34019643443058206,-1.0525966082624236,-1.2960558500295734,0.5763478427963894
-0.3507224005132063,-1.050767743645005,-1.2902923716016095,0.6786672537825212
-0.36123007794965634,-1.0490789194340586,-1.2835056990637843,0.7807539431714641
-0.37172086714399694,-1.0476427182483725,-1.2756981596320696,0.8826412221017121
-0.38219729432648064,-1.0465650405999594,-1.2668717474110525,0.9843630150129457
-0.39266294473248026,-1.0459440633005173,-1.257028117260923,1.0859526155054087
-0.40312238536548545,-1.045868967777268,-1.2461685911058689,1.1874411112976753
-0.41358107504325814,-1.046418383140756,-1.2342941799928921,1.2888554123369929
-0.4240452588746657,-1.0476584794579014,-1.2214056258695223,1.390215802509852
-0.43452184366924473,-1.0496406368129858,-1.2075034678444239,1.4915329208405879
-0.4450182500373746,-1.0523986061278163,-1.192588138636018,1.5928040634962246
-0.4555422360986528,-1.055945069673287,-1.1766600980010558,1.6940086850386933
-0.46610168679538566,-1.0602675049033572,-1.159720011150669,1.7951029690219926
-0.4767043618444192,-1.0653232580639467,-1.141768981460449,1.8960133387047482
-0.4873575944250587,-1.0710337490261153,-1.1228088480734015,1.9966287950814228
-0.4980679319153199,-1.0772777631682873,-1.1028425601225873,2.096792011305782
-0.5088407095470028,-1.0838838496323047,-1.0818746400095294,2.19628919306154
-0.5196795480433258,-1.0906219502348538,-1.059911748078914,2.2948388502956476
-0.5305857675456743,-1.0971945438734994,-1.0369633595759575,2.392079836331544
-0.5415577129844094,-1.103227821048317,-1.0130425612126421,2.487559314561641
-0.5525899911948925,-1.1082637103223782,-0.9881669680670258,2.5807217223677483
-0.5636726282981163,-1.1117539573827395,-0.9623597508433482,2.6709003095427835
-0.5747901678719437,-1.113057875356209,-0.9356507477479205,2.757313391056993
-0.5859207466255058,-1.1114457674511369,-0.9080776138373505,2.839067970864093
-0.5970352043000171,-1.1061102395985865,-0.8796869341287096,2.915173688254353
-0.608096306696003,-1.0961874856617237,-0.850535197246166,2.984569858752428
-0.6190581815526203,-1.0807899286787241,-0.8206894986586417,3.0461674394872595
-0.6298660808394075,-1.059050174115927,-0.7902278242637691,3.098905821919862
-0.6404565825805668,-1.030174078230416,-0.7592387660445705,3.141821449828961
-0.650758323362871,-0.9934981553893951,-0.7278205515462809,3.1741217895945506
-0.6606933049167649,-0.9485441933626229,-0.6960793336503354,3.1952550346934174
-0.6701787468503911,-0.8950627002926475,-0.6641267833034012,3.20496431369878
-0.6791293738533176,-0.8330574593226934,-0.6320771401664135,3.2033161553688867
-0.6874599484465446,-0.7627862696105205,-0.6000439786127246,3.190696867077309
-0.6950878111426497,-0.6847373341949754,-0.5681370099419515,3.167776492683621
-0.7019351844845995,-0.5995854310352523,-0.5364592450151153,3.135446354111322
-0.707931038794952,-0.5081355080110301,-0.5051047814740021,3.09474084363553
-0.7130123938750623,-0.41126269576407204,-0.47415737303764677,3.0467558085341557
-0.717125020832703,-0.30985683267189934,-0.4436898149523052,2.992574462969569
-0.720223589159422,-0.20477713198025782,-0.4137640703226095,2.9332082583393424
-0.7222713604792246,-0.09681962520690028,-0.38443198773921605,2.8695559806729727
-0.7232395567312936,0.013302615214269953,-0.35573642793248633,2.802380748353377
-0.7231065305791509,0.12496824717064557,-0.32771262044895255,2.732302207695654
-0.7218568481074444,0.23764804310963974,-0.300389598371996,2.6598001447295183
-0.719480367676348,0.35089961423496346,-0.27379159692470084,2.5852256636431807
-0.7159713715339984,0.46435885616565453,-0.24793934028826903,2.5088166214272634
-0.7113277829723418,0.5777299558440041,-0.2228511740739964,2.430714796563424
-0.7055504834139017,0.6907752389930425,-0.19854402610836216,2.3509830643975063
-0.6986427310239712,0.8033056539571748,-0.1750341954643871,2.2696215255421035
-0.6906096744843995,0.9151723160567028,-0.15233798020896605,2.1865820432736505
-0.6814579513238325,1.0262592749389532,-0.13047215977622956,2.1017809980118867
-0.6711953585744429,1.1364774971494385,-0.10945434979611068,2.015110290496616
-0.6598305836029486,1.2457599539949475,-0.08930324689114452,1.926446754440408
-0.647372984062999,1.3540576492113294,-0.07003877934674044,1.8356602052099185
-0.6338324075708858,1.461336394692916,-0.05168217729464125,1.7426203780340952
-0.6192190436239566,1.5675741328360397,-0.0342559735143003,1.6472030152769757
-0.6035433022955963,1.672758602038596,-0.01778394336153054,1.5492953597604044
-0.5868157162752103,1.7768851417075764,-0.002290989763926497,1.4488013080310291
-0.5690468648581346,1.8799544310254173,0.012197023316383795,1.3456464788377198
-0.5502473205478804,1.9819699494898775,0.025653488104760994,1.2397834607621014
-0.5304276210529816,2.08293493577225,0.038051322712382006,1.1311975201326414
-0.5095982716952591,2.182848604647094,0.04936329791370842,1.0199130757628634
-0.48776978564878815,2.281701360730959,0.059562428671337056,0.9060012786334083
-0.46495277204147856,2.3794687253204816,0.06862244145767114,0.7895890678291971
-0.44115808478827373,2.476103674145343,0.07651833213596311,0.6708701004815111
-0.4163970480468203,2.5715270787690265,0.08322703314077823,0.5501179589937208
-0.39068177725913006,2.665615968058758,0.08872821273071543,0.42770200078622495
-0.36402561757854246,2.758189402324243,0.09300523273857768,0.30410609972280656
-0.33644372355530006,2.8489919158203527,0.09604629373580574,0.1799502848272583
-0.3079538043970965,2.9376747796427116,0.09784579658407833,0.05601484501842022
-0.2785770566006694,3.023775822414646,0.09840594503426253,-0.06673424000673103
-0.24833929837652294,3.1066992755905942,0.09773860263419522,-0.1871207387162419
-0.217272305620617,3.1856981136774936,0.0958673952470328,-0.3037381141200617
-0.18541532448384207,3.2598625973164777,0.09283001410583219,-0.41493937821088284
-0.1528166985106773,3.3281200218707547,0.08868062032372337,-0.5188440772164555
-0.11953549829196976,3.389251635449899,0.08349217955155881,-0.6133709435799365
-0.08564298193747077,3.4419326740516505,0.07735847011575944,-0.6963046261596888
-0.05122365519695427,3.484799650759566,0.07039542385416256,-0.765402178396988
-0.016375658689358613,3.516544744498072,0.06274140207019267,-0.8185386728569334
0.018789788755622108,3.536030361164257,0.05455601534162334,-0.8538814411784749
0.05415009236726468,3.5424089850978984,0.04601720092983859,-0.8700709040053104
0.08957418221824368,3.5352270820423284,0.03731649188978549,-0.8663767749629757
0.12492645303866695,3.514490498198695,0.02865272414015573,-0.8427965612190926
0.16007135802065392,3.4806747651089216,0.020224758527964806,-0.8000719758943484
0.19487810567174313,3.4346761019933636,0.012224038769021322,-0.7396168905204414
0.22922486669167677,3.3777134135228577,0.004827869863816907,-0.6633716126278117
0.26300200082690534,3.311202528292735,-0.0018058462624612106,-0.5736143651239348
0.2961140261098327,3.2366274202519167,-0.007541989913700559,-0.4727662008264949
0.32848030031235187,3.1554290734517565,-0.012269651921965507,-0.3632199357242217
0.3600345910468694,3.068924062269954,-0.015901851279207724,-0.24721138991588038
0.390723831669569,2.978255833460168,-0.01837396517836653,-0.12673805208176214
0.42050639000417067,2.8843749489722423,-0.01964134569918415,-0.003520392666222824
0.4493501394938931,2.7880411313219686,-0.019676549625846376,0.12100411426599834
0.47723055080711274,2.6898393402278287,-0.018466508483186393,0.24566530614204762
0.504128944209391,2.5902031990493333,-0.016009855421765917,0.36953262577849955
0.5300309761998844,2.489440849415738,-0.012314529163980922,0.49188260189171223
0.5549253846940417,2.3877600611473206,-0.0073957031450637995,0.6121662506708664
0.578802985305515,2.2852908375119623,-0.0012740406383551358,0.7299791045202779
0.6016558936806347,2.182104753647498,0.006025750406847643,0.8450351216247026
0.6234769412171096,2.0782308959911817,0.014476101623094671,0.9571447978838854
0.6442592501770215,1.9736686240080048,0.024047549601933525,1.066197267807149
0.6639959364171015,1.8683975429657653,0.03470952228000501,1.1721459171288138
0.6826799118467591,1.7623851302596207,0.04643098145129315,1.2749969348625056
0.7003037631493554,1.6555924488781266,0.05918095079991821,1.3748002329404914
0.7168596876381367,1.547978343027581,0.07292895312932313,1.471642209310001
0.7323394710684125,1.4395024624828945,0.08764537522242313,1.5656398958962006
0.7467344956932414,1.3301274148931816,0.10330177418138514,1.6569360993383087
0.7600357698421731,1.2198203045642022,0.11987113517476823,1.7456952009586697
0.7722339728878151,1.1085538845414287,0.13732808718435494,1.8320993288228733
0.7833195117332294,0.9963075268189733,0.15564908047258366,1.9163446473675732
0.7932825870014192,0.8830682030797508,0.1748125269462594,1.9986375286105917
0.8021132690322167,0.7688316650493657,0.19479890223236532,2.0791903737608504
0.8098015856827103,0.6536040186362964,0.21559080596997382,2.1582168458459394
0.8163376258690733,0.537403898573362,0.23717297442843321,2.235926253962303
0.821711664854807,0.4202654687354594,0.2595322369680562,2.312516799961792
0.8259143195421615,0.30224249502207023,0.2826574049676741,2.3881673624530393
0.8289367444923822,0.18341375798395246,0.30653907859220453,2.4630274573719375
0.8307708820722217,0.06389008325604546,0.3311693531659239,2.5372049901542604
0.8314097829047822,-0.056176743736383594,0.3565414030674665,2.610751419959239
0.8308480154674184,-0.1765829667517404,0.3826489172670589,2.6836440199538645
0.829082185799901,-0.29705966646987925,0.40948535746659753,2.7557650814332653
0.8261115891352022,-0.41725754268244364,0.4370430082809302,2.826878231211134
0.8219390137083777,-0.5367302307107934,0.4653117905930415,2.89660258258466
0.8165717114012698,-0.6549173303360865,0.4942778164188881,2.9643862939803745
0.8100225380979089,-0.7711291899242599,0.5239216793586918,3.0294823141066742
0.8023112461986663,-0.8845365722143903,0.5542165024997586,3.0909306167711263
0.7934658804765224,-0.9941694882681773,0.5851258086674699,3.1475528796094747
0.7835241855938406,-1.0989303948255649,0.6166013374635646,3.1979668885000296
0.7725348816455849,-1.1976270569558958,0.6485810063485649,3.2406281885016446
0.760558611076026,-1.2890289712704215,0.6809872882335813,3.2739046568776127
0.7476683213633217,-1.3719477068322257,0.7137263348023575,3.296184866088724
0.7339488442949995,-1.4453357972286025,0.7466881834632447,3.306013229396191
0.7194954863227135,-1.5083919492438114,0.7797483157572066,3.3022353906458695
0.7044115668302754,-1.560654636185586,0.8127706696636653,3.284129321868745
0.6888050204684195,-1.6020645498423451,0.8456119628823527,3.251495196160512
0.6727843749699961,-1.6329809014827257,0.8781269148439579,3.2046831220807057
0.6564545659551688,-1.6541466529185125,0.910173746064765,3.1445515669139024
0.6399130994259837,-1.666609996155683,0.941619261733904,3.072366064264717
0.6232469994644269,-1.6716190639506898,0.9723429223765512,2.989661096832005
0.6065308088249199,-1.6705105380334793,1.0022395333448713,2.8980931665952445
