th1 (rad),w1 (rad/s),th2 (rad),w2 (rad/s)
3.7158062100311557,2.357911731045704,2.367236098255191,2.298217532896203
3.739385327341613,2.387681836666472,2.390218273584153,2.277359332487427
3.7632621457082776,2.419550679896824,2.412991866909027,2.25907066759699
3.787457652507246,2.4534253922232,2.435582573584997,2.24353434163184
3.811991906429478,2.4892120497914716,2.4580179170013152,2.2309359324950346
3.8368840269273927,2.526815503458149,2.4803272763262654,2.2214636650074873
3.8621521819619744,2.566139139480409,2.50254191297634,2.2153082128608608
3.8878135733567785,2.607084563741348,2.524694995104949,2.212662427680914
3.913884418994192,2.6495512019030145,2.546821619381758,2.2137209918075293
3.940379931013222,2.69343580749935,2.568958829299833,2.2186799903432934
3.9673142890882156,2.73863186975537,2.591145629203266,2.2277363969135404
3.994700607785769,2.785028912883659,2.6134229931724016,2.241087466454245
4.0225508969146055,2.8325116788054303,2.635833867836944,2.2589300272497947
4.05087601370266,2.880959185717851,2.658423168109442,2.2814596634448314
4.079685605559838,2.9302436557352323,2.6812377647438903,2.308869778434107
4.108988042117191,2.980229306029127,2.7043264625282313,2.3413505289912466
4.138790335177482,3.030770999548263,2.7277399678181435,2.379087619850834
4.169098045172965,3.0817127535870106,2.751530844016652,2.422260948848527
4.199915172708835,3.132886107269384,2.7757534535051374,2.4710430938118138
4.231244033781529,3.1841083525058638,2.8004638844432557,2.52559763436008
4.263085117306588,3.235180637243215,2.8257198607868563,2.586077304814523
4.29543692367902,3.2858859549368544,2.8515806338350016,2.652621978746472
4.328295783228389,3.3359870401905782,2.8781068536224663,2.7253564915231467
4.361655653630295,3.3852241974637467,2.9053604185376978,2.804388314755405
4.395507895604932,3.433313097636739,2.933404301685252,2.8898051060085326
4.4298410265812995,3.4799425859913464,2.962302352745337,2.9816721686671026
4.464640452441213,3.5247725546680955,2.9921190744320083,3.0800298705567553
4.499888177987893,3.567431942673265,3.022919373137576,3.184891085848765
4.535562497414626,3.607516936667721,3.0547682839960637,3.2962387428297193
4.571637666781303,3.644589455572822,3.087730671424361,3.414023580092768
4.608083561337031,3.6781760107991883,3.1218709072252886,3.538162235213814
4.644865321445023,3.70776704077612,3.1572525295774265,3.668535812432702
4.681942991852784,3.7328168223677767,3.1939378877017535,3.8049890984622805
4.719271160076462,3.7527440614487095,3.2319877786863764,3.947330617262413
4.756798600690949,3.766933258951302,3.2714610848590007,4.0953337341834075
4.794467933280463,3.7747369355560956,3.3124144222008347,4.248739035856742
4.8322153026360235,3.7754787763197606,3.3549018125594023,4.407258223022487
4.869970090399221,3.7684577244900233,3.398974394789627,4.5705797575538
4.907654667644121,3.7529530104121247,3.444680192365165,4.7383765008354
4.945184197748243,3.7282300462005806,3.492063957373519,4.910315567283739
4.982466498210249,3.6935470499796343,3.5411671130463565,5.086070593640085
5.019401968710045,3.6481621864033684,3.5920278189827575,5.265336591994722
5.055883590574078,3.5913409258219517,3.6446811849027045,5.447847513529868
5.091796999832297,3.522363237819189,3.6991596600380032,5.633396602853317
5.127020632210489,3.4405301533718915,3.7554936260665364,5.821859572260946
5.1614259337442085,3.3451691642685693,3.813712221789146,6.013220573638724
5.194877625386894,3.2356378937751926,3.8738444275255333,6.207600892874094
5.227234004324647,3.111325490497454,3.9359204364542744,6.405290231175656
5.258347259229621,2.9716513002449347,3.999973338766031,6.606780349927575
5.2880637722320705,2.816060609220443,4.066041142265306,6.812800695331687
5.316224378324275,2.6440177101815068,4.134169149218623,7.024355293178753
5.34266455542609,2.4549973666556717,4.204412702150411,7.242759532670129
5.367214529092647,2.248477196283641,4.276840297477112,7.4696741033766
5.389699301055483,2.0239360243414755,4.3515370385108785,7.707130687883183
5.409938661298898,1.7808676990678487,4.42860834538971,7.957538909870487
5.427747338289576,1.5188276734997048,4.508183734488415,8.223654461852007
5.442935615024573,1.2375433512514062,4.590420279106935,8.508470756225861
5.455311048537087,0.9371427933291145,4.675504986669194,8.814965071631107
5.4646824764703785,0.6185954407495896,4.763654637385504,9.145576733283976
5.470868430877874,0.2845175281462928,4.855110404718344,9.50121168972593
5.473713606159337,-0.05943440789112425,4.9501225216156035,9.879463132640211
5.473119262080425,-0.40233438695266793,5.048917152942006,10.271685879929674
5.469095918210899,-0.7248942064265825,5.151634011741303,10.658825518085731
5.461846976146633,-0.9963930679519829,5.25822226692216,11.007095232025732
5.451883045467113,-1.1746197391451396,5.3682932192424175,11.26740749766056
5.440136848075662,-1.214076943315415,5.480967294219023,11.385543590090759
5.427996078642508,-1.0848223590025918,5.5948227301199305,11.32624722975194
5.417147855052482,-0.7914369373003731,5.7080852024174495,11.097237584759592
5.409233485679478,-0.37267761209628897,5.8190575782650455,10.747583735842788
5.405506709558516,0.11994136497780894,5.9265334156234735,10.339073692442513
5.406706123208294,0.6434813149701678,6.029924152547899,9.919146997282045
5.413140936357996,1.1707626841434702,6.129115622520719,9.513130577268244
5.424848563199431,1.6874336267205592,6.224246928293401,9.129368819858758
5.441722899466637,2.186816709853529,6.3155406164919885,8.766588139434816
5.463591066565172,2.666055684498225,6.403206497886337,8.419123575185726
5.490251623410154,3.123916018178661,6.487397733638193,8.079823085221092
5.521490783591941,3.5597100620441053,6.568195964490404,7.741475875056765
5.557087884212382,3.9728530121682755,6.645610723240972,7.397466316537355
5.596816414334064,4.362743905348767,6.7195853864063455,7.042058497141079
5.640443853387552,4.728805234541324,6.790005971377756,6.670512468396617
5.687731905732965,5.070593661012331,6.856711096061722,6.279121797528207
5.738437842343089,5.387934843580304,6.919502314037004,5.865206953547284
5.792317190778892,5.681055760112939,6.978154383572477,5.427074001198131
5.849127748380021,5.950698622759637,7.032425123584458,4.963938391775784
5.908634734607618,6.198206984315299,7.082064507502216,4.475811837017934
5.970616804450771,6.4255793659656195,7.1268226258723955,3.9633525021249714
6.034872598110427,6.635489565912868,7.166456150893645,3.427683021276648
6.101227493769556,6.831275675221334,7.200732981106412,2.870186071065661
6.169540250521769,7.016901066287797,7.229434841817068,2.2922931710243386
6.239709261184647,7.196888999661201,7.2523577735273115,1.6952897542973926
6.311678151181259,7.376225969348438,7.2693106710702855,1.0801706841153202
6.385440410874743,7.560213949954046,7.280112377911439,0.4476002274163905
6.461042550374284,7.754222097356925,7.284588380185603,-0.20193173547360288
6.538584771347853,7.963233653821375,7.282569062830867,-0.867594285106307
6.618217107886067,8.190988852773604,7.273893119979804,-1.547051828128795
6.700126996413803,8.438379951375566,7.258422601698516,-2.234170023963711
6.784510795927559,8.700604374343632,7.236080901458879,-2.914914918617919
6.871516839670995,8.962681725534985,7.2069317522727,-3.5609428850853924
6.961143656926344,9.19408622481674,7.171322323421847,-4.122056849791807
7.0530845191745115,9.346801599754068,7.1301017549239285,-4.52381091118546
7.146552535172052,9.366230763535064,7.0848636458120735,-4.6838260093724795
7.2402148428074025,9.22059380022091,7.038025385718349,-4.554798411076326
7.332420780809612,8.928990474774356,6.9924774016075855,-4.165550814400913
7.421710685557355,8.55259170020973,6.950821893463576,-3.60868282410281
7.507236602559452,8.155589288581684,6.9147350652225485,-2.983711481912361
7.588792495445269,7.778887087936039,6.884897950403425,-2.357641031941783
7.666581366324629,7.439615277006326,6.861321540084007,-1.7628556210476067
7.740977519094693,7.140647858106917,6.843692983873531,-1.2101833100028756
7.812383997675762,6.878511735886813,6.8315911507735025,-0.7002310351645221
7.881169115034631,6.647678379394848,6.824588840421858,-0.2297440582551487
7.947645898828579,6.442457147080066,6.822291399839306,0.20545828831636387
8.01207047029938,6.257696111288625,6.82434598272247,0.6093055129746879
8.074647431412266,6.088966857018823,6.830439037852217,0.9850945006749698
8.135537099982455,5.932549950981074,6.840289982858966,1.3354393740393484
8.194862599492266,5.785356527883206,6.85364437659936,1.6623459075930045
8.252716164771098,5.644839659081223,6.87026783567529,1.9673227742906811
8.309164561361909,5.508914282094332,6.889941063418197,2.2514943017285187
8.364253704182852,5.3758902908709825,6.912456006435482,2.5157017834057385
8.418012607091562,5.244418060734565,6.937613024269539,2.760589627143105
8.470456787698907,5.113444040498591,6.96521892054097,2.9866762367218596
8.521591228103894,4.982173872512782,6.995085682908188,3.1944107956565735
8.57141296682902,4.850040861722874,7.027029790864754,3.384217468685082
8.61991337544625,4.716678117219516,7.060871965551605,3.556528552205447
8.667080156618445,4.581893177977034,7.096437251073659,3.711808026604553
8.712899088398215,4.445644351545734,7.133555331339704,3.8505668745525763
8.757355531913673,4.308018325196578,7.17206100008523,3.973371450290111
8.800435715165639,4.169208855654796,7.211794714588131,4.080846113339955
8.842127803722187,4.029496515304053,7.25260317572153,4.173671268018288
8.882422768875228,3.889229581252883,7.294339888401713,4.252577870886314
8.921315064687757,3.7488062109977545,7.336865667110576,4.318339378351785
8.958803126797735,3.608658066095349,7.380049060894094,4.371762005620585
8.994889707458688,3.4692355337307403,7.423766680950299,4.413674058085813
9.029582062795996,3.330994664534249,7.467903421531157,4.444914980434712
9.062892009441338,3.194385901312323,7.512352571335504,4.466324651301125
9.094835868454462,3.059844624031522,7.557015817848516,4.4787333362832005
9.125434314694777,2.927783486647653,7.601803151211348,4.482952603304144
9.154712149561254,2.7985864751901612,7.646632677244389,4.479767404712832
9.182698014313155,2.672604576728298,7.691430351291517,4.469929442526171
9.209424060080439,2.550152917238427,7.736129645716779,4.4541518583060755
9.234925589252823,2.4315092038031945,7.780671164299839,4.433105228027836
9.259240681290855,2.3169132930521665,7.825002216580118,4.4074147948747315
9.282409814221376,2.206567702717939,7.8690763645288655,4.377658838491314
9.304475491248555,2.100638885591683,7.912852952913779,4.3443680566519385
9.325481880104471,1.9992590936909707,7.9562966334802985,4.3080258230129065
9.345474471041381,1.9025286736449458,7.999376891710428,4.26906918088239
9.36449975777783,1.81051865070661,8.042067583519252,4.227890435971363
9.382604944284896,1.7232734770763587,8.084346487878966,4.184839219148478
9.39983767905566,1.6408138392006852,8.12619488007045,4.140224901724116
9.416245817447667,1.563139437448757,8.16759712908769,4.094319259347926
9.431877211822155,1.490231669351255,8.20854032168117,4.047359295065923
9.446779528515668,1.4220561639158518,8.24901391463183,3.9995501465325582
9.461000090154826,1.3585651291156227,8.289009416097155,3.9510680161228264
9.474585741445983,1.299699487350275,8.328520096258384,3.9020630752578565
9.487582736319485,1.2453907845055305,8.367540727010962,3.852662305339327
9.50003664416454,1.1955628672782648,8.406067350064355,3.8029722471236975
9.511992272837322,1.1501333308510606,8.444097072535591,3.7530816381120182
9.523493606145832,1.1090147449800398,8.48162788891671,3.7030639236288443
9.534583753595633,1.0721156713044047,8.518658528152999,3.6529796318242083
9.545304910308678,1.0393414883866396,8.55518832447124,3.602878606013447
9.555698325192544,1.010595043818202,8.591217110531375,3.552802089763079
9.565804275630727,0.9857771548149861,8.626745131429006,3.5027846611533957
9.575662047178877,0.9647869801820502,8.66177297804054,3.452856012932979
9.585309916980698,0.9475222874131892,8.69630153816987,3.403042575070077
9.59478513985483,0.933879639038498,8.73033196392057,3.353368975747065
9.604123936245214,0.9237545221440224,8.76386565367804,3.3038593363792064
9.613361481466654,0.917041444243795,8.796904247041832,3.254538395996168
9.622531895909093,0.9136340173589897,8.829449631001793,3.2054324605078173
9.631668236082684,0.9134250502283332,8.86150395560687,3.156570173150748
9.640802486584967,0.9163066660319388,8.893069657338378,3.1079831038938384
9.649965553245286,0.9221704598802315,8.924149488377317,3.0597061578218168
9.659187257844088,0.9309077066623983,8.954746549955535,3.011777805494736
9.668496334910712,0.942409625771325,8.984864328010483,2.964240141901084
9.677920431168426,0.9565677048758051,9.014506729429494,2.917138784711234
9.687486108217184,0.97327408048676,9.043678117276606,2.870522626860272
9.697218849022052,0.9924219687805478,9.072383343545209,2.8244434627630004
9.707143068709858,1.0139061362278223,9.10062777817284,2.7789555113859916
9.717282130072135,1.037623396249564,9.128417333286698,2.7341148626763347
9.727658364034632,1.06347311557057,9.155758481913463,2.689978876215979
9.738293095190338,1.0913577123026528,9.182658270675622,2.646605562240062
9.749206672313365,1.1211831271387185,9.209124326298022,2.6040529752171158
9.760418503584752,1.152859249377164,9.235164856050194,2.562378649022801
9.771947096078524,1.1863002807553789,9.260788642540422,2.5216391004253835
9.783810098886077,1.221425022121137,9.286005033544676,2.4818894243021536
9.796024349107288,1.2581570706336669,9.310823927787697,2.4431829999466603
9.808605919813624,1.2964249182564271,9.335255757787163,2.4055713232699074
9.821570168996189,1.3361619455679041,9.359311471019861,2.3691039749177207
9.834931788451868,1.37730630817409,9.383002510769039,2.3338287295781988
9.84870485153361,1.4198007160840234,9.406340798064821,2.299791807256511
9.862902858694449,1.4635921091749513,9.429338716137387,2.267038263215024
9.877538779786198,1.5086312342388797,9.452009098769537,2.235612509719757
9.892625092128586,1.554872131026078,9.474365223866734,2.2055589597429246
9.908173813438847,1.6022715361839002,9.496420813464162,2.1769227803337508
9.924196528800685,1.6507882150657869,9.5181900412675,2.1497507414283796
9.940704410951342,1.7003822321149469,9.539687548681783,2.1240921443352065
9.957708233272491,1.751014170983698,9.560928470125136,2.0999998128971358
9.975218374982328,1.802644315810602,9.581928468254107,2.077531129286603
9.993244818140434,1.8552318052160703,9.602703779546973,2.0567490954314236
10.011797136192595,1.9087337706529932,9.623271270501286,2.037723400118857
10.030884473899125,1.9631044708032717,9.643648504502474,2.0205314708301074
10.050515518607158,2.0182944337621223,9.663853819210775,2.0052594883017267
10.07069846294478,2.0742496187926824,9.683906414093792,1.9920033407175421
10.091440959132706,2.130910609431232,9.703826447500967,1.980869493369021
10.112750065227019,2.1882118496217933,9.723635142434658,1.9719757486871008
10.134632183723237,2.246080934281434,9.74335489992153,1.9654518708830881
10.157092993066051,2.3044379651535745,9.76300941863036,1.9614400492060853
10.180137372717587,2.3631949818998006,9.782623819122422,1.9600951742111858
10.203769322536585,2.422255477020021,9.802224770864534,1.9615849026189063
10.227991877306785,2.481514001303383,9.821840619890724,1.966089488497087
10.25280701731982,2.5408558640575936,9.841501514775695,1.9738013617389742
10.278215575960395,2.600156929348533,9.861239528393085,1.9849244392131429
10.304217145253881,2.6592835059717297,9.881088772785217,1.9996731595108517
10.330809980313598,2.718092325008945,9.901085504380326,2.018271238807974
10.357990903563687,2.7764305948079118,9.921268216768405,2.04095015278234
10.385755209511766,2.834136119344307,9.941677718296228,2.0679473574726344
10.414096570705208,2.8910374625258712,9.962357191870954,2.09950427003462
10.443006945330467,2.9469541384629907,9.9833522345713,2.1358640380874525
10.472476486715097,3.0016968064534417,10.004710874952174,2.17726913326911
10.502493454779632,3.055067449784741,10.026483566284865,2.223958810282316
10.53304412927748,3.1068595197612408,10.048723154387687,2.2761664767304093
10.564112724475093,3.1568580308405028,10.07148481915499,2.3341170211512043
10.595681304783499,3.2048395995262555,10.094825989366504,2.3980241467349255
10.627729700778762,3.2505724286995767,10.118806230833853,2.468087756291608
10.660235425065757,3.2938162502407793,10.14348710839677,2.544491430282326
10.693173587568165,3.334322251866046,10.168932022699593,2.627400034408966
10.726516810086824,3.3718330287748195,10.195206023043683,2.7169574866556734
10.760235140374572,3.4060826166598113,10.22237559791024,2.8132847060139383
10.79429596654117,3.4367966795956377,10.250508444970379,2.916477756457736
10.828663933337127,3.463692944121285,10.279673222534957,3.026606189843145
10.86330086277834,3.4864819894584467,10.309939284433389,3.1437115796793487
10.898165682672925,3.504868523484323,10.341376400230182,3.2678062230529976
10.933214367907768,3.5185532953197645,10.374054462460713,3.3988719686922804
10.968399900860966,3.5272358190774127,10.408043182147635,3.5368591028556846
11.00367225905174,3.5306181107410306,10.443411773176193,3.6816851882868016
11.03897844015915,3.528409673101825,10.48022862505906,3.83323370093233
11.074262536890169,3.520334004460044,10.518560962068385,3.9913522396768935
11.109465876934769,3.5061369581822115,10.558474484465155,4.155849990439566
11.14452724651659,3.4855973452264895,10.60003298436955,4.326494001536721
11.179383219968855,3.458540253198697,10.643297924384918,4.503003666325384
11.213968622500841,3.4248536548039588,10.688327961048172,4.685042607394928
11.248217159048881,3.3845089936332435,10.73517838712212,4.87220691372783
11.282062248985213,3.337586556625201,10.7839004562594,5.064008407053973
11.315438114551466,3.284306546901082,10.83454054032994,5.2598513321990845
11.348281180020477,3.2250668101796247,10.88713905365193,5.459000635757535
11.380531848122272,3.160488054782984,10.941729060009505,5.66053992699396
11.412136728670102,3.091466990684084,10.998334459279445,5.863317494085823
11.443051398576943,3.01923686543976,11.056967634220303,6.065879680107771
11.47324376723134,2.945433068266468,11.117626431021382,6.266392942683311
11.502698097914005,2.872158417019086,11.180290360448215,6.462559570293166
11.531419682084195,2.802038106042487,11.244915956151146,6.651537801738579
11.55944006314462,2.738248108579533,11.311431334168532,6.829885057703902
11.586822544230415,2.6844940368011567,11.37973018474557,6.993552068265956
11.613667484598427,2.6449126262416547,11.44966570542823,7.137962700844227
11.640116610860844,2.6238697367092394,11.521045332436671,7.258213394296422
11.666355308227937,2.6256428376089764,11.593627466379635,7.349409781591423
11.692611736604027,2.654005989294975,11.667121564195549,7.407121511015413
11.719151796496977,2.7117771272833378,11.741192779305702,7.4278846787141735
11.74626956776981,2.8004247762321253,11.815471626092844,7.409635364649826
11.774273815532132,2.9198401744156284,11.889567979739342,7.351948064927362
11.803472217276289,3.0683451260086385,11.963087460388616,7.255999191947384
11.834155668536376,3.2429348095129247,12.03564745230809,7.12426538277475
11.866585016631506,3.4396824557125214,12.106890106135838,6.960054471339287
11.900981841188631,3.6541955827271617,12.17649065084923,6.7670079360446165
11.937523797015903,3.882023667121403,12.244160730209677,6.548694095791013
11.976344033687116,4.118958513179089,12.309647671167587,6.308354560895978
12.017533618818907,4.3612139376736385,12.372731216776547,6.048808162765888
12.061145758195645,4.6055019275959275,12.433219298404206,5.772479884388404
12.107200777471604,4.849034031130745,12.49094409724809,5.481510785043859
12.155691117782911,5.0894747895202705,12.545759205098529,5.177910369577684
12.206585865678115,5.324865986699354,12.597538308794306,4.863725207197581
12.259834525545108,5.553531818011574,12.646175560866281,4.541209961250955
12.315369843725223,5.773968474927842,12.69158766047879,4.212996132269312
12.373109528474503,5.984718055250456,12.733717621801484,3.882258721175259
