th1 (rad),w1 (rad/s),th2 (rad),w2 (rad/s)
5.117095319459543,2.4253553799093024,2.475128291016492,1.4218145750331532
5.141348873258636,2.540878699476311,2.4893464367668234,1.4908140486416805
5.166757660253399,2.6572354032020025,2.5042545772532403,1.5643790294084832
5.1933300142854195,2.774321475314096,2.519898367547325,1.6425159904596562
5.22107322903856,2.8920089556897723,2.5363235274519216,1.7251955207304124
5.2499933185954575,3.0101445213069766,2.553575482659226,1.8123496356266866
5.280094763808528,3.128548332695966,2.5716989790154927,1.9038694163143384
5.311380247135487,3.2470132221508585,2.5907376731786362,1.9996031007126946
5.343850379356995,3.3653043000117187,2.6107337041857632,2.099354753341493
5.377503422357113,3.4831590510212598,2.631727251719178,2.202883639466694
5.4123350128673255,3.6002879841482907,2.653756088113845,2.3099044204746058
5.448337892708809,3.716375886160239,2.676855132318591,2.420088271375987
5.485501651570411,3.831083711755732,2.701056015032351,2.5330649975824087
5.523812488687969,3.944051121749193,2.726386665008175,2.6484261969820553
5.563252999905461,4.054899656535919,2.7528709269779954,2.765729475910243
5.60380199647082,4.163236506116248,2.780528221737098,2.8845036855621693
5.645434361531983,4.268658811850211,2.8093732585927196,3.0042551010123617
5.688120949650485,4.370758410520543,2.8394158096028432,3.12447442098331
5.7318285337556905,4.469126909854576,2.870660553812676,3.2446444257234193
5.776519802854236,4.563360967856659,2.9031069980699105,3.364248095596235
5.822153412532803,4.653067637246431,2.936749479025873,3.482776966656115
5.868684088905267,4.737869631630255,2.971577248692434,3.599739483370448
5.91606278522157,4.817410371868193,3.0075746435261386,3.7146691037192356
5.964236888940252,4.891358679024544,3.044721334563331,3.827131918244684
6.013150475730497,4.959412993436715,3.0829926537457775,3.9367335614570895
6.062744605664864,5.021305016600218,3.122359989360348,4.04312521980889
6.112957655830867,5.07680269236131,3.162791241558437,4.146008573165712
6.16372568275448,5.125712464927316,3.2042513272900943,4.245139543973093
6.214982807403753,5.167880772165427,3.2467027227298253,4.340330767731642
6.266661615125407,5.203194752512833,3.290106030407142,4.431452737712425
6.318693562650535,5.23158216180811,3.334420557784266,4.518433614165159
6.371009384268616,5.253010512030892,3.379604893925918,4.601257722129244
6.423539489388925,5.267485457147949,3.42561747114721,4.6799627913621045
6.476214343960405,5.2750484620918545,3.472417099060831,4.75463601631958
6.528964828581323,5.275773799603114,3.519963459224027,4.825409033432334
6.581722566577354,5.269764926622231,3.56821754955835,4.892451927324429
6.634420215843576,5.257150297563136,3.6171420688315945,4.955966387575654
6.686991718819208,5.238078676602937,3.666701732707351,5.016178143790989
6.739372505585237,5.212714015571337,3.716863514145261,5.073328809910319
6.79149964574095,5.181229968622548,3.7675968022443644,5.127667269794938
6.843311945427176,5.143804120162894,3.818873474942314,5.179440736207414
6.8947499866288045,5.100612009078827,3.870667882304388,5.228885615520044
6.9457561067195925,5.051821040812663,3.9229567384595883,5.276218312125192
6.996274317127719,4.997584389968242,3.97571892158084,5.32162611096358
7.046250161027402,4.938035010610301,4.028935182690476,5.365258285278768
7.095630511133505,4.873279889898173,4.082587765543264,5.407217591061843
7.144363310032487,4.8033947036180376,4.136659941453882,5.447552330901261
7.192397257068667,4.728419059609819,4.191135464762894,5.486249198918451
7.239681447664766,4.6483525464384385,4.2459979567520785,5.5232271552397485
7.28616497312915,4.563151838379948,4.301230228304476,5.558332621980207
7.331796491512949,4.472729141000192,4.356813554524278,5.591336340323743
7.376523782922951,4.376952289738051,4.4127269179275155,5.621932275170718
7.420293305820332,4.2756468304681166,4.468946240679223,5.649738992595731
7.463049774125013,4.168600407523462,4.525443630605181,5.674303955788726
7.5047357782002475,4.05556975097049,4.582186670163068,5.695111174348243
7.545291475709952,3.9362904801630267,4.639137781906551,5.711592585026416
7.584654380511583,3.810489814785547,4.696253707756815,5.723143424471654
7.622759278659438,3.6779021011212683,4.753485142001532,5.729141664094699
7.6595382996706505,3.5382868200663493,4.810776558642479,5.728971308401356
7.694921167871314,3.3914484542811176,4.868066271726493,5.722049016524646
7.7288356524141255,3.2372572773455563,4.925286761891739,5.70785311293707
7.761208225187581,3.075669824115862,4.982365293021109,5.685953645684909
7.79196492342874,2.906747556623864,5.039224829477958,5.6560417838620625
7.821032398994978,2.7306721075330627,5.095785247316579,5.617956586346097
7.8483391200703085,2.5477555129038416,5.15196481318004,5.5717070872345245
7.873816675199347,2.358444070738947,5.207681884052385,5.51748778174871
7.897401115906736,2.163314885714213,5.262856761869872,5.455685981630593
7.919034264763878,1.9630647514490083,5.317413621686178,5.386880121813377
7.938664912278369,1.7584917111268838,5.371282422904312,5.3118288762141
7.9562498293896375,1.5504703301629519,5.424400711666453,5.231451778760348
7.971754532691267,1.3399223073468245,5.476715229454057,5.146802826620527
7.985153755764735,1.127784453345793,5.528183257720262,5.059039152702725
7.996431600298193,0.9149762206235272,5.57877364924729,4.969387210909626
8.005581362504428,0.7023688643589853,5.628467521356386,4.8791089845609195
8.012605051148018,0.49075798239067814,5.677258611201995,4.7894705216583215
8.017512630971925,0.28084069057348215,5.725153316418578,4.701714679825599
8.020321037877661,0.07319812240980564,5.772170463216834,4.617039415078517
8.021053019101759,-0.13171661886480526,5.818340857367619,4.536582364745581
8.01973585291311,-0.3335854151594946,5.863706681015074,4.461411937060984
8.016399998761514,-0.5322277280216849,5.908320800385684,4.392524686276655
8.011077721481298,-0.7275998093942927,5.95224604724845,4.330848453477633
8.003801723387355,-0.9197916275054387,5.995554531783227,4.277250595642323
7.9946038071123,-1.1090226299124522,6.038327037739649,4.2325505963507
7.983513580813176,-1.2956374200486147,6.080652543703156,4.197536427612394
7.970557206612689,-1.4801023402978992,6.12262790797928,4.1729841865029975
7.95575618320971,-1.6630038610445548,6.16435774984431,4.159680736838288
7.939126144599264,-1.8450495920185395,6.205954557212693,4.1584493228002
7.920675648679079,-2.027072671790824,6.247539050440695,4.170178369292972
7.9004049219611705,-2.210040255207987,6.289240834133625,4.195853923468244
7.878304519409091,-2.3950667942088413,6.331199373368308,4.2365963954071555
7.854353851467002,-2.5834327587621915,6.373565337322379,4.293702371295905
7.828519523879381,-2.7766092928177706,6.416502361035338,4.368692193294464
7.800753430951203,-2.976288883713302,6.460189282968282,4.4633635078012555
7.77099054211407,-3.184421117431021,6.504822918046295,4.579849631397383
7.73914633093976,-3.403250346112234,6.550621414360268,4.720678469108033
7.7051138274786375,-3.6353473124564855,6.5978281990513485,4.888821034587342
7.668760354354073,-3.8836168958664152,6.6467164093972215,5.087704779642205
7.629924185395409,-4.151244188818186,6.697593457193643,5.321138956751466
7.588411743507227,-4.441501771193305,6.750804846761158,5.593044031794817
7.543996725795294,-4.757266390707052,6.806735287079106,5.90677229352457
7.496424061888224,-5.099961736461106,6.865803010014352,6.263621809428553
7.445424444523613,-5.46744928781109,6.928439228108637,6.659871345279027
7.3907499516455015,-5.850234985551739,6.995037941561427,7.081444310161436
7.332247601789984,-6.225744637411023,7.065852384663041,7.4958446206863565
7.269990155415874,-6.552695456555483,7.140810830869905,7.84419324009994
7.204463200850319,-6.773171075904465,7.219252763270905,8.0440279508587
7.136731490091274,-6.833989857782796,7.299693042779492,8.01914270729517
7.068391591513446,-6.723289323989054,7.379884469852444,7.750809672988547
7.001158698273556,-6.485232860408518,7.457392566582329,7.2984810686995445
6.93630636966947,-6.189417794200548,7.530377377269325,6.7572327607528475
6.8744121917274645,-5.891573851551543,7.597949704876854,6.203075529407829
6.815496453211949,-5.62127185977818,7.659980460170932,5.675888912746128
6.759283734614168,-5.38897877037199,7.7167393492983924,5.189216622735669
6.705393946910448,-5.195449009788152,7.768631515525749,4.743264279175246
6.653439456812566,-5.037591612890878,7.816064158317502,4.332996969302654
6.6030635406836575,-4.911276594056211,7.859394128010528,3.952003625701591
6.553950774743096,-4.812474126210461,7.898914164267544,3.5940665795548257
6.505826033480991,-4.737631080096405,7.934854830063093,3.2536884748668577
6.458449722680027,-4.6837322523490625,7.967391714811761,2.9261935082470005
6.411612400156536,-4.648244617120418,7.996653649894231,2.6076754439247587
6.365129953985332,-4.6290271164397385,8.022730404333478,2.294905046468116
6.3188396828209346,-4.6242381324527715,8.04567945479816,1.985240115277381
6.272597301496407,-4.632251799660693,8.065531855950933,1.6765521927017266
6.226274783499799,-4.651586038919972,8.08229737787795,1.3671722142942278
6.1797589231106,-4.680842292532088,8.095969100020891,1.055852801042628
6.132950500185279,-4.71865623925769,8.106527628031317,0.7417432622279855
6.085763937792702,-4.7636588970312514,8.113945060653597,0.4243728998216287
6.03812734882239,-4.814447874662804,8.118188789651814,0.10363818701552491
5.989982870075762,-4.869568833254646,8.11922517152197,-0.2202103863296429
5.941287181743215,-4.927507327868352,8.117023067658673,-0.5465855723307884
5.892012108464532,-4.986691058216216,8.111557211935365,-0.8745878031268941
5.8421451978823695,-5.045502155617156,8.102811333904096,-1.203038892369313
5.791690176326198,-5.102298516212243,8.090780944980404,-1.5305258139877231
5.740667191164076,-5.155442453296022,8.075475686840527,-1.8554539159427694
5.689112766631116,-5.203334222160166,8.056921147681098,-2.1761074542684464
5.637079424409514,-5.244447424665614,8.035160073138414,-2.4907140640482983
5.584634950162857,-5.27736306671337,8.01025293249793,-2.797508941104062
5.531861319495723,-5.3007992053027495,7.98227784308689,-3.0947942570930094
5.478853327442696,-5.3136336887510796,7.95132990051596,-3.380989732369484
5.425716990555185,-5.314918384664053,7.917520003192265,-3.6546712792054876
5.3725678067085445,-5.303884359686747,7.88097329040021,-3.9145960232231793
5.319528963111677,-5.2799385474031215,7.841827330167978,-4.1597135653203425
5.266729577637645,-5.242653352774992,7.800230194514774,-4.389164804383608
5.214303044109895,-5.191751276304629,7.756338546470938,-4.6022707950545305
5.162385531346849,-5.127086944789392,7.710315838520393,-4.798514839874266
5.111114661898955,-5.048628915176445,7.66233069012165,-4.977521276944864
5.060628372747191,-4.956443325747947,7.612555477352202,-5.139034263811444
5.011063939489711,-4.85068098047524,7.561165134714087,-5.2828993642273705
4.962557129684958,-4.731568848151939,7.508336141071813,-5.409050024249635
4.915241441203439,-4.599406310203841,7.454245640829316,-5.517500182170903
4.8692473781014005,-4.454565859646107,7.399070639007607,-5.6083433831381955
4.824701719504939,-4.297497386870187,7.342987205176225,-5.6817579373314935
4.781726745636237,-4.128734726447457,7.28616962580291,-5.738016930445963
4.7404393983717625,-3.9489028188393127,7.2287894564984505,-5.777501318400731
4.700950370183369,-3.758723692864973,7.171014443314443,-5.800713959465301
4.66336313325472,-3.559019521330799,7.11300730371979,-5.808292292089444
4.627772938041412,-3.350711250289709,7.054924380798896,-5.801017475856094
4.594265825538515,-3.1348117364244614,6.996914206040335,-5.779818172488849
4.56291770817427,-2.9124129047190226,6.939116024315447,-5.745767719533435
4.53379357912708,-2.6846670921008964,6.881658347120112,-5.700074175089986
4.5069469082060705,-2.452763386980576,6.824657605369212,-5.644063496044809
4.482419274336265,-2.2179003211853696,6.768216970408764,-5.579156850976814
4.460240271124412,-1.9812566447271416,6.7124254018989955,-5.506843665116337
4.44042770467714,-1.7439620684695405,6.657356965247832,-5.428652375955421
4.422988083992445,-1.5070697853360475,6.603070441488278,-5.346121009638588
4.407917386139085,-1.271532304576477,6.549609231391892,-5.26076957743767
4.39520206309332,-1.038181712088496,6.497001535617515,-5.174075982651971
4.384820245972435,-0.8077149744797094,6.445260775790995,-5.0874566897878175
4.376743096227638,-0.5806844072732287,6.394386208893117,-5.002252917055342
4.370936252154905,-0.35749298777702565,6.344363679722563,-4.919722641051063
4.3673613222771355,-0.13839384987743267,6.295166453312053,-4.841038303165785
4.365977383778361,0.07650693161691216,6.246756070280395,-4.76728981326494
4.36674245309453,0.2872452780318867,6.199083172147746,-4.699492268678774
4.369614905874849,0.4939928003427501,6.152088249460958,-4.638597739327731
4.3745548338782765,0.6970502378983422,6.10570227206768,-4.585510495050994
4.38152533625726,0.8968415398664129,6.05984716711717,-4.541105144904417
4.390493751655924,1.0939093728160225,6.0144361156681265,-4.506247294202766
4.401432845384084,1.2889127159984959,5.969373642726099,-4.481816476803168
4.414321972544069,1.4826270814249336,5.924555477958068,-4.468731259305124
4.429148243358319,1.6759477603948079,5.879868165365016,-4.467976505666482
4.445907720962267,1.869896323733039,5.835188400308351,-4.480632783664571
4.464606684199597,2.0656303304411936,5.790382072471706,-4.507907701632292
4.485262987504009,2.2644557160727827,5.745302995455384,-4.551168428608038
4.507907544664737,2.4678404299813135,5.699791311169303,-4.611973486816076
4.53258594896455,2.6774261899776115,5.653671576301142,-4.692099585842117
4.559360210864326,2.8950320359243626,5.6067505804427205,-4.793554833222908
4.58831053122357,3.1226374615501458,5.558815032110491,-4.918561384091953
4.619536905839071,3.3623221550660105,5.509629418269571,-5.069475485908049
4.653160127389731,3.6161203077954776,5.458934663410491,-5.248586030153605
4.689321330467686,3.885715124424138,5.4064488031089555,-5.457687157794819
4.728178481711927,4.171849090646366,5.351871931531007,-5.697249731593544
4.76989697261839,4.473262773376928,5.294899434215072,-5.964927420718128
4.81462960035216,4.784943351725065,5.23525016000789,-6.253086997168045
4.862479033869411,5.0956159794555695,5.17271929003621,-6.5452627169868265
4.913435193663966,5.385096566912311,5.1072666628663415,-6.812393608644886
4.9672861593330895,5.623735200414954,5.039142726779892,-7.011963471440682
5.023523511337239,5.777979279227897,4.969023092065486,-7.0957008544873785
5.081303304129518,5.824196025214115,4.898066083520612,-7.028872514526677
5.13954526438166,5.763523289178591,4.827777358375345,-6.811090846984175
5.197180497273446,5.623179294270231,4.759666449905503,-6.478270028474203
5.253412290216148,5.441391979482434,4.694883749620761,-6.081744103716998
5.3078262100109725,5.250764290314062,4.634066308583591,-5.6651917384140384
5.360333852914113,5.071709700543052,4.577414391199451,-5.2555439440594505
5.411050949919544,4.914120378583337,4.524858951758856,-4.865294630439333
5.4601921537053775,4.781330933966132,4.476206005454462,-4.497969559078941
5.508005463045039,4.67330477669767,4.431226309863673,-4.152508166063795
5.554738510812015,4.588543362694001,4.389701228203035,-3.82588017668753
5.600623944438955,4.5250723421020735,4.35144242643616,-3.5144337486671566
5.645874667859976,4.480898291162928,4.316298088949488,-3.214521372639338
5.690683650771605,4.454192688974393,4.284152875223095,-2.9227580297232167
5.73522557766135,4.4433442011665445,4.2549252949258625,-2.636105803854937
5.779659019673015,4.4469509343898395,4.228564236887313,-2.3518833581757574
5.824128529016913,4.463787434305677,4.205045403305555,-2.067747912791498
5.868766403359969,4.492762677604353,4.18436792417764,-1.7816718520069026
5.913694030136013,4.532876339862882,4.166551205657571,-1.4919235924843692
5.9590227935346425,4.583176450309293,4.151631969732727,-1.1970562723582512
6.004854558037735,4.642719749398797,4.139661407009145,-0.8959048327518663
6.051281755531723,4.710535436591034,4.130702358681626,-0.5875905100338366
6.098387109897633,4.785592926981092,4.124826453581288,-0.27153085063985394
6.146243039167444,4.866774408690568,4.122111145074889,0.05254725214261208
6.1949107832543495,4.9528532243166214,4.122636617596315,0.38459444246632196
6.244439315497516,5.042479265937349,4.126482562020978,0.7242289231020862
6.294864108156889,5.134172581609328,4.1337248512519995,1.0707328682323025
6.3462058339729825,5.226326175084358,4.144432179934323,1.4230582018906746
6.398469095723826,5.317218507172198,4.158662761953229,1.7798440475324289
6.451641280795548,5.405035492709954,4.176461202428554,2.139447084199316
6.5056916357226475,5.487900906147489,4.1978556732705465,2.4999846432024735
6.560570644784122,5.563913193246217,4.222855519702572,2.8593888105535874
6.616209776716585,5.631185906605163,4.251449407808107,3.2154683070426526
6.672521635782637,5.687888511591681,4.2836040908785336,3.5659737751681884
6.729400520898554,5.73228427777838,4.319263828630215,3.9086615526198107
6.786723363676337,5.762762428793461,4.358350444156414,4.241351199027677
6.844350987964272,5.777862618735268,4.40076395614669,4.561972965693562
6.902129614151624,5.776290990356186,4.446383685803626,4.868602906464895
6.959892524055186,5.756928343104912,4.495069714868276,5.15948515630688
7.017461807486235,5.718832078982107,4.546664566431344,5.433042735421347
7.0746501282760565,5.661234414914248,4.600994993785558,5.687879771962968
7.131262472425199,5.583539729412696,4.657873791505188,5.9227790490498755
7.1870978697193255,5.485323800578862,4.717101581995687,6.136699145448895
7.241951107725114,5.366337113146591,4.7784685734501755,6.328775128947796
7.295614478856581,5.226513441442156,4.841756324739653,6.4983258381280145
7.347879613271002,5.065983673661376,4.906739583120933,6.644869380205596
7.398539450007616,4.885093486763843,4.973188276922989,6.768146760191064
7.447390384875254,4.6844221957844105,5.040869744524899,6.868151762582064
7.494234606833098,4.464799090288218,5.10955126215072,6.945163585332543
7.53888259773598,4.227313034305847,5.179002898004046,6.999777541333796
7.581155728079039,3.9733112043756735,5.249000673417384,7.032928631970115
7.620888840122795,3.704383647091313,5.319329959737085,7.045903117853121
7.657932676593708,3.422331799398201,5.3897889909156165,7.040334388369652
7.69215599458769,3.1291210340907134,5.460192334799313,7.01818132308584
7.723447204928597,2.826819349711891,5.530374148030171,6.981689644081087
7.751715398425715,2.5175261405006992,5.600191044470982,6.93333907485187
7.776890659830722,2.2032962130887763,5.6695244352195004,6.875781033889359
7.7989236219616105,1.8860646384918776,5.738282245558394,6.811772777179298
7.8177842683465295,1.5675775929870972,5.806399973330187,6.7441142116160675
7.833460044276401,1.2493331808289931,5.873841115446347,6.675593075115823
7.845953376084691,0.9325346068155984,5.940597046197506,6.608943029387406
7.855278722152847,0.6180562904822169,6.00668647649138,6.546817742170971
7.861459285057669,0.3064218711990691,6.072154653913089,6.491782560553204
7.86452350376966,-0.00220825400532465,6.137072479518621,6.446324146959163
7.8645014212296065,-0.30804309238456523,6.201535720988213,6.412877612057797
7.861420990305761,-0.6116645801720124,6.265664497108791,6.393870264816998
7.855304344504041,-0.9140321535574416,6.329603199756961,6.391781025245458
7.846164022968466,-1.2164916747723855,6.393521010009415,6.409214604384114
7.833999106220742,-1.5207911589921486,6.457613156053257,6.448989372982913
7.818791194630821,-1.8291040541087484,6.522103049783086,6.514236725850756
7.800500154089733,-2.144057451258533,6.5872454170415935,6.608506367600785
7.779059579577148,-2.468755676406483,6.653330480717601,6.735863602549164
7.754372022813083,-2.8067752979159235,6.720689116743093,6.900945888144085
7.726304269833924,-3.1620776607147185,6.789698575624533,7.108905394734702
7.694683493226777,-3.5387239433791042,6.86078762957188,7.3650801055702795
7.659296253792986,-3.940157444246207,6.934438430627583,7.674068568101115
