th1 (rad),w1 (rad/s),th2 (rad),w2 (rad/s),a1 (rad/s^2),a2 (rad/s^2)
2.129119975416447,-2.5792893059693283,4.191119887458092,2.067226474510053,-6.5337725156970405,-0.44961012442349096
2.1033270823567536,-2.6446270311262987,4.211792152203193,2.062730373265818,-6.850824747538647,-0.9182699446612584
2.0768808120454905,-2.713135278601685,4.232419455935851,2.0535476738192053,-7.206110731977999,-1.4230612905524418
2.049749459259474,-2.785196385921465,4.252954932674043,2.039317060913681,-7.601145784399423,-1.9662822982447987
2.021897495400259,-2.861207843765459,4.27334810328318,2.019654237931233,-8.03677811092371,-2.5492295893185477
1.9932854169626044,-2.9415756248746963,4.293544645662492,1.9941619420380474,-8.512827690605825,-3.1716480522794157
1.9638696607138575,-3.0267039017807544,4.313486265082872,1.9624454615152533,-9.027613774129719,-3.8310092438162124
1.93360262169605,-3.1169800395220517,4.333110719698025,1.9241353690770913,-9.577357086991997,-4.521594720468539
1.9024328213008295,-3.212753610391972,4.352352073388796,1.878919421872406,-10.155453324355822,-5.2333756433931296
1.8703052851969098,-3.31430814363553,4.37114126760752,1.8265856654384747,-10.751634818116601,-5.950709933001802
1.8371622037605544,-3.4218244918166962,4.389407124261905,1.7670785661084567,-11.351071004277884,-6.650928967013235
1.8029439588423875,-3.5353352018594753,4.4070779099229895,1.7005692764383245,-11.93350824661567,-7.30296201533499
1.7675906068237928,-3.654670284325632,4.424083602687372,1.6275396562849744,-12.47261515253025,-7.866248304543167
1.7310439039805365,-3.779396435850934,4.440358999250222,1.5488771732395428,-12.935773464251836,-8.29030369755485
1.6932499396220273,-3.9087541704934528,4.455847770982618,1.4659741362639942,-13.284618892191634,-8.515414776919364
1.6541623979170927,-4.041600359415369,4.470507512345257,1.3808199884948005,-13.476659717090651,-8.474979964342815
1.613746394322939,-4.176366956586276,4.484315712230205,1.2960701888513724,-13.468242275296163,-8.099939888319671
1.5719827247570763,-4.311049379339237,4.497276414118719,1.2150707899681756,-13.218952449294322,-7.325472508878126
1.528872230963684,-4.443238903832181,4.509427122018401,1.1418160648793945,-12.697227241922183,-6.099643198460314
1.4844398419253622,-4.570211176251402,4.520845282667195,1.0808196328947912,-11.886539081566438,-4.3930465886277466
1.4387377301628481,-4.689076567067067,4.531653478996143,1.0368891670085139,-10.7911132751365,-2.2078140595498894
1.3918469644921774,-4.796987699818432,4.542022370666228,1.014811026413015,-9.439900496315937,0.41606549871317405
1.3438770874939931,-4.891386704781592,4.552170480930358,1.0189716814001468,-7.8875976138885475,3.3991042167348287
1.2949632204461772,-4.970262680920477,4.5623601977443595,1.0529627235674952,-6.211954528642355,6.626669790899628
1.2452605936369725,-5.0323822262069005,4.5728898249800345,1.1192294214764915,-4.5073522455817265,9.959445319663189
1.1949367713749035,-5.077455748662718,4.584082119194799,1.2188238746731235,-2.8754960496427,13.248668390050534
1.1441622138882763,-5.106210709159145,4.59627035794153,1.351310558573629,-1.4147893450078526,16.353587151367872
1.0931001067966848,-5.120358602609223,4.6097834635272665,1.5148464300873077,-0.2103199903865472,19.15793358946985
1.0418965207705926,-5.122461802513089,4.62493192782814,1.7064257659820061,0.67371811202187,21.582405355952073
0.9906719027454617,-5.115724621392871,4.64199618548796,1.922249819541527,1.1979116966190166,23.591137647377266
0.939514656531533,-5.103745504426681,4.6612186836833756,2.1581611960152998,1.3474284474093743,25.19163759380353
0.8884772014872662,-5.090271219952587,4.682800295643529,2.410077571953335,1.1282303867042187,26.42917244076793
0.8375744892877403,-5.078988916085545,4.706901071363062,2.6743692963610144,0.5608544458137313,27.37768406442755
0.7867846001268848,-5.073380371627407,4.733644764326672,2.94814613700529,-0.3268402003515136,28.129680118996124
0.7360507964106107,-5.0766487736309225,4.763126225696725,3.2294429381952514,-1.5067264085039758,28.78725287807427
0.6852843086743015,-5.091716037715962,4.7954206550786775,3.5173154669759943,-2.9564759430471623,29.455661501447626
0.6343671482971418,-5.121280797146434,4.8305938097484376,3.8118720819904706,-4.664373114196212,30.240118933274285
0.5831543403256775,-5.167924528288396,4.8687125305683425,4.1142732713232135,-6.6330552426083615,31.24581113464112
0.5314750950427936,-5.23425508071448,4.909855263281575,4.426731382669625,-8.882652760323827,32.58085582675373
0.47913254423564877,-5.323081608317718,4.954122577108271,4.7525399409371625,-11.453937422949952,34.36185555150683
0.42590172815247157,-5.437620982547218,5.001647976517643,5.09615849645223,-14.412086796058645,36.72179775225789
0.37152551832699937,-5.581741850507804,5.052609561482165,5.463376473974809,-17.8515133416916,39.8201023521283
0.31570809982192133,-5.7602569839247195,5.107243326221913,5.861577497496092,-21.901703942628217,43.854235098734776
0.2581055299826741,-5.979274023351001,5.165859101196874,6.3001198484834395,-26.732565728501843,49.07058601359984
0.1983127897491641,-6.24659968063602,5.228860299681709,6.790825708619438,-32.55365245430622,55.766840668809046
0.1358467929428039,-6.572136205179082,5.296768556767903,7.3484941153075285,-39.590118161578076,64.26226012213246
0.07012543089101309,-6.968037386794863,5.370253497920978,7.991116716528853,-47.98670775153068,74.76853833501067
0.00044505702306445183,-7.447904464310169,5.450164665086267,8.73880209987896,-57.508852356093925,86.9791890085159
-0.07403398762003724,-8.022992987871108,5.537552686085056,9.608593989964119,-66.72342816920026,98.93413322873091
-0.15426391749874832,-8.69022726956311,5.633638625984697,10.597935322251427,-71.10353682381107,104.37982761983797
-0.2411661901943794,-9.40126263780122,5.739617979207211,11.641733598449807,-60.299308266393865,88.95351025290603
-0.3351788165723916,-10.00425572046516,5.8560353151917095,12.531268700978867,-20.993762245386513,34.15694048880206
-0.43522137377704323,-10.214193342919025,5.981348002201498,12.872838105866887,40.44980787101127,-51.05191788711923
-0.5373633072062335,-9.809695264208912,6.110076383260167,12.362318926995695,84.24179420112804,-111.30889348710404
-0.6354602598483226,-8.967277322197631,6.233699572530124,11.249229992124654,90.56429238932483,-119.43981426811028
-0.7251330330702989,-8.061634398304383,6.346191872451371,10.054831849443552,78.26560999591237,-101.88791789959718
-0.8057493770533427,-7.278978298345259,6.446740190945806,9.03595267044758,63.74605439429737,-81.35239533027698
-0.8785391600367953,-6.641517754402285,6.537099717650282,8.22242871714481,51.81816449992539,-64.39484255475406
-0.9449543375808181,-6.123336109403031,6.61932400482173,7.57848029159727,42.80325823168352,-51.39275995306714
-1.0061876986748484,-5.695303527086195,6.695108807737703,7.064552692066599,36.096517059817096,-41.47278857907264
-1.0631407339457104,-5.334338356488024,6.765754334658369,6.6498248062758725,31.090807077515098,-33.77384436397336
-1.1164841175105906,-5.023430285712873,6.832252582721128,6.312086362636139,27.329720655334807,-27.65043461771422
-1.1667184203677194,-4.750133079159525,6.895373446347489,6.035582016458997,24.49219346143729,-22.648208986469154
-1.2142197511593147,-4.505211144545152,6.955729266512079,5.809099926594305,22.354407978065097,-18.45101534183269
-1.2592718626047663,-4.281667064764501,7.013820265778022,5.624589773175978,20.758023228860306,-14.838523593851555
-1.3020885332524113,-4.074086832475898,7.0700661635097815,5.476204537237463,19.58736089712111,-11.65767909069481
-1.3428294015771702,-3.8782132235046873,7.124828208882156,5.359627746330514,18.753324854216217,-8.804829107587794
-1.381611533812217,-3.690679974962525,7.178424486345461,5.271579455254637,18.181734057956984,-6.2152307995981415
-1.4185183335618423,-3.508862634382955,7.231140280898008,5.209427147258655,17.804498353033964,-3.857412309779834
-1.4536069599056718,-3.3308176508526155,7.283234552370595,5.170853024160857,17.55286135747864,-1.73036683947701
-1.486915136414198,-3.155289037277829,7.334943082612203,5.153549355766087,17.352678941455135,0.13834697228894824
-1.5184680267869761,-2.9817622478632777,7.386478576169864,5.154932825488976,17.122387579306878,1.6957333889307762
-1.548285649265609,-2.810538372070209,7.438027904424754,5.171890159378284,16.774824532024585,2.8700659518063327
-1.5763910329863111,-2.642790126749963,7.489746806018537,5.200590818896347,16.224084077252414,3.5832284161402743
-1.6028189342538108,-2.480549285977439,7.5417527142075,5.23642310305775,15.397698062035989,3.76931017713839
-1.6276244271135851,-2.3265723053570793,7.594116945238078,5.274116204829134,14.252368996722272,3.3971562464084015
-1.650890150167156,-2.1840486153898566,7.646858107286369,5.308087767293219,12.788745277870404,2.490849146810443
-1.6727306363210546,-2.0561611626111524,7.699938984959301,5.332996258761323,11.058876679771068,1.1397052569439767
-1.6932922479471662,-1.9455723958134419,7.753268947546914,5.344393311330763,9.161051805492036,-0.5090141740768596
-1.7127479719053005,-1.8539618777585216,7.806712880660221,5.339303169589995,7.221401761415396,-2.275041655096918
-1.7312875906828857,-1.7817478601443677,7.860105912356121,5.3165527530390255,5.367827963541838,-3.9798254531934854
-1.7491050692843295,-1.7280695805089492,7.913271439886511,5.276754498507091,3.7054849150009,-5.478531497881913
-1.766385765089419,-1.6910147313589403,7.966038984871582,5.221969183528272,2.301691651531596,-6.678997490328874
-1.7832959124030083,-1.6679978148436243,8.018258676706864,5.1551792086249835,1.1830051351287347,-7.5443899327506765
-1.7999758905514445,-1.6561677634923369,8.069810468793115,5.079735309297477,0.34195161971324783,-8.083264377156674
-1.8165375681863678,-1.6527482472952044,8.12060782188609,4.99890266552591,-0.25160260174265964,-8.333879679269382
-1.8330650506593198,-1.655264273312631,8.170596848541349,4.915563868733217,-0.6390104826927674,-8.348815218128093
-1.8496176933924462,-1.6616543781395587,8.21975248722868,4.832075716551936,-0.8639649366848247,-8.183253238624506
-1.8662342371738418,-1.670294027506407,8.2680732443942,4.750243184165691,-0.9669044493733107,-7.887741658567108
-1.8829371774489059,-1.6799630720001402,8.315575676235857,4.67136576758002,-0.9822612201687217,-7.504745738036043
-1.8997368081689072,-1.6897856842018273,8.362289333911658,4.596318310199659,-0.9376875957495885,-7.067787574565114
-1.9166346650109254,-1.6991625601593232,8.408252517013654,4.525640434454008,-0.8544313623433425,-6.6020562808072025
-1.9336262906125186,-1.7077068737827565,8.453508921358194,4.459619871645936,-0.7482454671903295,-6.125677709048961
-1.9507033593503462,-1.7151893284546598,8.498105120074653,4.398363094555446,-0.6304478151564555,-5.651145794404716
-1.967855252634893,-1.7214938066062244,8.542088751020207,4.341851636611398,-0.5089253023845468,-5.186655203444397
-1.9850701907009551,-1.72658305963007,8.58550726738632,4.289985084576954,-0.38899277264526233,-4.737227323612669
-2.0023360212972556,-1.7304729873565226,8.62840711823209,4.242612811340828,-0.27408420686981744,-4.3056071026624325
-2.019640751170821,-1.7332138294252206,8.670833246345499,4.199556740314203,-0.1662866038224237,-3.892949670164611
-2.036972889465073,-1.734876695463445,8.71282881374864,4.160627243612557,-0.066740286890544,-3.499331403718593
-2.0543216564197078,-1.7355440983323505,8.754435086184765,4.125633929575371,0.02406792617510984,-3.124122449979762
-2.071677097403031,-1.7353034190705994,8.795691425480518,4.094392705075573,0.10609448420322827,-2.766254029660541
-2.089030131593737,-1.7342424742285671,8.836635352531275,4.066730164778968,0.17959163316836635,-2.42440814202779
-2.1063725563360225,-1.7324465578968835,8.877302654179065,4.04248608335869,0.2450068537917356,-2.0971514970489427
-2.1236970219149915,-1.729996489358966,8.917727515012652,4.0215145683882,0.30291721385246967,-1.7830304662065761
-2.1409969868085814,-1.7269673172204414,8.957942660696535,4.003684263726135,0.35398986362100204,-1.4806397968781135
-2.158266659980786,-1.7234274185842313,8.997979503333797,3.988877865757354,0.39896247066379426,-1.1886747494995187
-2.175500934166628,-1.7194377938775933,9.03786828199137,3.9769911182623585,0.43863938882065534,-0.9059740533185086
-2.192695312105404,-1.7150513999893868,9.077638193173994,3.9679313777291734,0.4739008890192515,-0.6315594677140829
-2.2098458261052976,-1.7103123910991944,9.117317506951286,3.9616157830520327,0.5057239375367479,-0.3646766154477393
-2.2269489500162893,-1.705255151723827,9.156933664781807,3.957969016897555,0.5352138519200343,-0.10484096189434199
-2.2440015015335275,-1.6999030132046267,9.196513354950783,3.9569206072786116,0.5636467182819587,0.14810781245497526
-2.261000531665574,-1.6942665460218072,9.236082561023569,3.958401685403161,0.5925226894677564,0.3939404438789519
-2.277943197125792,-1.6883413191271295,9.275666577877601,3.9623410898419507,0.6236301144314182,0.6319600117188023
-2.2948266103170636,-1.6821050179828152,9.315289988776021,3.9686606899591386,0.6591197134633646,0.8609108912951363
-2.3116476604968916,-1.6755138208481815,9.354976595675613,3.97726979887209,0.7015864633906405,1.0788768583578314
-2.3284027987053735,-1.668497956214275,9.394749293664333,3.9880585674556683,0.7541541561103708,1.2831743199811312
-2.345087778267516,-1.6609564146531712,9.434629879338889,4.00089031065548,0.8205533525250728,1.4702525293920696
-2.3616973424140477,-1.6527508811279206,9.474638782445444,4.015592835949401,0.9051773289215306,1.635621066797646
-2.378224851225327,-1.6436991078387053,9.514794710804939,4.0319490466173775,1.0130925349494422,1.773835971109233
-2.394661842303714,-1.633568182489211,9.555114201271113,4.04968740632847,1.1499706725462453,1.8785888820117074
-2.4109975241286064,-1.6220684757637485,9.595611075334398,4.068473295148587,1.3219007115294061,1.9429557706989022
-2.4272182088862437,-1.6088494686484545,9.636295808285883,4.087902852855576,1.5350350170826246,1.9598677970232616
-2.4433067035727283,-1.5934991184776282,9.677174836814439,4.107501530825808,1.7950308976135507,1.9228574563339103
-2.4592416947575044,-1.5755488095014927,9.718249852122698,4.126730105389147,2.106275859476839,1.827096683354053
-2.4749971828525195,-1.5544860509067242,9.759517153176589,4.145001072222688,2.470939154929497,1.670669649547426
-2.490542043361587,-1.5297766593574291,9.800967163898816,4.161707768718162,2.8879737795432914,1.4559116618121846
-2.505839809955161,-1.5008969215619963,9.842584241585998,4.176266885336283,3.352285620687625,1.1905192587931492
-2.520848779170781,-1.46737406535512,9.88434691043936,4.188172077924215,3.8543518826333614,0.8880477451516031
-2.5355225198243323,-1.4288305465287863,9.926228631218603,4.197052555375731,4.380556513284141,0.567433434046638
-2.54981082528962,-1.3850249813959448,9.96819915677236,4.202726889716198,4.91437591415501,0.25136367217460315
-2.5636610751035795,-1.3358812222543948,10.010226425669522,4.205240526437944,5.438305001454834,-0.03634817845236666
-2.5770198873261236,-1.2814981722398464,10.052278830933902,4.20487704465342,5.9361459717221665,-0.2738603094925383
-2.5898348690485222,-1.2221367125226248,10.094327601380437,4.202138441558495,6.395118378296376,-0.4441306141065208
-2.6020562361737483,-1.158185528739661,10.136348985796023,4.19769713541743,6.807285200835029,-0.536790205887067
-2.613638091461145,-1.0901126767313107,10.178325957150197,4.192329233358559,7.170018004132527,-0.5486967835400411
-2.624539218228458,-1.0184124966899855,10.220249249483782,4.1868422655231585,7.485533048904071,-0.4832280069545307
-2.6347233431953576,-0.9435571662009448,10.262117672139013,4.182009985453613,7.759776947990536,-0.34871018605053683
-2.644158914857367,-0.8659593967210394,10.30393777199355,4.178522883593107,8.001039326603175,-0.15650606903934247
-2.6528185088245775,-0.7859490034550076,10.34572300082948,4.176957822902714,8.21862502678158,0.08078377734209082
-2.6606779988591276,-0.7037627531871918,10.387492579058508,4.177765660676135,8.421793836275386,0.3507277744134372
-2.6677156263909994,-0.619544814824438,10.42927023566527,4.181272938420269,8.619042973077317,0.6419842431873987
-2.6739110745392436,-0.5333543850936648,10.471082965049472,4.187692780852143,8.817710695770234,0.9447744153356239
-2.67924461839018,-0.44517727813596253,10.512959892857994,4.1971405250055,9.023829763982235,1.25101130277252
-2.68369639117154,-0.35493898049614014,10.554931298108048,4.209650638033224,9.242147670281165,1.5542017200634655
-2.687245780976501,-0.2625175037933285,10.59702780448838,4.225192655233859,9.476240776457164,1.8492225329313663
-2.6898709560144343,-0.16775509602875685,10.63927973104072,4.243684880563173,9.728668194326627,2.1320450604601486
-2.691548506974722,-0.07046841408549058,10.681716579846352,4.2650053311677745,10.001130093651454,2.3994549316397538
-2.6922531911155767,0.029542886851023964,10.724366633158029,4.288999880484172,10.294610319614169,2.6487936107021994
-2.6919577622470663,0.13248899004716563,10.767256631962871,4.315487816591194,10.609493902020692,2.8777332579508266
-2.6906328723465944,0.23858392906737255,10.810411510128784,4.3442651491707025,10.94565680173792,3.084087668120061
-2.6882470330559207,0.34804049708475177,10.853854161620491,4.3751060258519034,11.302529086295886,3.265657235905039
-2.684766628085073,0.46106578794771064,10.89760522187901,4.407762598210954,11.679134643923962,3.4201038336087137
-2.680155970205596,0.5778571343869503,10.94168284786112,4.441963636547041,12.074111309188774,3.544851064983698
-2.6743773988617265,0.698598247478838,10.98610248422659,4.477412147196878,12.485715424281045,3.6370058378389962
-2.667391416386938,0.8234554017216484,11.030876605698559,4.513782205575268,12.91181474271478,3.6932981061181964
-2.6591568623697217,0.9525735491487962,11.07601442775431,4.55071518663645,13.349873399393914,3.7100366940227962
-2.6496311268782335,1.0860722831427354,11.121521579620675,4.587815553576678,13.796932529750503,3.6830801783829523
-2.6387704040468063,1.2240416084402403,11.167399735156442,4.6246463553605075,14.249590066807821,3.607822791051389
-2.626529987962404,1.3665375091083185,11.213646198710046,4.660724583271022,14.703983285906963,3.4791961678522436
-2.612864612871321,1.5135773419673881,11.260253444542757,4.695516544949545,15.15577778515081,3.2916884865877196
-2.597728839451647,1.6651351198188962,11.307208609992252,4.728433429815422,15.600166751377063,3.0393830774485724
-2.5810774882534577,1.8211367873326667,11.354492944290406,4.758827260589908,16.03188452048416,2.7160189233039036
-2.5628661203801313,1.9814556325375083,11.402081216896306,4.785987449822947,16.445238541732426,2.315075555501254
-2.5430515640547564,2.1459080179548327,11.449941091394535,4.80913820537796,16.834163836222157,1.8298846470011223
-2.521592483875208,2.3142496563170543,11.498032473448315,4.827437051847971,17.192303835124065,1.2537700598647417
-2.4984499873120374,2.4861726946682947,11.546306843966795,4.839974752446619,17.513121030406204,0.5802171721949189
-2.4735882603653545,2.661303904972357,11.59470659149126,4.845776924168567,17.790040115323286,-0.19692904484807905
-2.446975221315631,2.83920430612559,11.643164360732946,4.843807633720086,18.016625195836863,-1.083239522396465
-2.4185831782543747,3.0193705580839585,11.691602437070147,4.832975238496122,18.186791204440233,-2.0834547035284388
-2.388389472673535,3.2012384701283607,11.739932189455107,4.812140691460837,18.295047864569973,-3.201223407324179
-2.3563770879722514,3.3841889487740606,11.788053596369716,4.780128457387596,18.336772495963416,-4.438836975944621
-2.322535198484511,3.567556673733695,11.835854880943591,4.73574008762815,18.308505720059554,-5.796971781904163
-2.286859631747174,3.7506417309342903,11.883212281819873,4.677770369809108,18.208261862118555,-7.274456211042528
-2.2493532144378308,3.932724349555476,11.929989985517963,4.605025807698683,18.035843732289052,-8.86808105956881
-2.210025970942276,4.113082786878366,11.97604024359495,4.516344997102995,17.79314971094186,-10.572474656974475
