th1 (rad),w1 (rad/s),th2 (rad),w2 (rad/s)
0.8372050218512237,-2.942885477402327,0.0472752473255994,-2.1788501201597064
0.8077761670772005,-3.0886756379319658,0.025486746124002337,-2.019343978258074
0.7768894106978808,-3.2331957572296397,0.0052933063414215935,-1.8520856928322065
0.7445574531255843,-3.3766508782215223,-0.01322755058690047,-1.6768854281265015
0.7107909443433691,-3.5192812552215056,-0.029996404868165485,-1.4936221406679169
0.675598131791154,-3.661355675808959,-0.04493262627484465,-1.3022560603546256
0.6389845750330644,-3.8031592008100015,-0.05795518687839091,-1.1028476257533628
0.6009529830249644,-3.9449730951542423,-0.06898366313592454,-0.8955860811907179
0.5615032520734219,-4.087043937330322,-0.07793952394783171,-0.6808320916748157
0.5206328127001186,-4.229537932012189,-0.08474784486457987,-0.4591800958840113
0.47833743337999673,-4.372475419029994,-0.08933964582341998,-0.23154751844434893
0.4346126791896968,-4.515639797740271,-0.09165512100786347,0.0007010917342272771
0.3894562812122941,-4.65845531521625,-0.09164811009052119,0.23558753625214063
0.3428717280601316,-4.799830870563698,-0.08929223472799978,0.47030787844512956
0.2948734193544946,-4.937974679245218,-0.08458915594354849,0.7009831687526717
0.24549367256204244,-5.0702008359630995,-0.07757932425602176,0.9224051523171145
0.19479166420241145,-5.192776677823737,-0.06835527273285062,1.1278495077141442
0.14286389742417407,-5.300897883755901,-0.05707677765570918,1.3090836639948256
0.08985491858661507,-5.3889119169127735,-0.04398594101576092,1.4567435883902737
0.03596579941748733,-5.450903757338732,-0.02941850513185818,1.561242192398844
-0.01854323815589999,-5.481661153759461,-0.01380608320786974,1.6142298396170152
-0.0733598496934946,-5.47783304600412,0.002336215188300411,1.6103312841425637
-0.12813818015353579,-5.438873680249475,0.018439528029726045,1.548562360917352
-0.18252691695603052,-5.367322285548829,0.033925151638899566,1.432766698241099
-0.2362001398115188,-5.268234127048649,0.048252818621310554,1.2707966163110314
-0.2888824810820053,-5.148009744567316,0.060960784784420866,1.0727889295131299
-0.3403625785276785,-5.013131308242355,0.07168867407955216,0.8492743308760252
-0.39049389161010206,-4.8692352509969385,0.08018141738831241,0.609753700815259
-0.43918624412007146,-4.720671184122779,0.086278954396465,0.3619752123967058
-0.4863929559612992,-4.570461115064903,0.08989870652043207,0.11180133826754785
-0.5320975671119482,-4.420486358501301,0.09101671990310754,-0.13657768648496113
-0.5763024306969612,-4.271753804607786,0.08965094303825794,-0.3802985895004659
-0.6190199687430391,-4.124653406406478,0.08584795714325327,-0.6174788627896086
-0.6602665028071039,-3.9791697613289316,0.07967316851535719,-0.8469274711920823
-0.7000582004203931,-3.835040812156941,0.07120389380343636,-1.067926034974023
-0.7384086085419626,-3.691870136644765,0.06052463345369613,-1.28007354140868
-0.7753273099084101,-3.5492031334420298,0.04772389803960933,-1.4831811108249457
-0.8108193412428304,-3.406576898528139,0.03289208693135987,-1.6772033637029211
-0.8448851102281117,-3.2635516347039033,0.01612005329433066,-1.8621952947473557
-0.8775206265751507,-3.119729366978688,-0.0025018996531428993,-2.0382862934104216
-0.9087179202449376,-2.9747640185342754,-0.022884762587247115,-2.2056653183311297
-0.9384655604302803,-2.8283656219700073,-0.04494141577055841,-2.3645730607384237
-0.9667492166499804,-2.6803005433442832,-0.06858714637794264,-2.515298262882674
-0.9935522220834232,-2.53038899223862,-0.09374012900676937,-2.658176296664199
-1.0188561120058095,-2.3785006962700894,-0.12032189197341137,-2.793588757937878
-1.0426411189685103,-2.224549367804321,-0.14825777955279015,-2.92196327590476
-1.0648866126465535,-2.0684864369977918,-0.17747741231183775,-3.043773034296277
-1.0855714770165314,-1.9102944367326151,-0.20791514265480052,-3.1595356924135545
-1.1046744213838575,-1.7499803810429442,-0.23951049957893605,-3.2698115056947885
-1.122174225194287,-1.5875694674477625,-0.2722086146358839,-3.37520049284334
-1.1380499198687646,-1.4230994499283813,-0.3059606195643173,-3.4763384871779217
-1.1522809143680484,-1.256616073007745,-0.3407240044360965,-3.573891845036928
-1.164847075098126,-1.0881700326345563,-0.3764629228864658,-3.6685504598171255
-1.1757287754244714,-0.9178160440005887,-0.4131484274846371,-3.761018538033306
-1.1849069358644773,-0.7456147602386934,-0.45075861286497015,-3.852002321524273
-1.1923630834668641,-0.5716385100246443,-0.4892786360802129,-3.9421935740970437
-1.1980794685671106,-0.39598211378857995,-0.5287005718211834,-4.032247181930413
-1.2020392897049963,-0.21878039269026997,-0.5690230436404875,-4.122750650926966
-1.204227093631899,-0.0402343677261853,-0.6102505501497572,-4.214182665630951
-1.2046294373091608,0.13935153571137962,-0.6523923768060667,-4.306857329577701
-1.203235921952047,0.3195189153200242,-0.6954609501018436,-4.40085051587262
-1.2000407327988467,0.4995897049910109,-0.7394694552605698,-4.495905459755352
-1.1950448357489365,0.6785855726862606,-0.7844285098581234,-4.591317247794161
-1.188258980022074,0.8551368566628564,-0.830341682336065,-4.685801575776288
-1.1797076114554454,1.0273931854405394,-0.8771996980938278,-4.777363668109563
-1.16943367960104,1.1929596668755262,-0.9249733347749234,-4.863199507223359
-1.1575040829322847,1.34889687202215,-0.973605329847157,-4.939681633655842
-1.1440151142120631,1.4918338862958602,-1.0230021461837153,-5.002497720654871
-1.1290967753491046,1.6182394203444304,-1.073027123390264,-5.047005302093805
-1.1129143811456603,1.7248613332339036,-1.123497176411202,-5.068819497618485
-1.0956657678133213,1.8092745911233117,-1.1741853713873869,-5.064554558662406
-1.077573021902088,1.870394788362208,-1.224830916974011,-5.032525965843821
-1.0588690740184659,1.9087741507579699,-1.2751561766324493,-4.973163561805372
-1.0397813325108862,1.9265509531186775,-1.324887812250503,-4.888958882297758
-1.0205158229796996,1.9270611163790117,-1.3737774010734807,-4.783957399813118
-1.0012452118159094,1.9142585290485346,-1.4216169750716119,-4.662993801688867
-0.9821026265254241,1.8921404496025545,-1.4682469130885005,-4.530935477270357
-0.9631812220293986,1.8643222791756209,-1.513556267861204,-4.392127743717107
-0.9445379992376424,1.8338096462809677,-1.5574775452983751,-4.250103321140759
-0.9261999027748327,1.8029392605497072,-1.5999785785097826,-4.107515597413579
-0.9081705101693356,1.7734283187221414,-1.6410537344839184,-3.9662135798443656
-0.8904362269821142,1.7464753242890803,-1.6807158702823621,-3.8273817204118195
-0.8729714737392235,1.7228728540411524,-1.7189896874864803,-3.6916923304812506
-0.8557427451988119,1.7031108739723066,-1.7559066107912928,-3.5594428708703525
-0.8387116364590889,1.6874620725205232,-1.7915010394999964,-3.430667634793914
-0.8218370157338837,1.6760480204144719,-1.8258077158479356,-3.30522299377466
-0.805076535529739,1.6688883496847842,-1.8588599457856823,-3.182849685653674
-0.7883876520328912,1.6659362251226337,-1.890688442642219,-3.0632168762769902
-0.7717282897816649,1.6671033336442802,-1.921320611404989,-2.945952516999296
-0.755057256445222,1.672277125992076,-1.950780136574982,-2.830663765080162
-0.7383344851853013,1.6813324569482058,-1.9790867742257836,-2.7169503864764346
-0.7215211606158193,1.6941392336489725,-2.006256278090548,-2.604413308675449
-0.7045797682793296,1.7105672446379654,-2.0323004111773026,-2.492659890072619
-0.6874740958329499,1.7304890073476553,-2.0572270100780288,-2.381307018398486
-0.6701692057594734,1.7537812239979271,-2.0810400802620137,-2.2699828195110117
-0.6526313935194941,1.7803252568418098,-2.1037399084571238,-2.158327521594995
-0.634828140951076,1.81000690621653,-2.125323183673074,-2.0459938537130196
-0.6167280718889107,1.8427156851373383,-2.145783122210204,-1.932647241994083
-0.5983009150375372,1.8783437216686554,-2.165109594630145,-1.8179659866224525
-0.5795174778208507,1.9167843772961124,-2.1832892544963696,-1.7016415472884314
-0.5603496340478896,1.957930640471969,-2.200305669969254,-1.583379026033166
-0.5407703276431699,2.001673335518038,-2.2161394602295856,-1.4628979088603429
-0.5207535942879895,2.047899175428937,-2.2307684393181892,-1.3399331071147487
-0.5002746025337002,2.0964886809420977,-2.244167770389337,-1.2142363236077347
-0.47930971572427916,2.147313986220453,-2.2563101336254143,-1.085577754790786
-0.45783657586207466,2.2002365526996543,-2.267165911173322,-0.953748127527592
-0.43583421033507813,2.255104816390002,-2.276703392448598,-0.8185610562348962
-0.4132831621711781,2.311751799626325,-2.2848890030109468,-0.6798556927655348
-0.39016564417491484,2.3699927254033404,-2.291687559938602,-0.5374996271303573
-0.3664657169208814,2.4296226804788152,-2.2970625562099056,-0.39139198204029324
-0.34216949011609327,2.4904143817720117,-2.3009764760303084,-0.24146662863332707
-0.31726534629837316,2.55211610854834,-2.3033911423166415,-0.08769543526024615
-0.29174418521288975,2.6144498696976393,-2.304268096669244,0.06990855326575732
-0.26559968651591337,2.6771098802581355,-2.3035690111365867,0.23128812087288272
-0.238828587713332,2.7397614233753074,-2.3012561299278578,0.39633919370268655
-0.21143097347957895,2.8020401723436366,-2.297292737990831,0.5649085898165984
-0.1834105717561426,2.86355204164959,-2.291643652092665,0.7367923312936828
-0.1547750513396467,2.9238736256767845,-2.284275728779728,0.9117346361734033
-0.12553631508287885,2.982553268988128,-2.275158382417994,1.0894276916425236
-0.09571078239299757,3.039112793369614,-2.2642641055015686,1.2695122866507829
-0.06531965445930143,3.0930498851227055,-2.2515689826350607,1.4515793527386442
-0.03438915560807438,3.143841122937714,-2.2370531891076744,1.6351724280773947
-0.0029507443786972384,3.190945603980444,-2.2207014648269006,1.8197910241353266
0.028958711661107202,3.233809105713352,-2.2025035545855474,2.004894840157834
0.06129680271824072,3.2718687055586253,-2.182454606183969,2.1899087412204454
0.09401548977382698,3.304557771576391,-2.1605555187717647,2.374228394274157
0.1270610674895909,3.331311236023351,-2.136813234829023,2.5572264460274354
0.1603741798498244,3.351571070212779,-2.1112409703687485,2.7382591282945103
0.19388989055195222,3.3647918926546305,-2.0838583790858034,2.9166731907195773
0.22753780947849853,3.3704466609923367,-2.0546916471786076,3.0918130860043544
0.2612422760884219,3.3680324186798987,-2.023773516318564,3.263028365647541
0.2949226002752209,3.3570760857561823,-1.9911432326620888,3.429681279963801
0.3284933611327827,3.3371402951675426,-1.956846419862451,3.5911546089301307
0.3618647640844581,3.307829277691555,-1.9209348737731495,3.7468597739250127
0.39494305686137365,3.2687947861949693,-1.8834662760338994,3.8962452887658325
0.4276310047233233,3.219742021666149,-1.844503823146241,4.0388055969426935
0.4598284249399848,3.160435479099902,-1.804115767176814,4.174090308031267
0.49143277973098387,3.0907045731793525,-1.7623748640965013,4.301713790239195
0.5223398254627774,3.0104488366934263,-1.7193577261941093,4.421365001560616
0.5524443138297116,2.9196424161203396,-1.6751440761785032,4.532817356252289
0.581640737990915,2.8183375281018344,-1.6298159026159804,4.635938336647532
0.6098241132719333,2.706666497882873,-1.5834565192495051,4.730698485318366
0.636890778250762,2.584841986006147,-1.5361495343963214,4.81717936274806
0.6627391981108235,2.453155030338761,-1.4879777407688408,4.895580043409159
0.6872707484142111,2.311970590808616,-1.4390219403347493,4.9662217577677055
0.7103904543222973,2.1617203828577805,-1.3893597227570722,5.02955037356037
0.7320076581508751,2.002892915591222,-1.3390642190214685,5.086136544724297
0.7520365873067874,1.8360207993719393,-1.2882028535742256,5.1366735319818355
0.7703967953005068,1.6616655383911336,-1.2368361182544072,5.181972900917737
0.7870134506844181,1.480400157670551,-1.18501638924523,5.222958513325957
0.8018174522611236,1.2927901128561228,-1.1327868041119704,5.260659426674065
0.8147453533896848,1.0993729802723669,-1.0801802098452298,5.296202488065038
0.8257390831924084,0.9006374148546099,-1.0272181849645794,5.3308055415033095
0.8347454573409545,0.6970017923953834,-0.9739101295495463,5.3657722559606915
0.8417154752649083,0.48879282457493367,-0.9202524069899394,5.402489629396366
0.8466034035106577,0.27622426115831356,-0.8662275106959757,5.442429239334298
0.8493656461222407,0.05937558924705641,-0.8118032183026327,5.487153305804136
0.8499594020147113,-0.1618295750278355,-0.7569316852445913,5.5383266175702275
0.8483411062644329,-0.38764590456908354,-0.701548419068889,5.5977353482175545
0.8444646472187421,-0.6185302321688385,-0.6455710655867134,5.667313733101484
0.8382793448970538,-0.8551675335536371,-0.5888979282556985,5.749179424452925
0.8297276695615174,-1.0984994469306806,-0.5314061340111693,5.845677934375337
0.8187426750922107,-1.3497550177701454,-0.47294935466741594,5.959435584059097
0.8052451249145092,-1.6104816257990389,-0.41335499882682497,6.093418127516532
0.7891403086565187,-1.8825703353784948,-0.35242081755165966,6.250987350830947
0.7703146053027338,-2.1682622520570494,-0.28991094404335016,6.4359377536406654
0.7486319827821633,-2.4701070328847434,-0.22555156650694352,6.65247456546108
0.7239309124533159,-2.790814183870571,-0.15902682085233272,6.905052620610718
0.6960227706146102,-3.1328791051580476,-0.08997629464622554,7.197914584967604
0.6646939795630297,-3.497758849414657,-0.017997148796549498,7.534017963323484
0.6297163910688831,-3.8841990107884277,0.057343030836685335,7.912796170391047
0.5908744009609989,-4.285110878838957,0.1364709925405958,8.325908837509576
0.5480232921726093,-4.6824543577989495,0.21973008091569157,8.750194853335614
0.5011987485946198,-5.04087703529622,0.3072320294490477,9.138808465574346
0.45078997824165756,-5.305192477859524,0.39862011410479115,9.417509315243187
0.39773805346306235,-5.4132095520608905,0.49279520725722303,9.502017604455892
0.3436059579424534,-5.330336748688782,0.587815383301782,9.34534356435399
0.2903025904555656,-5.080416360582645,0.6812688189453219,8.97979491120586
0.23949842684973915,-4.731849273949859,0.7710667680573805,8.497452254028175
0.19217993411024056,-4.352977355342841,0.8560412905976622,7.989069639614304
0.14865016055681216,-3.9861585986006554,0.9359319869938052,7.509388335896367
0.1087885745708056,-3.649513446538142,1.0110258703527688,7.08032127908698
0.07229344010542418,-3.3472664039529634,1.0818290831436386,6.7054128490630385
0.03882077606589455,-3.0775501311811704,1.1488832116342689,6.380486118450221
0.008045274754082843,-2.836462669994207,1.212688072818771,6.099054109990042
-0.020319351945859227,-2.6198251252332923,1.2736786139186713,5.854587133366922
-0.04651760319819215,-2.4238331271048397,1.3322244852523406,5.64129863894407
-0.07075593446924054,-2.2452350222322783,1.3886374716417813,5.4543147849829925
-0.09320828469156332,-2.0813260314993824,1.4431806194916112,5.289615698406096
-0.11402154500655715,-1.9298812761111064,1.4960767764756722,5.143909282181803
-0.1333203577676682,-1.789076888166009,1.5475158692974902,5.014499534875529
-0.1512111266493283,-1.6574171714540322,1.5976608646462456,4.89917032425739
-0.1677852983638686,-1.5336729981835266,1.6466525678888195,4.796089321438775
-0.18312202834570387,-1.4168316912587575,1.6946134611032073,4.703730885827234
-0.19729034525829145,-1.306056965501891,1.7416507699614796,4.6208149445100535
-0.21035091491331037,-1.2006571314848906,1.7878589194065801,4.546258759439329
-0.2223574862281593,-1.1000598797123442,1.8333215070009734,4.47913886493353
-0.23335808502528274,-1.0037922221026665,1.8781128956503088,4.4186609674745165
-0.24339600724630941,-0.9114644396177144,1.922299505325054,4.364136076200102
-0.25251065164248654,-0.8227571237885438,1.965940866087055,4.314961530510381
-0.26073822288037196,-0.7374105954008513,2.0090904813921586,4.270605906993093
-0.26811232883438046,-0.6552161387210297,2.0517965404620897,4.230597031545349
-0.2746644902215908,-0.5760086115112418,2.0941025107775433,4.194512507172326
-0.2804245763367032,-0.49966008733010714,2.1360476358492666,4.161972305449728
-0.28542117721000426,-0.4260742640108121,2.177667358903764,4.132633069843914
-0.2896819198501124,-0.35518143625159787,2.218993689602203,4.106183849666432
-0.2932337342126284,-0.2869338851231795,2.2600555280988672,4.08234303041206
-0.2961030730638602,-0.22130158589024207,2.3008789584029876,4.060856254507391
-0.2983160889227626,-0.1582681795283089,2.3414875209480615,4.041495140431265
-0.2998987707180457,-0.09782719319541594,2.3819024723523743,4.0240566119736565
-0.30087704264999987,-0.03997853012714216,2.422143038472111,4.008362647429412
-0.3012768279512713,0.015274721480733382,2.4622266649464053,3.9942602553422657
-0.30112408073646396,0.06792909007584896,2.502169267499828,3.9816214836396213
-0.3004447898357055,0.11798305164259945,2.5419854823362242,3.970343276906397
-0.2992649593192795,0.16543881006009659,2.581688915105288,3.9603470155023532
-0.2976105712186785,0.21030346128594932,2.6212923852603116,3.951577602049403
-0.295507536605819,0.2525895020461352,2.6608081612808054,3.9440020052348483
-0.29298164158535767,0.29231467977692926,2.700248181333154,3.9376072252823113
-0.2900584947875884,0.32950122237548024,2.739624253585977,3.932397705051221
-0.2867634825638336,0.36417452871868544,2.778948230636489,3.9283922692310207
-0.28312173727664675,0.39636143838212745,2.8182321533287995,3.925620724711803
-0.2791581228928255,0.4260882265732651,2.8574883605759176,3.9241202919052403
-0.27489724062709286,0.4533784844638632,2.89672956349497,3.923932055408563
-0.27036345578245424,0.4782510443747625,2.9359688840490556,3.9250976214365982
-0.26558094533870663,0.5007180943459227,2.9752198602634214,3.927656150211208
-0.2605737643952474,0.5207836001650391,3.0144964217655335,3.931641897756442
-0.255365928393597,0.5384421188896141,3.053812840743098,3.937082358668133
-0.24998150720470086,0.5536780507539376,3.0931836643297794,3.9439970553238384
-0.2444447266971615,0.566465340313594,3.132623634883018,3.9523969751268666
-0.23878007329402556,0.5767676060959362,3.1721476046342865,3.9622846199729507
-0.2330123972330662,0.5845386530593085,3.211770450834016,3.9736546038144698
-0.2271670107024731,0.5897233047422341,3.251506996872161,3.9864947159568387
-0.22126977765505076,0.5922584819590867,3.291371944031729,4.00078735914428
-0.2153471928354599,0.5920744513452465,3.331379817623172,4.016511271186451
-0.20942644832200744,0.5890961686012799,3.371544930335036,4.033643444923326
-0.20353548663599463,0.5832446464171818,3.4118813647842696,4.05216117167589
-0.1977030401718228,0.5744382843436748,3.4524029765010287,4.072044146107471
-0.19195865732838605,0.5625941061141578,3.4931234179621033,4.093276584098617
-0.18633271626724446,0.5476288581934411,3.5340561838030897,4.11584931871489
-0.18085642768531004,0.5294599310133238,3.5752146769902384,4.1397618519376485
-0.1755618283751768,0.5080060710771677,3.616612295509615,4.165024351210005
-0.17048176766440512,0.48318785769545586,3.658262539021715,4.191659589982624
-0.16564988908745057,0.4549279225007618,3.7001791349215414,4.219704840484991
-0.16110060986244296,0.4231508931034866,3.742376183326391,4.249213735181018
-0.1568691009314081,0.3877830443321439,3.7848683206782012,4.280258121146577
-0.15299127048808667,0.3487516414839846,3.827670901889667,4.312929939314593
-0.14950375407324681,0.3059839598860367,3.8708002012828127,4.347343168564487
-0.14644391447438646,0.2594059637734202,3.9142736329684573,4.383635883384273
-0.14384985483665225,0.2089406249112022,3.9581099918023,4.421972483712035
-0.14176044858754022,0.15450585733576805,4.00232971663942,4.462546166998576
-0.14021539001418254,0.0960120388285837,4.046955178309406,4.505581725996795
-0.1392552696258967,0.03335908196096822,4.092010995569374,4.5513387718111336
-0.13892167880628703,-0.03356699257929169,4.137524383287485,4.60011550094766
-0.13925734873207996,-0.10489804051450524,4.183525538296962,4.652253148193482
-0.14030632913722502,-0.18078841239951085,4.2300480697788965,4.708141294891079
-0.14211421326122012,-0.26142030119138393,4.2771294827278075,4.768224235323233
-0.14472841627313396,-0.3470099367007974,4.32481172508104,4.833008643081337
