th1 (rad),w1 (rad/s),th2 (rad),w2 (rad/s),a1 (rad/s^2),a2 (rad/s^2)
2.3108302367271856,-2.6466768050184375,5.571891088474658,0.7777920508473135,-7.2615818257969105,0.02263501282661986
2.284363468677001,-2.7192926232764068,5.579669008983131,0.7780184009755797,-7.354770782107405,0.20376401462297405
2.257170542444237,-2.792840331097481,5.587449192992887,0.7800560411218095,-7.40816634865064,0.46765870374611934
2.229242139133262,-2.866921994583987,5.595249753404105,0.7847326281592707,-7.422344519855464,0.81529974617792
2.200572919187422,-2.941145439782542,5.603097079685698,0.7928856256210499,-7.39933570951408,1.2455944259773137
2.1711614647895967,-3.015138796877683,5.611025935941909,0.8053415698808231,-7.342618072171894,1.755404317988263
2.14101007682082,-3.0885649775994017,5.619079351640717,0.8228956130607057,-7.257037073664491,2.3396976058655823
2.110124427044826,-3.1611353483360465,5.627308307771324,0.8462925891193616,-7.148659329786007,2.991817817561044
2.0785130735614654,-3.2326219416339064,5.635771233662518,0.876210767294972,-7.024574454988943,3.7038514293377522
2.0461868541451262,-3.302867686183796,5.6445333413354675,0.9132492815883496,-6.892662698994019,4.4670698037419765
2.0131581772832883,-3.3717943131737362,5.653665834151351,0.9579199796257694,-6.761348232064077,5.272416917648999
1.979440234151551,-3.439407795494377,5.663245033947608,1.0106441488022593,-6.639358120615559,6.111013487931904
1.945046156196607,-3.505801376700533,5.673351475435631,1.0717542836815783,-6.535505610070436,6.974650206901821
1.9099881424296017,-3.5711564328012373,5.684069018272447,1.1415007857505965,-6.458513745222661,7.856247372981301
1.8742765781015893,-3.635741570253464,5.695484026129953,1.2200632594804095,-6.416892110450017,8.75026460806868
1.8379191623990547,-3.699910491357964,5.707684658724757,1.3075659055610962,-6.418876054840371,9.653051913124768
1.8009200574854751,-3.7640992519063676,5.720760317780368,1.404096424692344,-6.472434628283093,10.563141390353726
1.7632790649664114,-3.8288235981891985,5.734801282027291,1.5097278385958812,-6.5853509838294855,11.481487020374617
1.7249908289845195,-3.8946771080274933,5.74989856041325,1.6245427087996274,-6.7653775315370135,12.411667544666138
1.6860440579042446,-3.9623308833428634,5.766143987501247,1.7486593842462888,-7.020467939846217,13.360074577283772
1.646420749070816,-4.032535562741326,5.78363058134371,1.8822601300191264,-7.359089408436405,14.336114584507923
1.6060953934434028,-4.10612645682569,5.802453182643901,2.025621275864206,-7.790621682845806,15.352459584335325
1.565034128875146,-4.184032673654148,5.822709395402542,2.179145871707559,-8.325854219053603,16.425387794056945
1.5231938021386044,-4.267291215844684,5.844500854119618,2.3433997496481287,-8.977599868711527,17.575262589238196
1.4805208899801576,-4.357067214531799,5.867934851616099,2.5191523755405107,-9.761452464725744,18.827206578408695
1.4369502178348397,-4.4546817391790565,5.893126375371504,2.707424441324598,-10.696726428785515,20.212037440180165
1.392403400443049,-4.561649003466911,5.92020061978475,2.9095448157263997,-11.80762775614465,21.767542145545868
1.3467869104083798,-4.679725281028357,5.949296067942014,3.1272202371818585,-13.124713844170543,23.540171576472197
1.2999896575980963,-4.810972419470063,5.9805682703138325,3.3626219529465806,-14.686695209382634,25.587225341695113
1.2518799334033957,-4.957839371563889,6.014194489843298,3.6184942063635317,-16.54259195118442,27.97953422245298
1.2023015396877568,-5.123265291075733,6.050379431906934,3.8982895485880613,-18.75412599577847,30.804456683041533
1.1510688867769994,-5.310806551033518,6.089362327392815,4.206334115418477,-21.39787388614942,34.16849982865471
1.0979608212666643,-5.5247852898950125,6.131425668546999,4.548019113705024,-24.56581016189597,38.19761357899322
1.042712968367714,-5.770443391513973,6.17690585968405,4.929995249494956,-28.36070012760322,43.03015455889668
0.9850085344525744,-6.054050392790005,6.226205812179,5.360296795083923,-32.87764730958787,48.79028093602441
0.9244680305246744,-6.3828268658858835,6.279808780129839,5.848199604444167,-38.15120965521785,55.51285220269172
0.8606397618658156,-6.764338962438062,6.338290776174281,6.403328126471084,-44.02167277392895,62.954666876374375
0.7929963722414349,-7.204555690177352,6.4023240574389915,7.032874795234828,-49.82633634905217,70.15988208769775
0.7209508153396614,-7.702819053667874,6.4726528053913395,7.7344736161118055,-53.77553700477654,74.58277137519674
0.6439226248029827,-8.240574423715639,6.549997541552457,8.480301329863773,-52.038567278086326,70.80389353512608
0.5615168805658263,-8.760960096496502,6.634800554851095,9.188340265215034,-38.68860687928776,50.45701763565408
0.47390727960086126,-9.14784616528938,6.726683957503245,9.692910441571575,-10.131804542343167,8.466214268701762
0.38242881794796746,-9.249164210712811,6.8236130619189606,9.777572584258593,25.37157463009377,-43.55785197956894
0.28993717584083933,-8.995448464411874,6.921388787761546,9.341994064462904,49.82234474943643,-80.28449646924196
0.19998269119672057,-8.49722501691751,7.014808728406175,8.539149099770484,55.90000570272172,-91.33476150970688
0.11501044102754548,-7.9382249598902925,7.10020021940388,7.625801484673414,50.69127964349524,-86.54270535433629
0.035628191428642556,-7.43131216345534,7.176458234250614,6.760374431130051,42.103592425578846,-76.94691091067367
-0.03868493020591085,-7.010276239199552,7.2440619785619145,5.990905322023314,33.75709362057546,-67.62607108099057
-0.10878769259790637,-6.672705302993798,7.303971031782147,5.314644611213408,26.64426199182038,-59.99384191223619
-0.17551474562784436,-6.406262683075594,7.357117477894281,4.714706192091047,20.80417922027508,-54.125298240572775
-0.2395773724586003,-6.198220890872843,7.404264539815192,4.173453209685319,16.030782268758706,-49.74236887771942
-0.30155958136732874,-6.037913068185256,7.445999071912046,3.676029520908125,12.10038513941177,-46.531115388131504
-0.3619387120491813,-5.916909216791138,7.482759367121127,3.21071836702681,8.829465732122527,-44.22274334810447
-0.4211078042170927,-5.828614559469913,7.514866550791395,2.768490933545765,6.0807690392694695,-42.60247936418942
-0.47939394981179184,-5.767806869077218,7.542551460126853,2.3424661399038706,3.756241960622139,-41.50006200407446
-0.537072018502564,-5.730244449470997,7.565976121525892,1.927465519863126,1.7882614641278265,-40.7780437325435
-0.594374462997274,-5.712361834829719,7.585250776724523,1.519685082537691,0.13203520845828626,-40.322176285292315
-0.6514980813455712,-5.711041482745136,7.6004476275499,1.116463319684768,-1.2404992312034784,-40.034577162390725
-0.7086084961730226,-5.7234464750571705,7.611612260746748,0.7161175480608607,-2.3455923745908493,-39.82941922096801
-0.7658429609235943,-5.746902398803079,7.6187734362273565,0.31782335585118054,-3.191789640376739,-39.63069699852516
-0.823311984911625,-5.778820295206846,7.621951669785869,-0.07848361413407107,-3.783488182448735,-39.371615541033655
-0.8811001878636935,-5.8166551770313335,7.621166833644528,-0.4721997695444076,-4.124061773472321,-38.99514860998336
-0.9392667396340069,-5.857895794766057,7.616444835949084,-0.8621512556442412,-4.218542142491782,-38.45529266589849
-0.9978456975816674,-5.900081216190975,7.607823323392641,-1.246704182303226,-4.075752427190553,-37.718520355440624
-1.056846509743577,-5.94083874046288,7.595356281569609,-1.6238893858576324,-3.709748580757202,-36.76494642988961
-1.1162548971482058,-5.977936226270452,7.579117387711033,-1.9915388501565285,-3.140445791687042,-35.58878908982004
-1.1760342594109103,-6.009340684187323,7.559201999209468,-2.347426741054729,-2.393384271802608,-34.19785051076099
-1.2361276662527836,-6.033274526905349,7.535727731798921,-2.6894052461623392,-1.4987016469463537,-32.61193527437452
-1.296460411521837,-6.048261543374813,7.508833679337298,-3.0155245989060844,-0.4894955131064528,-30.860335011228727
-1.356943026955585,-6.053156498505877,7.478678433348237,-3.3241279490183717,0.6001543359685484,-28.978682510107323
-1.417474591940644,-6.047154955146191,7.4454371538580535,-3.613914774119445,1.7372027012536209,-27.005578278230914
-1.4779461414921058,-6.029782928133655,7.409298006116859,-3.8839705569017537,2.8914215699072905,-24.979399766261267
-1.5382439707734423,-6.000868712434582,7.370458300547841,-4.133764554564366,4.03675064211244,-22.935628570008596
-1.5982526578977883,-5.960501206013458,7.329120655002197,-4.363120840264452,5.152116341949091,-20.90490496404078
-1.6578576699579228,-5.908980042593967,7.285489446599552,-4.57216988990486,6.2217154610170535,-18.911880376687773
-1.7169474703838625,-5.846762887983797,7.239767747700504,-4.761288693671737,7.234833202153929,-16.974819180704884
-1.7754150992637006,-5.774414555962258,7.192154860763787,-4.931036885478786,8.185308394528876,-15.105820100219335
-1.8331592448233232,-5.692561472016969,7.142844491908999,-5.0820950864809795,9.070772154758693,-13.311488686514107
-1.890084859543493,-5.601853750469382,7.092023541044189,-5.215209973346121,9.891777559404806,-11.593889045369894
-1.9461033970481867,-5.502935974875334,7.039871441310728,-5.33114886379982,10.650916337435342,-9.951623537409217
-2.00113275679694,-5.396426811500981,6.98655995267273,-5.430665099173912,11.351992558055919,-8.38092143891528
-2.05509702491195,-5.282906885920422,6.932253301680991,-5.514474313563065,11.999298626662041,-6.876652040621055
-2.107926093771154,-5.162913899653802,6.87710855854536,-5.583240833969276,12.597018705407779,-5.433208437202972
-2.159555232767692,-5.036943712599724,6.821276150205668,-5.637572918341306,13.148769826860848,-4.045232640567917
-2.209924669893689,-4.905456014331116,6.764900421022254,-5.678025244746985,13.657280936965355,-2.708170309094808
-2.258979230037,-4.768883204961463,6.708120168574784,-5.705106947837933,14.124203683374889,-1.4186553542759923
-2.3066680620866147,-4.627641168127714,6.651069099096405,-5.719293501380693,14.550044631258116,-0.17473253545440465
-2.352944473767892,-4.482140721815133,6.593876164082599,-5.721040826735237,14.93420563030844,1.0240685701316077
-2.3977658809860434,-4.3327986655120485,6.536665755815246,-5.710800141033921,15.275116541637377,2.176790926062424
-2.4410938676411638,-4.180047500095675,6.479557754404907,-5.689032231773297,15.570442144433478,3.281218157728168
-2.4828943426421204,-4.0243430786513406,6.422667432087175,-5.656220050196015,15.817342828777877,4.334129982469465
-2.5231377734286338,-3.866169650363562,6.366105231585214,-5.61287875037132,16.012766952480455,5.331619124330474
-2.5617994699322693,-3.7060419808387572,6.309976444081501,-5.559562559128016,16.15375192844633,6.269442404019202
-2.5988598897406567,-3.5445044615542938,6.254380818490221,-5.496868135087824,16.237711622727605,7.143378537119537
-2.6343049343561997,-3.3821273453270178,6.199412137139342,-5.425434349716628,16.262689735206727,7.949566689513534
-2.66812620780947,-3.2195004479749505,6.145157793642176,-5.345938682821493,16.227562514287698,8.684803152894299
-2.7003212122892197,-3.0572248228320733,6.091698406813961,-5.25909065129255,16.132179160375227,9.34677845262413
-2.7308934605175406,-2.895903031228321,6.039107500301036,-5.165622866766308,15.977434098986759,9.934243342949475
-2.759852490829824,-2.7361286902384534,5.987451271633373,-5.066280433336813,15.765271304563354,10.447098834222237
-2.7872137777322084,-2.57847597719282,5.936788467300005,-4.961809444994591,15.498626356415954,10.886411902978143
-2.8129985375041366,-2.4234897136286606,5.887170372850059,-4.85294532596481,15.181316331443318,11.254364178365655
-2.837233434640423,-2.2716765503142273,5.838640919590411,-4.740401684181153,14.817890597591536,11.554145162028748
-2.8599502001435653,-2.123497644338312,5.791236902748599,-4.624860232560866,14.413456918343487,11.789804142805249
-2.8811851765869485,-1.9793630751548772,5.744988300422991,-4.506962191132813,13.973497095478493,11.96607588369557
-2.9009788073384972,-1.8396281042000924,5.699918678511662,-4.387301432295858,13.503684933749216,12.088194576162683
-2.919375088380498,-1.7045912548626,5.656045664188704,-4.266419486534231,13.009716988017471,12.161708817454084
-2.936421000929124,-1.5744940849824254,5.613381469323362,-4.1448023983596896,12.497163765686249,12.192307883738547
-2.9521659417789485,-1.4495224473255628,5.571933445339765,-4.022879319522304,11.97134618675706,12.185666756386267
-2.966661166252204,-1.3298089854579922,5.531704652144541,-3.9010226519584417,11.437239453651431,12.147314563103798
-2.9799592561067842,-1.215436590921478,5.492694425624957,-3.779549506327404,10.899404256213913,12.0825285814659
-2.992113622015999,-1.1064425483593388,5.454898930561683,-3.658724220512745,10.361943537233705,11.996253881046997
-3.0031780474995924,-1.0028231129870018,5.418311688356555,-3.5387616817022747,9.82848188852075,11.893047121184512
-3.0132062786294624,-0.9045382941017943,5.382924071539533,-3.4198312104904294,9.302163992874515,11.7770419705833
-3.0222516615704804,-0.8115166541730492,5.348725759434628,-3.3020607907845965,8.785668290976158,11.651933018528904
-3.0303668281122107,-0.7236599712632876,5.315705151526782,-3.1855414605993073,8.28123213556447,11.520974823467094
-3.0376034278248434,-0.640847649907643,5.283849736920788,-3.0703317123646365,7.7906849993522,11.386992801449235
-3.04401190432392,-0.5629407999141209,5.253146419797142,-2.956461784350144,7.315486739796962,11.252402906169863
-3.049641312323061,-0.4897859325161513,5.223581801953641,-2.8439377552884455,6.856768421181405,11.119237417199567
-3.0545391716482224,-0.4212182483043373,5.195142424400756,-2.73274538111645,6.415373698640881,10.989174571940495
-3.0587513541312656,-0.3570645113179285,5.167814970589592,-2.622853635397045,5.991899243021507,10.863570204083702
-3.062321999244445,-0.2971455188877134,5.141586434235621,-2.514217933356208,5.586733107535016,10.743489955771173
-3.065293454433322,-0.24127818781236324,5.116444254902059,-2.406783033798496,5.200090296320627,10.629740993293533
-3.067706236311446,-0.18927728484915696,5.092376424564074,-2.3004856238655607,4.832045088765734,10.52290246749269
-3.0695990091599374,-0.1409568339614996,5.069371568325419,-2.1952565991906337,4.482559904863048,10.42335421744638
-3.0710085774995526,-0.09613123491286912,5.047419002333513,-2.09102305701617,4.151510672376602,10.331303421439944
-3.071969889848681,-0.0546161281891031,5.026508771763351,-1.9877100228017703,3.838708784134985,10.246809057401682
-3.072516051130572,-0.01622904034775325,5.006631671535333,-1.8852419322277536,3.543919821755474,10.169804152031444
-3.0726783415340497,0.019210157869801493,4.9877792522130555,-1.7835438907074392,3.2668792785439287,10.100115880382287
-3.0724862399553516,0.05187895065524078,4.9699438133059815,-1.6825427319036164,3.0073055464134373,10.037483632098095
-3.071967450448799,0.08195200611937516,4.953118385986945,-1.5821678955826355,2.764910445587809,9.98157519276515
-3.0711479303876055,0.10960111057525325,4.937296707031119,-1.482352143654984,2.5394075766936473,9.932001204090152
-3.0700519192818527,0.1349951863421897,4.922473185594569,-1.3830321316140826,2.3305187666547544,9.88832806927928
-3.068701967418431,0.15830037400873725,4.908642864278428,-1.2841488509212897,2.1379788657183743,9.850089463711676
-3.0671189636783436,0.179680162665921,4.895801375769215,-1.185647956284173,1.9615391353105318,9.81679659872885
-3.065322162051684,0.19929555401902632,4.883944896206374,-1.0874799902968846,1.8009694469312894,9.787947370435363
-3.063329206511494,0.2173052484883392,4.873070096303405,-0.9896005165925309,1.6560594921383753,9.763034507635087
-3.0611561540266106,0.23386584340972297,4.86317409113748,-0.8919701715161801,1.5266191836093936,9.74155281477759
-3.058817495592513,0.2491320352458169,4.854254389422318,-0.7945546433684042,1.412478407802343,9.723005588059861
-3.056326175240055,0.2632568193238403,4.846308842988633,-0.6973245874878056,1.31348627112551,9.70691026631778
-3.0536936070468164,0.2763916820350954,4.839335597113755,-0.6002554848246278,1.2295099639083964,9.692803363503565
-3.0509296902264653,0.2886867816741794,4.833333042265509,-0.5033274511895921,1.16043334987285,9.68024471663754
-3.0480428224097236,0.3002911151729079,4.828299767753613,-0.4065250040232167,1.1061553732182419,9.668821072246985
-3.0450399112579944,0.31135266890509034,4.824234517713381,-0.3098367933007468,1.0665883608093465,9.658149025443311
-3.0419263845689435,0.3220185525131838,4.821136149780374,-0.21325530304631368,1.0416562832302576,9.647877318833055
-3.0387061990438116,0.33243511534548636,4.819003596749911,-0.11677652985798313,1.0312930255795962,9.637688503236063
-3.0353818478903567,0.3427480456012823,4.817835831451331,-0.020399644825622495,1.035440706768876,9.627299958484178
-3.0319543674343437,0.35310245266897106,4.817631835003075,0.07587335475921929,1.0540480746872898,9.616464270163144
-3.028423342907654,0.36364293341584397,4.818390568550667,0.17203799746085074,1.0870689938526916,9.604968956803912
-3.0247869135734953,0.3745136233543709,4.820110948525276,0.26808768702888985,1.1344610320196784,9.592635541500272
-3.0210417773399514,0.3858582336745677,4.822791825395565,0.36401404244389257,1.1961841426006323,9.57931796202167
-3.0171831950032058,0.397820075100574,4.826431965820004,0.4598072220641093,1.2721994306123718,9.564900314021337
-3.0132049942522,0.4105420694066977,4.831030038040645,0.5554562252043227,1.3624679811311609,9.549293922759398
-3.009099573558133,0.4241667492180093,4.836584600292688,0.6509491644319166,1.4669497208686655,9.532433739746848
-3.004857906065953,0.43883624642669594,4.843094091937007,0.7462735018293851,1.5856022754319503,9.514274061778803
-3.0004695436016857,0.45469226918101546,4.850556826955301,0.8414162424471732,1.7183797770790306,9.494783570903468
-2.9959226209098757,0.4718760669518058,4.858970989379772,0.9363640781562078,1.8652315703335023,9.473939694935938
-2.9912038602403577,0.4905283826551408,4.868334630161335,1.0311034751055672,2.0261007557135318,9.451722289173361
-2.986298576413806,0.5107893902122761,4.878645664912391,1.125620697997301,2.200922505139659,9.42810664103532
-2.9811906825116834,0.5327986152636727,4.889901871892364,1.2199017644076542,2.389622076433498,9.403055800515435
-2.9758626963590467,0.5566948360280076,4.90210088953644,1.3139323224128086,2.592112448877071,9.376512240710506
-2.9702957479987666,0.5826159605167783,4.915240212760568,1.4076974448199135,2.8082914972962163,9.348388854474086
-2.964469588393599,0.6106988754897404,4.929317187208767,1.5011813333646544,3.038038618844543,9.31855929567266
-2.9583625996387015,0.6410792616781859,4.944329000542414,1.594366926321381,3.281210724941999,9.286847676935814
-2.9519518070219197,0.6738913689276058,4.960272669805628,1.6872354030907393,3.5376375110738425,9.253017640607254
-2.9452128933326436,0.7092677440383442,4.977145023836535,1.779765579496812,3.807115919859931,9.216760826337191
-2.93812021589226,0.7473389032369435,4.994942679631503,1.871933187760184,4.089403718508799,9.177684768021505
-2.9306468268598906,0.7882329404220315,5.013662011509105,1.963710035440399,4.384212121096246,9.135300265293488
-2.9227644974556704,0.8320750616329939,5.033299111863509,2.055063038093334,4.691197399743246,9.089008291291705
-2.9144437468393405,0.8789870356304263,5.053849742244442,2.145953121006251,5.009951447463287,9.03808651979519
-2.9056538764830364,0.9290865501050593,5.075309273454505,2.236333986204203,5.339991280002706,8.98167558188289
-2.896363010981986,0.9824864629050863,5.097672613316547,2.3261507420230316,5.6807474952247174,8.918765195844088
-2.886538146352935,1.0392939378573336,5.120934120736777,2.4153383939814725,6.031551747284427,8.848180354839005
-2.8761452069743614,1.0996094553301778,5.145087504676592,2.5038201975298624,6.3916233397208995,8.768567805281426
-2.8651491124210597,1.1635256887273868,5.170125706651891,2.5915058755826768,6.760055097206102,8.67838310528208
-2.853513855533786,1.2311262396994478,5.196040765407718,2.6782897066354976,7.135798740326231,8.575878616514409
-2.8412025931367917,1.3024842271027102,5.222823662474073,2.7640484928006415,7.5176500613269415,8.459092853738367
