th1 (rad),w1 (rad/s),th2 (rad),w2 (rad/s),a1 (rad/s^2),a2 (rad/s^2)
4.85205782553399,2.0033554602792254,1.8724476214075907,-2.7390853334557836,9.35950606709347,0.5267494694021537
4.872091380136782,2.09695052095016,1.8450567680730328,-2.733817838761762,9.499592476198288,0.5062277270524387
4.893060885346284,2.191946445712143,1.817718589685415,-2.7287555614912375,9.581500717913787,0.3757979825000035
4.914980349803405,2.2877614528912806,1.7904310340705027,-2.7249975816662375,9.595810244054036,0.11903900322744473
4.937857964332317,2.383719555331821,1.7631810582538403,-2.7238071916339632,9.537099842309786,-0.2752739889517466
4.961695159885635,2.479090553754919,1.7359429863375007,-2.7265599315234805,9.405252566300936,-0.8113241465712244
4.986486065423184,2.573143079417928,1.7086773870222658,-2.7346731729891927,9.206244938391777,-1.4851344953037426
5.012217496217364,2.665205528801846,1.681330655292374,-2.74952451794223,8.952201323596752,-2.2845043200341766
5.038869551505382,2.7547275420378137,1.6538354101129515,-2.772369561142572,8.660637797395761,-3.1901283715970936
5.06641682692576,2.8413339200117713,1.6261117145015258,-2.804270844858543,8.353001213752576,-4.17776742800607
5.0948301661258775,2.924863932149297,1.5980690060529403,-2.846048519138604,8.052770451952005,-5.221103199692209
5.12407880544737,3.005391636668817,1.5696085208615542,-2.898259551135526,7.783475103549859,-6.2947767875910206
5.154132721814058,3.0832263877043156,1.540625925350199,-2.9612073190114363,7.56697803723944,-7.377116035766912
5.184964985691101,3.15889616807671,1.5110138521600847,-3.0349784793691055,7.422275498702314,-8.45218764177565
5.216553947371868,3.233118923063733,1.4806640673663936,-3.119500355786862,7.364932048690469,-9.511008531570537
5.248885136602506,3.306768243550638,1.449469063808525,-3.2146104411025673,7.407134722584894,-10.551949986298382
5.281952819038012,3.3808395907764868,1.4173229593974994,-3.3201299409655514,7.558256128153319,-11.580515790761854
5.315761214945777,3.45642215205802,1.3841216599878439,-3.43593509887317,7.825773723915316,-12.608750697287432
5.350325436466357,3.534679889297173,1.3497623089991122,-3.5620226058460442,8.216397415008506,-13.654544110423725
5.385672235359329,3.616843863447258,1.3141420829406518,-3.6985680469502813,8.73729451961324,-14.741058862710616
5.421840673993802,3.70421680864339,1.277156402471149,-3.8459786355773873,9.397352949714017,-15.896462709568969
5.458882842080236,3.79819033814053,1.2386966161153752,-4.004943262673077,10.208476877331869,-17.154092096409627
5.496864745461641,3.900275106913849,1.1986471834886445,-4.176484183637173,11.186956792193577,-18.553146623164185
5.53586749653078,4.012144674835785,1.1568823416522729,-4.362015649868815,12.354995006775695,-20.140002710699328
5.575988943279137,4.135694624903541,1.1132621851535847,-4.563415676975809,13.742497358794944,-21.970242912332328
5.617345889528172,4.2731195984914905,1.0676280283838266,-4.783118106099132,15.389257918961139,-24.1115106841481
5.6600770855130875,4.427012177681102,1.0197968473228354,-5.024233212940613,17.34764954565456,-26.64728925125262
5.704347207289898,4.600488673137648,0.9695545151934293,-5.29070610545314,19.685840877043145,-29.6815949870021
5.750352094021275,4.79734708190808,0.9166474541388979,-5.587522055323161,22.49126244434204,-33.344190801620734
5.798325564840355,5.0222597063515,0.8607722335856663,-5.920963963339369,25.873217424847358,-37.79481369944083
5.84854816190387,5.280991880599974,0.8015625939522727,-6.298912100333777,29.961364301574786,-43.221945298897765
5.90135808070987,5.580605523615722,0.7385734729489349,-6.731131553322755,34.89127283897012,-49.824025653792084
5.9571641359460275,5.929518252005423,0.6712621574157074,-7.229371809860676,40.75449571475154,-57.74190330160152
6.016459318466081,6.337063209152938,0.5989684393171006,-7.806790842876691,47.4577430837202,-66.86548224427028
6.0798299505576106,6.811640639990141,0.5209005308883338,-8.475445665319393,54.3653903534716,-76.3389650359541
6.147946356957512,7.355294543524857,0.43614607423513985,-9.238835315678934,59.49516598891696,-83.44187090477357
6.22149930239276,7.950246203414027,0.3437577210783505,-10.073254024726669,58.13149019024213,-81.65177929965337
6.301001764426901,8.531561105316449,0.24302518083108382,-10.889771817723203,42.171920784100415,-59.719418496595964
6.386317375480065,8.953280313157453,0.13412746265385178,-11.486966002689162,5.8586854990033475,-9.650614012377556
6.47585017861164,9.011867168147488,0.01925780262696017,-11.583472142812937,-39.34881234639621,52.58253374512134
6.565968850293115,8.618379044683525,-0.0965769188011692,-11.057646805361724,-67.8702064668443,91.49626968683435
6.65215264073995,7.939676980015083,-0.20715338685478646,-10.14268410849338,-72.1793010029134,96.88567784518521
6.731549410540101,7.217883969985949,-0.3085802279397203,-9.173827330041528,-64.18973304146742,85.41402916808093
6.80372825023996,6.5759866395712745,-0.40031850124013557,-8.319687038360719,-53.860366108809444,70.83917737835088
6.869488116635672,6.03738297848318,-0.48351537162374275,-7.61129526457721,-44.76296279274724,58.025657389067725
6.9298619464205045,5.589753350555707,-0.5596283242695148,-7.0310386906865325,-37.51273778550247,47.76754438554339
6.985759479926061,5.2146259727006825,-0.6299387111763801,-6.553363246831099,-31.887236768481273,39.72362799646325
7.037905739653068,4.895753605015869,-0.6954723436446911,-6.156126966866466,-27.53351359666366,33.38622909046428
7.086863275703227,4.620418469049233,-0.7570336133133558,-5.822264675961824,-24.146478034599703,28.32101728021419
7.133067460393719,4.378953688703236,-0.815256260072974,-5.539054503159682,-21.494350043094638,24.198582766395056
7.176856997280751,4.1640101882722895,-0.8706468051045708,-5.297068675495732,-19.407557905179313,20.77742901677004
7.218497099163474,3.9699346092204966,-0.9236174918595281,-5.0892943853280315,-17.76285385119189,17.88145874443926
7.258196445255679,3.7923060707085776,-0.9745104357128085,-4.910479797883639,-16.470005177259853,15.381684518569587
7.296119505962765,3.627606018935979,-1.0236152336916449,-4.756662952697943,-15.461882121385951,13.183100100591751
7.332395566152125,3.4729871977221194,-1.0711818632186243,-4.624831951692026,-14.687282749719513,11.215717915103061
7.367125438129347,3.326114370224924,-1.1174301827355446,-4.512674772540995,-14.105702848450713,9.428636693397891
7.400386581831596,3.185057341740417,-1.1625569304609547,-4.418388405607017,-13.683432292949746,7.786232847233867
7.432237155249001,3.0482230188109196,-1.2067408145170249,-4.340526077134678,-13.390564284204101,6.265797251686321
7.4627193854371106,2.9143173759688787,-1.2501460752883717,-4.277868104617815,-13.198682787580777,4.856087533464022
7.491862559196799,2.782330548093071,-1.2929247563345498,-4.229307229283174,-13.079143689384296,3.5563363875283884
7.51968586467773,2.651539111199228,-1.3352178286273815,-4.193743865407891,-13.001989373127635,2.375274295561715
7.546201255789723,2.5215192174679517,-1.3771552672814604,-4.169991122452274,-12.935626995462846,1.3297289503958607
7.571416447964403,2.3921629475133233,-1.418855178505983,-4.156693832948315,-12.847435365677033,0.44240501141642696
7.595338077439536,2.263688593856553,-1.4604221168354663,-4.152269782834151,-12.705411512685416,-0.261415840077945
7.617974963378101,2.136634478729699,-1.501944814663808,-4.15488394123493,-12.48079943452316,-0.7582404131100152
7.639341308165398,2.0118264843844673,-1.5434936540761572,-4.16246634536603,-12.151367807119847,-1.031377495311722
7.659459573009243,1.8903128063132688,-1.5851183175298176,-4.172780120319147,-11.70469012522986,-1.0757445618356682
7.678362701072375,1.7732659050609703,-1.626846118733009,-4.183537565937503,-11.14056446433442,-0.9013253460327143
7.6960953601229845,1.661860260417626,-1.668681494392384,-4.19255081939783,-10.471743601558277,-0.5342009118096568
7.712713962727161,1.5571428244020433,-1.7106070025863622,-4.1978928285159265,-9.72250780659003,-0.014589226299071355
7.728285390971181,1.459917746336143,-1.7525859308715215,-4.198038720778917,-8.925221349319015,0.6078368774339954
7.742884568434543,1.370665532842953,-1.7945663180793106,-4.191960352004577,-8.115632450867938,1.2802584537747226
7.756591223762973,1.2895092083342736,-1.8364859215993563,-4.1791577674668305,-7.328030593493549,1.953106415262346
7.769486315846316,1.2162289023993382,-1.8782774992740245,-4.159626703314207,-6.591317463462574,2.5851264216687615
7.781648604870309,1.1503157277647125,-1.9198737663071666,-4.133775439097519,-5.926642837664552,3.1462754874544476
7.793151762147956,1.091049299388067,-1.9612115206981418,-4.102312684222975,-5.3467228461948615,3.6183467297705874
7.804062255141837,1.0375820709261183,-2.0022346475403716,-4.066129216925269,-4.85652362177095,3.9937963492287083
7.814438075851098,0.9890168347084088,-2.0428959397096245,-4.026191253432982,-4.454780606914168,4.273513042763266
7.824328244198182,0.9444690286392672,-2.0831578522439544,-3.9834561230053493,-4.135826122914287,4.4642449689347545
7.833772934484575,0.9031107674101243,-2.122992413474008,-3.9388136733160017,-3.8913314841516757,4.576203672871719
7.842804042158676,0.8641974525686076,-2.162380550207168,-3.8930516365872845,-3.71174127248623,4.621126500971502
7.851446016684362,0.8270800398437452,-2.201311066573041,-3.8468403715775694,-3.5873233417321355,4.6108822322768175
7.859716817082799,0.7912068064264238,-2.2397794702888167,-3.800731549254801,-3.508853874111596,4.556579306293866
7.867628885147064,0.7561182676853079,-2.2777867857813647,-3.7551657561918623,-3.4680042890984315,4.468076857584585
7.875190067823917,0.7214382247943235,-2.3153384433432835,-3.7104849876160166,-3.4575097166804514,4.3537856852535555
7.88240445007186,0.686863127627519,-2.352443293219444,-3.666947130763481,-3.471192051642857,4.220658482618346
7.8892730813481355,0.6521512071110904,-2.389112764527079,-3.624740545937297,-3.5038957054081736,4.0742907291715005
7.895794593419247,0.6171122500570086,-2.425360169986452,-3.5839976386455823,-3.5513780134044977,3.919076485619727
7.9019657159198164,0.5815984699229637,-2.461200146372908,-3.544806873789385,-3.6101822214949673,3.758382677439175
7.907781700619046,0.5454966477080141,-2.4966482151108016,-3.5072230470149934,-3.677510179710512,3.594720059243248
7.913236667096126,0.508721545910909,-2.5317204455809517,-3.471275846422561,-3.751104238064623,3.429899210230173
7.918323882555235,0.4712105035302628,-2.566433204045177,-3.436976854320259,-3.8291428015337696,3.2651664987905202
7.923035987590538,0.4329190755149251,-2.60080297258838,-3.404325189332354,-3.910150891436583,3.1013189365740126
7.927365178345687,0.3938175666005593,-2.6348462244817035,-3.3733119999666137,-3.9929252846102163,2.938799049940386
7.931303354011693,0.3538883137544571,-2.6685793444813695,-3.34392400946721,-4.076472896964852,2.7777719645553023
7.934842237149237,0.3131235847848086,-2.7020185845760416,-3.316146289821657,-4.159960711216301,2.6181872760181477
7.937973472997085,0.2715239776726456,-2.735180047474258,-3.2899644170614755,-4.2426754939982025,2.459828265766241
7.940688712773811,0.22909722273266356,-2.7680796916448727,-3.265366134403813,-4.323991659208594,2.3023508077771186
7.942979685001138,0.1858573061405776,-2.8007333529889107,-3.242342626326042,-4.40334582232014,2.1453140132213853
7.944838258062544,0.1418238479173762,-2.833156779252171,-3.220889486193828,-4.480216801702512,1.9882043432175143
7.946256496541717,0.09702167990035108,-2.865365674114109,-3.201007442761653,-4.554110028837602,1.8304546190843094
7.94722671334072,0.05148057961197506,-2.8973757485417257,-3.18270289657081,-4.624545515401092,1.671459091043395
7.94774151913684,0.0052351244579641396,-2.9292027775074336,-3.165988305660376,-4.691048685955105,1.5105854954244577
7.947793870381419,-0.04167536240158691,-2.9608626605640374,-3.1508824507061317,-4.753143519717672,1.3471848364641856
7.947377116757403,-0.08920679759876363,-2.9923714850710987,-3.13741060234149,-4.810347555334244,1.1805994683390442
7.946485048781415,-0.13731027315210606,-3.0237455910945137,-3.1256046076580994,-4.862168401694766,1.0101699216291677
7.945111946049894,-0.18593195716905372,-3.055001637171095,-3.1155029084418078,-4.908101468886958,0.8352408113672166
7.943252626478204,-0.2350129718579233,-3.086156666255513,-3.1071505003281357,-4.947628689556273,0.6551660769463279
7.940902496759625,-0.284489258753486,-3.117228171258794,-3.1005988395586725,-4.9802180451939835,0.46931373379399915
7.93805760417209,-0.33429143920542587,-3.148234159654381,-3.0959057022207324,-5.005323746795419,0.27707025984918743
7.934714689780035,-0.38434467667338007,-3.179193216676588,-3.0931349996222406,-5.022386947167379,0.07784469409550332
7.930871243013302,-0.43456854614505386,-3.2101245666728104,-3.0923565526812857,-5.030836884836408,-0.1289275121697382
7.926525557551851,-0.48487691499341795,-3.2410481321996234,-3.093645827802983,-5.0300923786428955,-0.34378087943419855
7.921676788401917,-0.5351778387798469,-3.271984590477653,-3.097083636597325,-5.0195636090708815,-0.5672165295813701
7.916325010014118,-0.5853734748705557,-3.3029554268436265,-3.1027558018931387,-4.998654138313429,-0.7996990871994442
7.9104712752654125,-0.63536001625369,-3.333982984862558,-3.1107527927651333,-4.96676313698216,-1.0416538893130773
7.904117675102875,-0.6850276476235115,-3.3650905127902093,-3.121169331658264,-4.923287802065794,-1.2934645455883138
7.89726739862664,-0.7342605256441694,-3.396302206106792,-3.134103977114147,-4.867625968948729,-1.555470891272374
7.889924793370199,-0.7829367853336567,-3.4276432458779333,-3.149658686026871,-4.799178940675822,-1.8279673701374297
7.882095425516862,-0.8309285747404149,-3.459139832738202,-3.1679383597282453,-4.71735458083879,-2.1112018741945837
7.873786139769458,-0.8781021205488029,-3.4908192163354843,-3.189050378470191,-4.62157074315688,-2.405375050358702
7.86500511856397,-0.9243178279803717,-3.522709720120186,-3.2131041289737783,-4.511259141849252,-2.7106400606582315
7.855761940284166,-0.9694304193988642,-3.554840761409924,-3.2402105295803607,-4.38586980328648,-3.0271027506245174
7.8460676360901775,-1.0132891174317291,-3.5872428667057275,-3.270481557086606,-4.244876282541206,-3.354822138184397
7.8359347449158605,-1.055737880257141,-3.6199476822765937,-3.30402977846845,-4.087781880192602,-3.693811079951933
7.8253773661132895,-1.0966156990590672,-3.6529879800612783,-3.3409678892679695,-3.9141271575976075,-4.044036899469556
7.8144112091226985,-1.1357569706350432,-3.686397658953958,-3.381408258262665,-3.723499126225753,-4.405421667556985
7.803053639416348,-1.1729919618973008,-3.7202117415365845,-3.425462474938235,-3.5155425831059515,-4.7778417016603685
7.791323719797375,-1.2081473877283604,-3.7544663662859667,-3.4732408919548385,-3.289974185943534,-5.161125689981865
7.779242245920091,-1.2410471295877956,-3.789198775205515,-3.524852148854657,-3.046600015817859,-5.55505063557068
7.7668317746242135,-1.2715131297459743,-3.824447296694062,-3.580402655210364,-2.7853375725075837,-5.959334540569553
7.754116643326753,-1.2993665054710501,-3.8602513232461657,-3.6399960006160597,-2.5062433998386693,-6.373624392677735
7.741122978272043,-1.3244289394694369,-3.8966512832523263,-3.703732244542837,-2.209547861104783,-6.797477551494135
7.7278786888773485,-1.3465244180804847,-3.9336886056977547,-3.7717070200577782,-1.8956989951551564,-7.230334034125349
7.714413444696544,-1.3654814080320363,-3.9714056758983323,-3.844010360399032,-1.5654179013369094,-7.671476435828941
7.700758630616224,-1.3811355870454054,-4.009845779502323,-3.9207251247573214,-1.2197687444948537,-8.119973259563897
7.686947274745769,-1.393333274490354,-4.049053030749896,-4.00192485735296,-0.8602472523390883,-8.574600239174123
7.673013942000866,-1.4019357470137448,-4.0890722793234255,-4.087670859744701,-0.4888924942016286,-9.033732810708768
7.658994584530729,-1.406824671955761,-4.129948987920873,-4.178008187851789,-0.1084277478299821,-9.495201237310486
7.644926337811171,-1.4079089494340609,-4.17172906979939,-4.272960200224894,0.2775627168735422,-9.956098120592506
7.63084724831683,-1.4051333222653255,-4.214458671801639,-4.372521181430819,0.6644132879059956,-10.412526366989624
7.616795915094177,-1.3984891893862657,-4.258183883615947,-4.476646445100715,1.0461052212480857,-10.859274590566674
7.6028110232003145,-1.3880281371737848,-4.302950348066955,-4.585239191006382,1.4149366058162232,-11.28940728727761
7.588930741828577,-1.3738787711156226,-4.348802739977018,-4.698133263879158,1.7611308018446221,-11.693760388280388
7.575191954117421,-1.3562674630971765,-4.39578407261581,-4.815070867761962,2.072387875162927,-12.060341366297479
7.561629279486449,-1.3355435843455472,-4.44393478129343,-4.935674281424937,2.333398306260958,-12.373650477942704
7.548273843642994,-1.3122096012829376,-4.493291524107679,-5.0594107862043645,2.525363508747516,-12.613970791638202
7.535151747630164,-1.2869559661954624,-4.543885631969723,-5.185550494120746,2.625607422075575,-12.75672494817304
7.52228218796821,-1.2606998919747066,-4.595741136910931,-5.313117743602477,2.607420550277925,-12.772070569620888
7.509675189048463,-1.2346256864719274,-4.6488723143469555,-5.440838449298686,2.4403507043305943,-12.62500272416863
7.497328932183743,-1.2102221794286214,-4.703280698839943,-5.567088476540372,2.091231064788061,-12.276335902990835
7.4852267103894565,-1.1893098687807409,-4.758951583605347,-5.68985183557028,1.5262842446095224,-11.685008988623402
7.47333361170165,-1.1740470263346456,-4.81585010196105,-5.8067019254565135,0.7146019636510955,-10.81211794220098
7.461593141438303,-1.1669010066981347,-4.873917121215615,-5.914823104878523,-0.36690822916752697,-9.62682400155561
7.449924131371322,-1.1705700889898099,-4.9330653522644,-6.011091344894079,-1.7274671186838062,-8.113713198480129
7.438218430481424,-1.187844760176648,-4.99317626571334,-6.09222847687888,-3.3562934463409024,-6.280311579989372
7.426339982879657,-1.221407694640057,-5.054098550482129,-6.155031592678774,-5.218138031975693,-4.162550295585611
7.414125905933257,-1.2735890749598138,-5.115648866408916,-6.19665709563463,-7.252533882042387,-1.8255774475737259
7.401390015183659,-1.3461144137802377,-5.1776154373652625,-6.214912870110368,-9.378257285524352,0.6419468048125542
7.387928871045856,-1.4398969866354812,-5.239764566066366,-6.208493402062242,-11.50292672631481,3.1398842324645613
7.373529901179501,-1.5549262538986293,-5.3018495000869885,-6.177094559737596,-13.53563541822547,5.5721740202437315
7.357980638640515,-1.690282608080884,-5.363620445684364,-6.121372819535159,-15.39912420038487,7.861375304492539
7.341077812559706,-1.8442738500847327,-5.424834173879716,-6.042759066490233,-17.038161221624993,9.957992896910257
7.322635074058859,-2.0146554623009827,-5.485261764544618,-5.94317913752113,-18.42244160447983,11.842627929621687
7.302488519435848,-2.198879878345781,-5.54469355591983,-5.8247528582249135,-19.544441683840567,13.521773962237646
7.280499720652391,-2.3943242951841865,-5.602941084502079,-5.689535118602537,-20.414116408978874,15.019893319227087
7.256556477700549,-2.5984654592739753,-5.659836435688104,-5.539336185410266,-21.052635043670822,16.370681920959345
7.23057182310781,-2.8089918097106836,-5.715229797542206,-5.375629366200672,-21.486786376715163,17.60958955805442
7.2024819050107025,-3.023859673477835,-5.768986091204213,-5.199533470620128,-21.74483291270739,18.768501901974496
7.172243308275924,-3.2413080026049093,-5.820981425910414,-5.011848451600383,-21.853895616511256,19.872583450102344
7.139830228249875,-3.459846958770022,-5.871099910426418,-4.81312261709936,-21.838562532458475,20.93880624308958
7.105231758662175,-3.6782325840946064,-5.9192311365974115,-4.603734554668464,-21.720291212907494,21.975565056960555
7.068449432821229,-3.8954354962236812,-5.965268482144096,-4.383978904098859,-21.517204927373253,22.982846398080515
7.029495077858992,-4.110607545497413,-6.0091082711850845,-4.154150440118054,-21.243970583385206,23.95254742279931
6.988389002404018,-4.323047251331266,-6.050649775586265,-3.9146249658900603,-20.911536932559912,24.868661936027962
