th1 (rad),w1 (rad/s),th2 (rad),w2 (rad/s)
3.8565003163485065,1.6002008804619867,5.017468602392116,-3.1303934789390753
3.8725023251531265,1.7036525380842602,4.986164667602725,-3.1016252447610446
3.889538850533969,1.8072504714230015,4.955148415155114,-3.0790450698759506
3.907611355248199,1.9114899108819017,4.924357964456354,-3.0629490414425
3.926726254357018,2.0168784990575133,4.89372847404193,-3.053662981595495
3.9468950393475932,2.1239340109964853,4.863191844225975,-3.0515383819601696
3.968134379457558,2.233179353766977,4.832676460406374,-3.05694394701657
3.9904661729952275,2.345133354523854,4.802107020936208,-3.070250633093679
4.013917506540466,2.460295233904154,4.771404514605271,-3.091807180732605
4.038520458879507,2.5791198735194367,4.740486442797945,-3.1219020006282974
4.064311657614701,2.7019800614029172,4.709267422791662,-3.160705943481279
4.091331458228731,2.8291110035791354,4.677660363356849,-3.2081891991893707
4.119622568264522,2.960531951216522,4.6455784713649555,-3.2640049406086256
4.1492278877766875,3.0959407116700697,4.612938421958869,-3.3273336337154547
4.180187294893388,3.234580713230046,4.5796650856217145,-3.396687491925625
4.212533102025689,3.3750896200561464,4.545698210702458,-3.469687834359684
4.24628399822625,3.5153558840168473,4.511001332358861,-3.542852880382924
4.281437557066418,3.6524355363871974,4.475572803555031,-3.611470472105287
4.31796191243029,3.7826091775091153,4.4394580988339785,-3.6696698026789427
4.355788004205381,3.9016682919007093,4.402761400807189,-3.710819830900533
4.394804687124388,4.00547814830246,4.365653202498184,-3.7283235009955003
4.434859468607413,4.090749706706388,4.3283699674882286,-3.716714744026488
4.4757669656744765,4.155798909302465,4.291202820047964,-3.6727466176017174
4.517324954767501,4.200987835306081,4.254475353871947,-3.596038020915558
4.559334833120562,4.228637972402124,4.218514973662791,-3.4889785842774006
4.601621212844583,4.242455216517546,4.1836251878200175,-3.355941495051297
4.644045765009758,4.246730444005972,4.150065772869504,-3.202171390008548
4.686513069449818,4.245620588657316,4.118044058969419,-3.0327756693204497
4.728969275336391,4.242688425143325,4.087716302276214,-2.852072324707755
4.771396159587824,4.240717823086637,4.0591955790291365,-2.6633216200511565
4.81380333781869,4.2417260352358745,4.032562362828625,-2.468734758322484
4.856220598171049,4.247077219981165,4.007875015245401,-2.2696271514005435
4.8986913703708606,4.257625701610697,3.9851787437313955,-2.0666169772907748
4.941267627386967,4.273849326064865,3.964512573958488,-1.859813744227881
4.984006120647615,4.295957030758661,3.945914436516209,-1.6489746072464917
5.026965690955202,4.323968150466352,3.929424690443744,-1.4336249016253721
5.070205372459865,4.357766877234259,3.9150884414274905,-1.2131476514265698
5.113783041232208,4.397136981657073,3.902956964913225,-0.9868492320764717
5.157754411048779,4.441781675366566,3.8930884725924604,-0.7540080802608935
5.2021722278024445,4.491332614624372,3.8855483917898512,-0.5139121015865756
5.247085553948688,4.545351101332541,3.8804092707739857,-0.2658890390537937
5.292539064962013,4.603323754336361,3.8777503803834477,-0.00933283904998028
5.338572302505376,4.664654353333538,3.877657051992948,0.2562719448505541
5.385218846038712,4.728653183922678,3.8802197714414532,0.5313264610141528
5.432505377877939,4.794524997662758,3.8855330360515947,0.8160939681629974
5.480450627854566,4.8613566051496475,3.8936939757332247,1.1106762565403454
5.529064193906063,4.92810510584424,3.9048007382986283,1.4149904472912842
5.578345244964505,4.993587792183495,3.918950642771541,1.7287469301082667
5.6282811228863405,5.056474816620934,3.9362381120726235,2.0514295393727027
5.67884587105255,5.115285750046625,3.9567524074663507,2.382279345901267
5.729998728553016,5.168391162242472,3.9805752009253634,2.720283638028717
5.781682640175441,5.214020296835836,4.00777803730565,3.0641717619023177
5.833822843143799,5.250275776984734,4.038419754924673,3.4124194682601554
5.886325600913646,5.275156052846648,4.072543949607275,3.7632632601818488
5.939077161442112,5.286585984264864,4.110176582209093,4.1147259521064505
5.991943021284761,5.282455545334839,4.151323841730158,4.464654244581858
6.044767576738109,5.260666149682055,4.195970384175976,4.8107686102722536
6.09737423823493,5.219183536940481,4.244078070278698,5.1507251974058255
6.149566073604334,5.156095543982229,4.295585322252757,5.482188809133434
6.201127029044157,5.069672424250645,4.350407210344091,5.802915330545238
6.251823753286663,4.9584267001042726,4.408436363649543,6.110841269659655
6.301408020287706,4.821168880584709,4.46954477634614,6.4041773860303435
6.349619709093553,4.657054822903607,4.533586550206444,6.681502757681765
6.39619025732259,4.4656201633432175,4.600401577783261,6.941855178470287
6.440846458956022,4.246797215457946,4.669820129567964,7.1848136171794
6.4833144311106015,4.000910146684009,4.741668265739758,7.410568762170418
6.523323532577441,3.7286451671259337,4.815773953361462,7.619978561742078
6.560609984248701,3.4309938740521653,4.891973738978883,7.814607226301229
6.594919922989222,3.1091696524285224,4.970119811241895,7.9967483479312715
6.626011619513507,2.7644988860247603,5.050087294721208,8.169435441140559
6.653656608373755,2.3982903824212967,5.131781649132614,8.33644600447128
6.677639512197968,2.0116876104186114,5.215146109177327,8.502307718895114
6.697756388302154,1.6055090557998164,5.300169186366277,8.672317083028155
6.713811478860152,1.1800826324282883,5.386892357196559,8.852580826501367
6.725612305184435,0.7350818880631825,5.475418165461573,9.050087332924898
6.7329631240650665,0.2693775982575666,5.565919038790822,9.272805723083678
6.735656900047642,-0.21906546191686355,5.658647096021659,9.52978648726688
6.733466245428474,-0.7331765360555167,5.753944960894328,9.831181757674742
6.726134480067919,-1.276487661803122,5.852256778471076,10.187975182461486
6.7133696034498875,-1.8521894565668062,5.954136530295691,10.610924724989163
6.694847708884219,-2.4607210051757376,6.060245777545583,11.10761480828738
6.670240498832461,-3.0942830649860174,6.171321925628456,11.67539315870208
6.639297668182601,-3.725762936505169,6.288075857215477,12.286647844736505
6.602040038817549,-4.290963064746695,6.410942335662843,12.864622951103197
6.559130408170082,-4.6749704056006,6.539588565173875,13.264125634393755
6.512380704114077,-4.742146858199758,6.672229821517813,13.310706828601786
6.4649592355320795,-4.440281092794758,6.80533688980383,12.939723702607882
6.420556424604132,-3.87196033124156,6.934734126829909,12.28931031508901
6.381836821291716,-3.2021043474821167,7.057627229980799,11.572905507709217
6.349815777816895,-2.539420342895541,7.173356285057891,10.923200959479782
6.324421574387939,-1.924302979848644,7.2825882946526885,10.381681666649122
6.305178544589452,-1.362093410794355,7.3864051113191795,9.945671720309228
6.291557610481509,-0.8463167096473964,7.485861828522272,9.599275011712491
6.283094443385035,-0.3683382049513684,7.581854578639397,9.325445770264102
6.279411061335521,0.07952425065179836,7.675109036342038,9.109407555778795
6.280206303842039,0.5032918837224462,7.766203111899825,8.9390864461912
6.285239222679264,0.9073749927212824,7.855593976361737,8.804714826690665
6.294312972606477,1.2948121798772523,7.943641124628644,8.698310579262879
6.307261094405249,1.667521445930903,8.030624230421273,8.613229966415934
6.323936308864559,2.0265186486840765,8.116756530085432,8.543830459955972
6.344201495351399,2.3721006853920077,8.202194834684992,8.485233443975435
6.367922502205319,2.7040015960733053,8.287047169124746,8.433167040172096
6.394962518166052,3.021530422188653,8.371378839526466,8.383869998047699
6.425177822387939,3.323697241900815,8.455217539506943,8.334040347448795
6.458414794806947,3.609330789687229,8.53855794298143,8.280815026629586
6.494508102703819,3.87718832587658,8.621366093247726,8.221768641598635
6.533279985962586,4.126056307645542,8.703583779663713,8.154921125764837
6.574540549039041,4.3548391031789215,8.785132990921362,8.078745681738889
6.61808894007083,4.562632554922377,8.86592044773875,7.992170227941215
6.663715265620054,4.748779595269969,8.945842150018162,7.894567703168978
6.711203061572753,4.912906188498203,9.024787827049852,7.785732896797484
6.760332123457736,5.054937355038175,9.102645156017827,7.665845744025057
6.8108814970081175,5.175094615041556,9.179303613458078,7.535422983199742
6.8626324431585335,5.273877569061532,9.254657843290076,7.395261483139223
6.915371218849149,5.352033292725079,9.328610458121467,7.246377282642914
6.9688915517764,5.410517652309439,9.401074230947897,7.089944442389263
7.0229967282994945,5.450452560747563,9.471973675371789,6.927237308466219
7.07750125390697,5.473082693387718,9.54124604845645,6.759578918596522
7.132232080840847,5.479734424737327,9.608841837642416,6.588297258925791
7.1870294250882205,5.47177889264328,9.674724810231673,6.414690086898804
7.241747214014653,5.4506002791142265,9.73887171110066,6.239998204867851
7.296253216805796,5.417569707211554,9.801271693149339,6.065386466603788
7.350428913877911,5.3740246345407545,9.861925557815377,5.891931435835716
7.404169160223319,5.321253280804939,9.920844872173735,5.720614463982308
7.457381693031368,5.260483438777709,9.978051016813557,5.552318964053117
7.509986527419145,5.192874950984313,10.03357420645409,5.387830774560029
7.561915276928988,5.119515151448794,10.08745251419969,5.2278406815708305
7.613110428443476,5.041416639751027,10.139730921015397,5.0729483597515905
7.663524594840986,4.959516846866123,10.190460404612914,4.923667177505722
7.713119763309647,4.8746789500211,10.239697076387971,4.780429471357207
7.761866552809859,4.787693785275107,10.287501371101543,4.643592023601644
7.80974349066261,4.699282485468605,10.33393729133756,4.513441574235904
7.8567363155172965,4.61009963536549,10.379071707079918,4.390200266382472
7.902837311870951,4.5207367855860126,10.422973709743742,4.2740309688883595
7.948044679726811,4.431726204095006,10.465714019432625,4.165042446116229
7.992361941767761,4.343544770979241,10.507364443893787,4.063294358477881
8.035797389477553,4.256617941496626,10.547997387478565,3.96880208253569
8.078363568892518,4.171323716134211,10.587685408303923,3.8815413400950805
8.120076806053861,4.087996566493693,10.626500821704873,3.8014526242335305
8.160956771718798,4.006931273611494,10.664515347947209,3.7284454083878806
8.201026084454913,3.928386641779941,10.701799802031088,3.662402123464674
8.240309950872712,3.8525890566815577,10.738423823265736,3.6031818879171085
8.278835841439527,3.7797358620233075,10.774455642144908,3.550623976936371
8.31663320005976,3.7099985340114547,10.80996188191427,3.5045510191851585
8.353733185399875,3.6435256379641623,10.845007392106123,3.4647719125807663
8.390168441779517,3.5804455560710053,10.87965511123193,3.4310844541941417
8.425972897340227,3.520868979699582,10.913965955773872,3.403277683061768
8.461181587137222,3.4648911636411532,10.94799873260449,3.381133938347382
8.495830498773634,3.412593943217306,10.981810071987963,3.3644306386408656
8.529956438205806,3.364047518199942,11.015454378374372,3.352941791109131
8.563596913387805,3.319312010016231,11.048983796285464,3.3464392416471376
8.596790033487967,3.2784388007324825,11.082448188701935,3.3446936790976074
8.629574421495292,3.24147166387132,11.115895125492912,3.347475408037947
8.661989138134006,3.2084476982661183,11.14936987957329,3.354554905623963
8.694073615116666,3.1793980769569274,11.18291542862953,3.365703178602196
8.725867595886236,3.154348623649992,11.216572460415552,3.3806919369348796
8.757411082122735,3.1333202295662272,11.250379379784901,3.399293600603482
8.788744284418398,3.1163291236574127,11.284372315790936,3.4212811561432095
8.819907575654971,3.1033870092310294,11.318585127352367,3.4464278793766923
8.850941445747281,3.0945010800455934,11.353049406146134,3.47450694071216
8.881886456547738,3.0896739289571706,11.387794475553255,3.5052909092859714
8.91278319583731,3.088903362241244,11.422847384646115,3.538551172180428
8.943672229459722,3.09218213279504,11.45823289636792,3.5740572849360452
8.974594050787672,3.0994976055415573,11.493973469217279,3.6115762695845826
9.005589026843088,3.1108313684896176,11.530089231913125,3.6508718764178383
9.036697340527985,3.126158803019643,11.566597950677304,3.691703825621441
9.06795892855818,3.145448627011401,11.603514988933519,3.733827044669238
9.099413414828295,3.1686624243408943,11.640853259380211,3.776990916903604
9.131100039071704,3.195754173968345,11.678623168549247,3.8209385559194917
9.163057580811387,3.226669791226462,11.716832554108443,3.8654061191178424
9.195324278723652,3.261346692900525,11.75548661529962,3.9101221719894776
9.227937745652657,3.2997133961722414,11.794587837019515,3.954807112235107
9.260934879614378,3.341689159389637,11.834135908141866,3.9991726596415322
9.294351771208275,3.3871836698562463,11.874127634738281,4.042921413672238
9.328223607906837,3.436096780366382,11.914556848875003,4.08574647599323
9.362584575710502,3.488318292055288,11.955414313634936,4.127331129706012
9.397467758631054,3.5437277763471737,11.996687624931996,4.167348561041181
9.432905036394526,3.6021944235053427,12.038361110542407,4.205461602913756
9.468926980629579,3.6635768997341085,12.080415726571545,4.2413224733956225
9.50556274962692,3.7277231892609834,12.1228289513055,4.2745724762760515
9.54283998151953,3.7944703927451893,12.16557467606826,4.304841626029813
9.580784685446982,3.8636444492172415,12.208623092328558,4.33174815638012
9.619421129939155,3.9350597461481938,12.251940573892359,4.354897871021085
9.658771727400637,4.008518581850765,12.29548955260257,4.373883297829081
9.698856913219146,4.083810446966957,12.33922838558086,4.388282614983008
9.739695017688815,4.160711098078821,12.38311121173069,4.397658329794706
9.781302128669603,4.23898140728582,12.427087795028637,4.401555709667697
9.823691942742462,4.318365987697518,12.471103352125313,4.399500990319727
9.866875602619437,4.398591616900883,12.51509836202851,4.39099941992518
9.910861518788446,4.479365509155571,12.559008356227762,4.3755332395866775
9.955655173880002,4.560373522710154,12.602763688623629,4.352559750531571
10.001258909107104,4.6412784312401865,12.646289286128944,4.321509676005527
10.047671693419506,4.721718437492529,12.689504382889,4.281786089426107
10.094888877794432,4.801306161532415,12.73232224378326,4.232764247080112
10.142901939409755,4.87962839321701,12.77464988625406,4.1737927288503425
10.191698223341925,4.956246954906529,12.816387813542564,4.104196347217814
10.24126069289099,5.030701070368637,12.857429777014742,4.023281323424912
10.291567703594676,5.102511671524488,12.897662590248991,3.930343237449016
10.342592820309921,5.1711880859320125,12.936966022623482,3.824678219567041
10.394304701169242,5.236237522334711,12.975212804819153,3.705597747799445
10.44666707639259,5.297177695538068,13.012268782297147,3.572447229030949
10.499638853347971,5.353552792116558,13.047993254587457,3.424628256625873
10.553174381269137,5.404952765277617,13.082239537153715,3.261624046182881
10.607223908921913,5.45103565853101,13.114855777615544,3.08302706008812
10.661734265507222,5.4915523041589775,13.145686048216426,2.8885672680173005
10.716649788548812,5.526372351758736,13.1745717208966,2.678138908243355
10.7719135120664,5.5555102024964595,13.201353109979033,2.4518230952561075
10.827468614091364,5.579149123406102,13.225871340931594,2.2099032669110237
10.883260105325425,5.597661672098081,13.247970373600705,1.952870390335873
10.939236722046406,5.611624652106067,13.267499077504063,1.681415143331347
10.995352968567467,5.6218271969710365,13.284313228937377,1.3964050007379987
11.051571240537177,5.629271258161923,13.298277278944756,1.0988452480244175
11.107863953118796,5.635164701627973,13.309265731425,0.7898242869030412
11.164215600135076,5.640908295489072,13.317163974294031,0.4704449723331918
11.220624683089968,5.648078951816774,13.321868424017364,0.14174485724501906
11.277105472608135,5.65841251701007,13.323285872589814,-0.1953911430987153
11.333689597778235,5.673790071853781,13.321331961158826,-0.5403222162000099
11.390427498496773,5.696232059394783,13.315928738996826,-0.8927446335892326
11.447389819090722,5.727904650125243,13.307001292660933,-1.252785200325453
11.504668865591974,5.771142702246847,13.29447344065768,-1.621096262378262
11.562380292614442,5.828493644432395,13.278262478033897,-1.9989558511615546
11.620665229058766,5.902786741757709,13.25827291952228,-2.388379128478391
11.679693096476342,5.997232518793951,13.234389128237497,-2.7922496330208317
11.73966542166428,6.115557301202024,13.206466631907288,-3.2144802784455955
11.8008209946763,6.262176828132574,13.174321829122832,-3.6602130534042203
11.863442762957627,6.442407771335001,13.13771969858879,-4.136058907507513
11.927866840670976,6.662699343672707,13.096359109513713,-4.650355092300032
11.994493834107704,6.93082038908275,13.049855558590712,-5.213350345248298
12.063802037998531,7.255814455238619,12.99772205513823,-5.837054479172954
12.136360182550918,7.647226083659059,12.9393515103465,-6.534053723334326
12.212832443387509,8.112362585892038,12.874010973113156,-7.313555610727055
12.293956069246429,8.648777573965923,12.800875417005885,-8.170714080880728
12.380443844986088,9.226782242989717,12.719168276197077,-9.061953096880305
12.472711667415986,9.758098607802602,12.628548745228274,-9.860880923464215
12.570292653494011,10.071804445148409,12.529939935993632,-10.324663738008802
12.671010697945496,9.983718903484492,12.426693298613543,-10.192157295824858
12.770847886980341,9.49346756810529,12.324771725655294,-9.461714173159942
12.865782562661394,8.820721151350867,12.230154583923694,-8.442521680507935
12.953989774174904,8.17102556497717,12.145729367118614,-7.425464614856179
13.035700029824675,7.623435925847697,12.071474720970052,-6.524421594250026
13.111934389083151,7.1833747687558684,12.00623050502755,-5.749527237965803
13.18376813677071,6.834614702075598,11.948735232647893,-5.079840235867004
13.252114283791466,6.559098342283431,11.897936830289224,-4.491272472320851
13.3177052672143,6.341841798492943,11.853024105566016,-3.9636781438249256
13.38112368519923,6.171301643362864,11.813387324127767,-3.481559844375739
13.442836701632858,6.038709282246748,11.77857172568401,-3.0332920409686466
13.503223794455327,5.937337609991949,11.748238805274324,-2.6102223462815655
13.562597170555247,5.861909907433402,11.722136581811508,-2.2059526228620236
13.621216269629581,5.808161698332489,11.700077055582888,-1.8158186522856152
13.679297886612906,5.77252493260446,11.681918869060032,-1.4365251165524768
13.73702313593895,5.751903513342856,11.667553617894507,-1.065888951661957
13.794542171072377,5.743516991452401,11.656894728377887,-0.7026529093912437
13.8519773409869,5.744796626482286,11.649868199283976,-0.3463405864510151
13.909425307251723,5.7533231784249645,11.646404793419466,0.00286797155516455
13.966958539035973,5.76679877128169,11.646433473135017,0.34425449039815115
14.02462652674879,5.78304639918091,11.649876018038999,0.6766832033494992
14.0824569907406,5.80003067732567,11.656642850072494,0.9987275538087605
14.140457297513857,5.815892864123931,11.666630125610581,1.3088015934623562
14.198616226155096,5.828992591793143,11.679718141545205,1.6052909584872774
14.256906152073027,5.837948656007981,11.695771051130079,1.8866758132441532
14.315285638633107,5.841671959354194,11.71463780926252,2.151637383671983
14.373702358226648,5.839385335954418,11.73615418309924,2.3991407310021478
14.432096211586192,5.8306272814172475,11.76014559040926,2.6284889226166217
14.490402484400365,5.815239148024289,11.786430479635428,2.839347100011384
14.548554875880608,5.7933376585617795,11.81482395063554,3.0317383457930878
14.606488252466226,5.765276256822658,11.845141334093471,3.206016021869635
14.664141015034453,5.731599655391228,11.877201494312168,3.362818957988659
14.721457011588365,5.692995981066478,11.910829683892054,3.5030164033503937
14.77838697139903,5.6502503359445795,11.945859847925558,3.627649178348489
14.834889474758477,5.604202644852851,11.982136339709042,3.7378723040875865
