th1 (rad),w1 (rad/s),th2 (rad),w2 (rad/s),a1 (rad/s^2),a2 (rad/s^2)
2.2414831596137046,2.8867377884826615,0.5460542442446364,0.5355371063450519,-7.68129908113622,2.224424430369732
2.270350537498531,2.8099247976712993,0.551409615308087,0.5577813506487492,-7.536798535663567,1.5626301037135704
2.298449785475244,2.7345568123146635,0.5569874288145744,0.5734076516858849,-7.400922319864186,0.9316116791722243
2.325795353598391,2.6605475891160215,0.5627215053314333,0.5827237684776072,-7.272173530127074,0.33018958017179867
2.352400829489551,2.587825853814751,0.5685487430162094,0.5860256642793252,-7.149375978313469,-0.2427101007753954
2.3782790880276985,2.516332094031616,0.5744089996590026,0.5835985632715712,-7.031632198509703,-0.7880919370326417
2.4034424089680146,2.446015772046519,0.5802449852917183,0.5757176439012448,-6.918286259693001,-1.3069186338929661
2.4279025666884797,2.3768329094495892,0.5860021617307307,0.5626484575623152,-6.808890667593153,-1.8001311998398637
2.451670895782976,2.3087440027736577,0.5916286463063539,0.5446471455639166,-6.703176807517192,-2.2686631734107148
2.4747583358107126,2.2417122346984857,0.5970751177619931,0.5219605138298095,-6.601028503942697,-2.7134500602805445
2.4971754581576975,2.1757019496590586,0.6022947229002912,0.49482601322700404,-6.502458362081657,-3.1354349627090516
2.518932477654288,2.110677366038242,0.6072429830325612,0.46347166359991354,-6.407586619560829,-3.535571230826124
2.5400392513146706,2.0466014998426334,0.6118776996685603,0.4281159512916523,-6.316622279545214,-3.914822829798539
2.560505266313097,1.9834352770471813,0.6161588591814768,0.38896772299366694,-6.229846325399924,-4.274162996827221
2.580339619083569,1.921136813793182,0.6200485364114136,0.34622609302539475,-6.147596835537349,-4.614571655730511
2.599550987221501,1.8596608454378085,0.6235107973416675,0.30008037646808966,-6.070255828646992,-4.937031963414218
2.618147595675879,1.7989582871513385,0.6265116011063484,0.2507100568339475,-5.998237676460325,-5.242526280809812
2.636137178547392,1.7389759103867353,0.6290187016746879,0.19828479402584936,-5.93197892531027,-5.532031789949294
2.6535269376512596,1.6796561211336325,0.6310015496149464,0.14296447612635643,-5.871929370230221,-5.806515917840746
2.670323498862596,1.6209368274313303,0.63243119437621,0.08489931694794897,-5.818544227023052,-6.06693167582732
2.686532867136909,1.5627513851610997,0.6332801875456895,0.02423000018967577,-5.772277249136655,-6.314212979280709
2.70216038098852,1.5050286126697332,0.6335224875475862,-0.03891212960313132,-5.733574637613027,-6.549269975948364
2.7172106671152174,1.4476928662936028,0.6331333662515549,-0.10440482936261497,-5.702869593992595,-6.772984381233732
2.7316875957781535,1.3906641703536768,0.6320893179579288,-0.1721346731749523,-5.680577367928227,-6.986204794393484
2.7455942374816904,1.3338583966743947,0.6303679712261793,-0.24199672111888715,-5.667090653432795,-7.189741950422542
2.7589328214484343,1.2771874901400666,0.6279480040149904,-0.3138941406231126,-5.6627751901928045,-7.384363847707264
2.771704696349835,1.2205597382381386,0.6248090626087592,-0.38773777910018525,-5.667965429310235,-7.570790680925359
2.7839102937322164,1.1638800839450363,0.6209316848177574,-0.46344568590943885,-5.682960126335974,-7.749689501866468
2.795549094571667,1.1070504826816765,0.616297227958663,-0.5409425809281035,-5.708017728775802,-7.921668527709473
2.8066195993984837,1.0499703053939184,0.610887802149382,-0.6201592662051982,-5.743351430748091,-8.087271016869146
2.817119302452423,0.9925367910864376,0.60468620948733,-0.7010319763738897,-5.789123774655988,-8.246968637055337
2.8270446703632874,0.9346455533398776,0.5976758897235911,-0.7835016627444431,-5.845440689271534,-8.401154259118705
2.8363911258966863,0.8761911464471623,0.5898408730961466,-0.8675132053356301,-5.912344866358897,-8.550134124247062
2.845153037361158,0.8170676977835734,0.5811657410427903,-0.9530145465781008,-5.989808394922098,-8.6941193520015
2.853323714338994,0.7571696138343523,0.5716355955770093,-1.0399557400981159,-6.077724594576649,-8.833216783623307
2.860895410477337,0.6963923678885858,0.5612360381760281,-1.1282879079343489,-6.175899018824918,-8.96741919026438
2.867859334156223,0.6346333777003367,0.5499531590966846,-1.2179620998369927,-6.284039636726597,-9.096594920689395
2.8742056679332264,0.5717929813330707,0.5377735380983147,-1.3089280490438866,-6.401746249258758,-9.220477119010564
2.879923597746557,0.5077755188404831,0.5246842576078758,-1.4011328202339923,-6.528499256213228,-9.33865271150956
2.8850013529349616,0.44249052627835084,0.5106729294055359,-1.4945193473490879,-6.663647962291108,-9.450551443679347
2.8894262581977452,0.37585404665543976,0.495727735932045,-1.5890248617858813,-6.806398698271425,-9.55543534486987
2.8931847986643,0.3077900596727255,0.4798374873141862,-1.68457921523458,-6.955803135247946,-9.6523891080903
2.896262699261027,0.23823202832024604,0.46299169516184036,-1.781103106315483,-7.1107472864171,-9.740311995090112
2.8986450195442295,0.16712455545607502,0.4451806640986855,-1.878506226266384,-7.269941819751325,-9.81791200854072
2.90031626509879,0.09442513725856178,0.42639560183602165,-1.9766853463517913,-7.431914442084488,-9.883703208385935
2.9012605164713756,0.0201059928377169,0.40662874837250373,-2.0755223784356507,-7.595005254066293,-9.936007179760837
2.9014615763997527,-0.055844059702946036,0.3858735245881472,-2.174882450233259,-7.75736610637257,-9.97295977343855
2.9009031358027233,-0.13341772076667174,0.36412470008581466,-2.2746120479676444,-7.916965097179233,-9.992524320963426
2.8995689585950566,-0.2125873717384641,0.3413785796061382,-2.374537291177279,-8.071597422151962,-9.992512556130373
2.897443084877672,-0.2933033459599837,0.3176332066943654,-2.4744624167385827,-8.21890380048455,-9.970614429696516
2.894510051418072,-0.3754923839648292,0.2928885825269796,-2.574168561035548,-8.356397630595806,-9.924437860586155
2.890755127578424,-0.4590563602707873,0.2671468969166241,-2.6734129396414095,-8.481501852778218,-9.851559199982924
2.886164563975716,-0.5438713787985694,0.24041276752020999,-2.7719285316412385,-8.591596190942353,-9.749584773652568
2.88072585018773,-0.6297873407079929,0.2126934822037976,-2.8694243793777643,-8.684074994689391,-9.616223299464965
2.87442797678065,-0.7166280906548869,0.18399923841001997,-2.965586612372414,-8.756415299525894,-9.449368251243794
2.867261695874101,-0.8041922436501459,0.15434337228629583,-3.0600802948848522,-8.806253975738727,-9.247188375138222
2.8592197734375997,-0.8922547834075332,0.1237425693374473,-3.1525521786362343,-8.831471974230652,-9.008223602472953
2.850297225603524,-0.9805695031498397,0.09221704755108495,-3.2426344146609636,-8.830282753397542,-8.73148261173687
2.840491530572026,-1.068872330683815,0.059790703404475315,-3.3299492407783324,-8.801321062772976,-8.416537366412767
2.829802807265188,-1.1568855413115449,0.026491210996691987,-3.41411461444246,-8.743727466473626,-8.063609210220099
2.8182339518520725,-1.2443228159762811,-0.007649935147732614,-3.4947507065446612,-8.657223426131806,-7.673640662885304
2.8057907236923096,-1.3308950502375991,-0.04259744221317923,-3.5714871131735144,-8.542171543239483,-7.248347047606979
2.792481773189934,-1.416316765669994,-0.07831231334491437,-3.643970583649584,-8.399615781747876,-6.790242589221879
2.778318605533234,-1.5003129234874728,-0.1147520191814102,-3.711873009541803,-8.231297213601104,-6.302636694696223
2.763315476298359,-1.5826258956234838,-0.15187074927682823,-3.7748993764887655,-8.039642057876577,-5.789597743150955
2.747489217342124,-1.6630223162022495,-0.1896197430417159,-3.8327953539202753,-7.827720456465876,-5.255883772135677
2.730858994180102,-1.7412995207669082,-0.22794769658091865,-3.885354191641632,-7.599176414617451,-4.706841775972812
2.713445998972433,-1.8172912849130827,-0.26680123849733495,-3.93242260940136,-7.358131443298901,-4.148279697619374
2.695273086123302,-1.8908725993460718,-0.30612546459134854,-3.9739054063775536,-7.109066446682818,-3.586317335884952
2.6763643601298415,-1.9619632638128999,-0.3458645186551241,-4.009768579736403,-6.856688073400104,-3.027224053678367
2.6567447274917124,-2.030530144546901,-0.3859622044524881,-4.040040820273187,-6.605786898606655,-2.477252160020745
2.6364394260462434,-2.0965880135329673,-0.42636261265521996,-4.064813341873394,-6.361095294282355,-1.9424750334179095
2.6154735459109135,-2.160198966475791,-0.4670107460739539,-4.084238092207572,-6.127152632468341,-1.4286384453009038
2.5938715562461554,-2.2214704928004743,-0.5078531269960296,-4.0985244766605815,-5.908184597066476,-0.9410322223732184
2.5716568513181506,-2.280552338771139,-0.5488383717626354,-4.107934798884314,-5.708001982186578,-0.484387534663049
2.5488513279304392,-2.3376323585930048,-0.5899177197514786,-4.1127786742309445,-5.5299226135213795,-0.06280294445981811
2.5254750043445093,-2.3929315847282187,-0.631045506493788,-4.113406703675543,-5.376718153455882,0.320299852391144
2.5015456884972274,-2.4466987662627773,-0.6721795735305434,-4.110203705151632,-5.250585742356833,0.6621916919598195
2.4770787008346,-2.4992046236863454,-0.7132816105820596,-4.103581788232034,-5.1531428545456714,0.9608257967900785
2.4520866545977364,-2.550736052231802,-0.75431742846438,-4.093973530264133,-5.085442522288011,1.2148058302373796
2.4265792940754185,-2.6015904774546823,-0.7952571637670214,-4.08182547196176,-5.048005260690367,1.4233368968911821
2.4005633893008715,-2.652070530061586,-0.836075418486639,-4.0675921029928475,-5.040863612108039,1.586164501274726
2.3740426840002558,-2.702479166182666,-0.8767513395165675,-4.0517304579801,-5.063615178647644,1.703506341377005
2.347017892338429,-2.7531153179691428,-0.9172686440963684,-4.03469539456633,-5.115480255265675,1.7759813711152477
2.3194867391587377,-2.8042701205217995,-0.9576155980420318,-4.016935580855177,-5.195360630247223,1.8045399200042496
2.2914440379535197,-2.856223726824272,-0.9977849538505835,-3.9988901816551348,-5.301896700718355,1.7903979070335707
2.262881800685277,-2.9092426938314553,-1.037773855667135,-3.980986202584799,-5.433520683813194,1.734977411782806
2.2337893737469625,-2.9635779006695873,-1.077583717692983,-3.963636428466971,-5.588504329590303,1.6398551318340961
2.2041535947402666,-3.01946294396549,-1.1172200819776528,-3.94723787714863,-5.765000117179356,1.5067196032391448
2.1739589653006117,-3.0771129451372836,-1.1566924607491391,-3.9321706811162387,-5.9610754147801215,1.3373375126597995
2.143187835849239,-3.136723699285085,-1.1960141675603015,-3.918797305989641,-6.174739495015682,1.133528992625563
2.111820598856388,-3.198471094235242,-1.2352021406201978,-3.907462016063385,-6.40396361874864,0.8971514603579064
2.0798358879140353,-3.2625107304227283,-1.2742767607808316,-3.898490501459806,-6.646694639486938,0.630091323450456
2.047210780609808,-3.3289776768175976,-1.3132616657954297,-3.8921895882253015,-6.900862748285998,0.3342627159290221
2.013921003841632,-3.3979863043004577,-1.3521835616776827,-3.8888469610660112,-7.164384089111374,0.011612328059686951
1.9799411407986276,-3.469630145191571,-1.391072031288343,-3.888730837785414,-7.435159040746974,-0.3358706644277318
1.9452448393467119,-3.543981735599041,-1.429959339666197,-3.8920895444296915,-7.711066996253417,-0.7061405964930885
1.9098050219907214,-3.621092405561575,-1.468880235110494,-3.8991509503946222,-7.989958485563315,-1.0970782758338287
1.8735940979351058,-3.700991990417208,-1.50787174461444,-3.9101217331529603,-8.269645489593522,-1.5064719617601185
1.8365841780309338,-3.783688445313143,-1.5469729619459698,-3.9251864527705616,-8.547890791327617,-1.9319974231684791
1.7987472935778024,-3.8691673532264192,-1.5862248264736754,-3.9445064270022465,-8.82239720428538,-2.371198153240109
1.7600556200455382,-3.957391325269273,-1.6256698907436977,-3.9682184085346477,-9.090797512945583,-2.8214668379736207
1.7204817067928455,-4.048299300398729,-1.6653520748290442,-3.996433076914384,-9.350645952227449,-3.280029196616823
1.6799987137888581,-4.141805759921003,-1.705316405598188,-4.029233368880552,-9.599412041458308,-3.743931329343925
1.638580656189648,-4.2377998803355865,-1.7456087392869934,-4.066672682173992,-9.83447756828422,-4.210031713855799
1.5962026573862922,-4.336144656018429,-1.7862754661087334,-4.108772999312549,-10.053137484567735,-4.674998979003717
1.5528412108261078,-4.436676030864106,-1.827363196101859,-4.155522989102586,-10.252605423715147,-5.135316540012617
1.5084744505174668,-4.539202085101258,-1.8689184259928848,-4.206876154502712,-10.43002447128395,-5.587295096037438
1.4630824296664542,-4.643502329814098,-1.9109871875379119,-4.262749105463087,-10.582483712904354,-6.027093856844433
1.4166474063683132,-4.749327166943141,-1.9536146785925428,-4.323020044031531,-10.707040941505115,-6.450751173252038
1.3691541346988818,-4.856397576358193,-1.9968448790328581,-4.387527555764051,-10.800751727471955,-6.854224990297715
1.3205901589353,-4.964405093632912,-2.0407201545904985,-4.4560698056670285,-10.86070484113032,-7.233443221619174
1.2709461079989708,-5.073012142044216,-2.085280852647169,-4.52840423788322,-10.88406377030813,-7.584363761978177
1.2202159865785287,-5.181852779747297,-2.130564895026001,-4.604247875503002,-10.868113803490976,-7.903043421731444
1.1683974587810557,-5.290533917782207,-2.176607373781031,-4.683278309720316,-10.810313861334057,-8.185714597989726
1.1154921196032337,-5.398637056395547,-2.2234401568782345,-4.765135455700213,-10.708351969103513,-8.42886801367019
1.0615057490392783,-5.505720576086582,-2.2710915114352366,-4.849424135836914,-10.560202985287008,-8.629339384020492
1.0064485432784125,-5.611322605939452,-2.3195857527936057,-4.935717529677119,-10.36418695363353,-8.784397440156786
0.950335317219018,-5.714964475475787,-2.3689429280903767,-5.023561504078687,-10.119026243647077,-8.891830381505658
0.8931856724642602,-5.816154737912258,-2.4191785431311637,-5.1124798078937435,-9.823899502955928,-8.950027573068239
0.8350241250851376,-5.914393732941817,-2.470303341210101,-5.201980083624425,-9.478490376057305,-8.958053174231168
0.7758801877557194,-6.00917863670239,-2.5223231420463454,-5.291560615366737,-9.083028955811601,-8.915708401827107
0.7157884013886955,-6.1000089262605055,-2.5752387482000128,-5.380717699385007,-8.638324030203936,-8.82357930101466
0.6547883121260905,-6.186392166562545,-2.629045925193863,-5.468953492395154,-8.14578436591113,-8.683067223198963
0.592924390460465,-6.267850010221656,-2.6837354601178145,-5.555784164627144,-7.607427526104755,-8.496399680496042
0.5302458903582484,-6.343924285482704,-2.739293301764086,-5.6407481614321044,-7.025875042748917,-8.266619841729035
0.4668066475034214,-6.414183035910193,-2.795700783378407,-5.723414359849395,-6.404333140483149,-7.997553628488364
0.40266481714431945,-6.478226367315024,-2.852934926976901,-5.803389896134278,-5.746558625130035,-7.693754128694713
0.33788255347116924,-6.5356919535663245,-2.9109688259382436,-5.880327437421225,-5.056809989039584,-7.36042383348943
0.272525633935506,-6.58626005345672,-2.969772100312456,-5.953931675756119,-4.339784231722479,-7.003315984420093
0.20666303340093878,-6.629657895773945,-3.029311417070017,-6.02396483560032,-3.6005403315932387,-6.628617056223273
0.14036645444319934,-6.665663299089877,-3.0895510654260203,-6.0902510061625525,-2.844410717678378,-6.242813063224616
0.07370982145230057,-6.69410740626666,-3.1504535754876457,-6.152679136794799,-2.0769024640007405,-5.85254293557798
0.0067687473896339695,-6.714876430906667,-3.2119803668555935,-6.211204566150578,-1.3035902499927199,-5.464442641106414
-0.060380016919432705,-6.727912333406595,-3.274092412517099,-6.265848992561643,-0.5300033848780596,-5.0849840107109285
-0.12765914025349867,-6.733212367255375,-3.3367509024427155,-6.316698832668752,0.2384906284454284,-4.720312347729212
-0.19499126392605243,-6.7308274609709215,-3.399917890769403,-6.363901956146044,0.996803421871687,-4.376086858961582
-0.26229953853576166,-6.720859426752205,-3.463556910330863,-6.40766282473566,1.740241410765264,-4.057327740335148
-0.3295081328032837,-6.703457012644552,-3.52763353857822,-6.4482361021390115,2.464617273188097,-3.7682733958758527
-0.39654270292972926,-6.678810839912671,-3.59211589959961,-6.48591883609777,3.1663549294634135,-3.5122507880201175
-0.463330811328856,-6.6471472906180376,-3.656975087960588,-6.521041343977972,3.8425859103977857,-3.2915613450396446
-0.5298022842350364,-6.60872143151406,-3.7221855014003675,-6.553956957428368,4.491235253178874,-3.107384233879055
-0.595889498550177,-6.563809078982271,-3.787725070974651,-6.585030799767159,5.111095311131278,-2.959698201435603
-0.6615275893399998,-6.512698125870958,-3.8535753789723226,-6.614627781781515,5.701886063874562,-2.8472226609184372
-0.7266545705987093,-6.455679265232213,-3.919721656790138,-6.643100008390699,6.264300619471678,-2.7673783254235182
-0.7912113632510315,-6.393036259037496,-3.9861526568740446,-6.670773791644934,6.800034559728527,-2.7162675433504964
-0.8551417258414065,-6.32503591344021,-4.0528603947904935,-6.697936467078439,7.31179754715998,-2.688674641260564
-0.9183920849758086,-6.251917937968611,-4.119839759461278,-6.724823213491045,7.80330515068258,-2.678087089642248
-0.9809112643554947,-6.173884886461785,-4.187087991596188,-6.751604084387467,8.279248139206551,-2.676739215426716
-1.0426501132201125,-6.09109240506972,-4.254604032440063,-6.778371476541734,8.745235550625104,-2.675681498081364
-1.1035610372708096,-6.003640049563469,-4.32238774720548,-6.805128291522547,9.207706725258983,-2.6648801598945613
-1.1635974377664442,-5.911562982310879,-4.390439030120705,-6.8317770931214925,9.673806315804953,-2.633353681284183
-1.222713067589553,-5.814824919152829,-4.45875680105192,-6.858110629934334,10.151215247984874,-2.5693548294426707
-1.2808613167810814,-5.71331276667298,-4.527337907351264,-6.88380417822876,10.647930001570435,-2.4606084539874415
-1.3379944444478111,-5.606833466657276,-4.596175949133551,-6.908410262768634,11.17198281051639,-2.294616206410305
-1.3940627791143838,-5.495113638552112,-4.665260051761237,-6.931356424832737,11.731096942583244,-2.0590388653219645
-1.4490139154999049,-5.37780266912628,-4.734573616009564,-6.951946813485956,12.332274672910321,-1.7421643628104468
-1.5027919421911677,-5.254479922397176,-4.804093084144424,-6.969368457114061,12.981321448388732,-1.3334641372026041
-1.5553367414151396,-5.124666707913289,-4.873786768715564,-6.982703098486087,13.682318416183175,-0.8242314310260801
-1.6065834084942725,-4.987843523751457,-4.943613799700425,-6.990945412796347,14.43706694472599,-0.2082823188429076
-1.656461843731787,-4.843472854304197,-5.013523253828389,-6.993028235984776,15.244542344490114,0.517316022076801
-1.704896572274829,-4.691027430859296,-5.0834535361882365,-6.987855075764008,16.10040815888377,1.3515435834893212
-1.751806846583422,-4.530023349270458,-5.153332086945877,-6.974339639929115,16.996654583834783,2.2888237708775687
-1.7971070800761266,-4.36005680343211,-5.223075483345168,-6.951451402220339,17.92143132904323,3.3186021076228074
-1.8407076481104476,-4.180842490141678,-5.292589997367371,-6.918265381144111,18.859142701623995,4.42519560840143
-1.8825160730118644,-3.9922510631254378,-5.361772651178812,-6.874013425060096,19.790857578005348,5.587990871103345
-1.9224385836431188,-3.7943424873453844,-5.430512785429413,-6.818133516349063,20.69505777545744,6.782042009633463
-1.9603820085165726,-3.58739190959081,-5.498694120592904,-6.750313096252728,21.548706790513716,7.979076249407791
-1.9962559276124807,-3.371904841685673,-5.566197251555431,-6.67052233375865,22.328572408998966,9.14886013495967
-2.0299749760293375,-3.1486191175956835,-5.632902474893018,-6.579033732409053,23.0126902090358,10.260822038677043
-2.0614611672052945,-2.9184922155053257,-5.698692812217108,-6.476425512022283,23.581821021499287,11.285778956390349
-2.0906460893603476,-2.6826740052903326,-5.763457067337331,-6.36356772245838,24.020743302122877,12.19758908272864
-2.1174728294132508,-2.4424665722691037,-5.827092744561915,-6.241591831631093,24.319236117215866,12.974554140240166
