th1 (rad),w1 (rad/s),th2 (rad),w2 (rad/s)
2.565916225488905,-2.6349139573780587,5.904566764993009,-0.704842044068234
2.5395670859151243,-2.6915647234736184,5.897518344552327,-0.7105790871017309
2.512651438680388,-2.749768281655071,5.890412553681309,-0.7150081589543388
2.4851537558638372,-2.809338792003895,5.883262472091766,-0.717723748241328
2.4570603679437983,-2.8700783725162813,5.876085234609352,-0.7182959443485871
2.4283595842186356,-2.9317785183375538,5.868902275165866,-0.716272855582534
2.39904179903526,-2.9942219641869463,5.861739546610041,-0.7111837038418671
2.369099579393391,-3.057185029958727,5.854627709571622,-0.7025426288658296
2.3385277290938036,-3.1204404826948093,5.8476022832829635,-0.6898532151226063
2.3073233242668554,-3.183760937743039,5.840703751131738,-0.6726137277221403
2.275485714889425,-3.246922807478592,5.8339776138545165,-0.6503230098822164
2.243016486814639,-3.309710787250772,5.827474383755694,-0.6224869534366875
2.2099193789421316,-3.3719228453828842,5.821249514221328,-0.5886254063237624
2.176200150488303,-3.4333756577826393,5.81536326015809,-0.5482793284772334
2.1418663939104765,-3.493910399350643,5.8098804668733175,-0.5010179526246548
2.10692728991697,-3.553398775972153,5.804870287347071,-0.44644565278517223
2.0713933021572486,-3.6117491552385026,5.800405830819219,-0.3842081753000938
2.0352758106048636,-3.6689126345769116,5.796563749066218,-0.31399785017725723
1.9985866842590945,-3.724888875936725,5.793423770564445,-0.23555737960680576
1.9613377954997273,-3.779731540323349,5.791068196768377,-0.14868180024212796
1.923540480096494,-3.833553176508365,5.789581378765956,-0.053218239182461685
1.8852049483314102,-3.886529458361572,5.789049196374131,0.050936869001207585
1.8463396537477945,-3.9389027251565127,5.789558565064143,0.16384336817567402
1.8069506264962294,-3.9909848578760427,5.7911969987458995,0.285525949964849
1.767040777917469,-4.043159619294598,5.794052258245548,0.4159857986755836
1.726609181724523,-4.095884692494417,5.798212116232304,0.5552153240293533
1.6856503347995788,-4.149693767085961,5.803764269472597,0.7032159371636761
1.6441533971287192,-4.20519914098592,5.810796428844234,0.8600188074451051
1.60210140571886,-4.26309542626384,5.819396616918684,1.0257085733012616
1.5594704514562217,-4.324165071445867,5.829653702651697,1.2004500825073863
1.516228800741763,-4.3892865448533405,5.841658203476771,1.3845184168661113
1.4723359352932297,-4.459446173511518,5.855503387645433,1.5783327215660061
1.4277414735581144,-4.535754813359611,5.8712867148610925,1.7824947174551857
1.3823839254245183,-4.619470754757046,5.889111662035645,1.9978332295165409
1.3361892178769479,-4.712030556606122,5.90908999433081,2.2254566157404407
1.2890689123108867,-4.815089855270593,5.931344560488215,2.466815609187832
1.2409180137581808,-4.930576579768228,5.956012716580093,2.7237797281419516
1.1916122479604985,-5.060759307621438,5.983250513861513,2.998730885244111
1.141004654884284,-5.208333403424672,6.013237822713954,3.294677680956723
1.0889213208500372,-5.376526323107078,6.046184599523521,3.615392001627994
1.0351560576189665,-5.569219215020708,6.0823385195398005,3.9655633799588754
0.9794638654687594,-5.791070462060516,6.121994153339389,4.350950146124955
0.9215531608481542,-6.047598338917526,6.165503654800639,4.778466005403433
0.8610771774589789,-6.345112427571507,6.213288314854673,5.25604533102344
0.7976260531832639,-6.690228461815793,6.265848768164908,5.791912278984127
0.7307237685651059,-7.088361446832875,6.323767890954749,6.392401201809676
0.6598401540967771,-7.539914919093295,6.387691902972846,7.056525406461285
0.5844410049058442,-8.031850248113804,6.458257157037459,7.764042041845042
0.5041225024247061,-8.522144168551701,6.535897577455909,8.453526532625755
0.4189010607391891,-8.921163746985991,6.620432842782167,8.996173037097781
0.32968942326932915,-9.098098714213892,6.7103945731531445,9.20500471608679
0.23870843612719023,-8.959742177680306,6.802444620314012,8.946106412638452
0.14911101435038715,-8.55518777514403,6.891905684440396,8.28646266421418
0.06355913659894684,-8.039899772632209,6.974770311082538,7.443935158532177
-0.016839861127375247,-7.541077981035422,7.0492096626678595,6.5980024424527315
-0.09225064093772947,-7.111787783890399,7.1151896870923865,5.824642968724749
-0.16336851877663347,-6.760130251997699,7.173436116779634,5.1366487035937896
-0.23096982129661048,-6.478004674888865,7.224802603815571,4.523762072188415
-0.29574986804549913,-6.254058736972803,7.270040224537455,3.970877791546524
-0.3582904554152272,-6.077881818399116,7.309749002452921,3.464041988223571
-0.41906927359921836,-5.940903305692846,7.344389422335157,2.9918381537246552
-0.4784783066561468,-5.836271955545894,7.374307803872403,2.54533285470176
-0.5368410262116058,-5.758500714139105,7.399761132419421,2.117679158993028
-0.5944260333529968,-5.703116366526855,7.420937924009351,1.7037145524861101
-0.6514571970182653,-5.66637271094348,7.437975069534212,1.2996357069248616
-0.7081209241277001,-5.645031127060421,7.45097142660346,0.902753674468664
-0.7645712353983043,-5.636198812149123,7.459998963348147,0.5113123372054668
-0.8209332235197955,-5.637213902436009,7.465112086720201,0.12435041215349185
-0.8773053625441556,-5.645568692198021,7.4663555908417365,-0.25841004832866526
-0.9337610494661358,-5.6588642171791355,7.46377149035845,-0.6366619369626303
-0.9903496916379272,-5.674790777803906,7.457404870988824,-1.0096075702707805
-1.0470975994159661,-5.691129486185304,7.447308795286116,-1.3760550609522406
-1.1040088942778192,-5.705769845180862,7.433548244676594,-1.734518767740803
-1.1610665927296278,-5.716738027038212,7.416203056999185,-2.083322862859959
-1.2182339730000098,-5.7222302513071295,7.395369828370586,-2.420704538831415
-1.2754562755130812,-5.720645752273263,7.371162782982272,-2.744911764753312
-1.3326627330358138,-5.710614444666103,7.343713665334739,-3.0542899933529877
-1.3897688774824748,-5.69101555593457,7.313170765401209,-3.3473528333046048
-1.4466790330418204,-5.6609850518646345,7.279697237068163,-3.6228332433576766
-1.5032888835604667,-5.619911388610466,7.243468904634586,-3.879713906952177
-1.5594879974465714,-5.567420694411454,7.204671765565064,-4.117237657978606
-1.615162204390686,-5.503353680534548,7.163499388985278,-4.334900733148104
-1.6701957411960313,-5.42773726643365,7.120150381653796,-4.532432933290708
-1.7244731138603677,-5.340754059638741,7.07482605232089,-4.709769363990091
-1.7778806544567551,-5.242712536299405,7.027728358680989,-4.867018334471284
-1.8303077798197491,-5.134020162392117,6.9790581753362755,-5.004429373795796
-1.8816479814436704,-5.015160932703485,6.929013881598317,-5.12236437688616
-1.9317995907707053,-4.8866780212667456,6.877790237829456,-5.221273818083624
-1.9806663709833727,-4.749161533574289,6.825577499648619,-5.3016789274781
-2.0281579863191155,-4.6032407887765885,6.772560710373838,-5.3641598244726625
-2.0741903942068816,-4.44958016658672,6.718919112129112,-5.409348904131134
-2.1186861958727485,-4.288877331730496,6.6648256230878005,-5.4379282962579385
-2.1615749691900534,-4.121862586067626,6.610446340125221,-5.450629959898018
-2.20279359505073,-3.949298173493895,6.555940040526241,-5.448236915831917
-2.2422865767856686,-3.771976548556253,6.5014576713679215,-5.431584226006278
-2.280006342271231,-3.59071688579165,6.447141829107859,-5.401558565207253
-2.3159135111291476,-3.4063594198224365,6.393126243455787,-5.359095556323731
-2.349977105327372,-3.2197575315177422,6.3395352878925495,-5.305174413718283
-2.3821746806425494,-3.0317677992726546,6.2864835437553666,-5.240809817071314
-2.412492358635276,-2.8432384868739615,6.234075445584653,-5.16704128142017
-2.4409247435040156,-2.654997118034472,6.182405032770451,-5.0849205657876
-2.4674747146843603,-2.467837880002321,6.131555827112575,-4.995497850904269
-2.4921530934843834,-2.282509603469492,6.081600848603533,-4.89980750660451
-2.5149781895190784,-2.099704992821553,6.032602773537488,-4.79885426468139
-2.535975239447294,-1.9200516475392324,5.984614230890674,-4.693600527402865
-2.5551757559226864,-1.7441052451898664,5.937678225616645,-4.58495539719997
-2.572616808374585,-1.5723450728965216,5.891828671644646,-4.473765834429867
-2.5883402591035503,-1.4051719189533676,5.847091013300347,-4.360810162251924
-2.6023919782930838,-1.2429081859065816,5.803482911677828,-4.246793961436849
-2.6148210601521495,-1.085799971269982,5.761014972063459,-4.132348248510161
-2.6256790598648494,-0.9340207862027963,5.7196914895783575,-4.0180297167428956
-2.6350192677268773,-0.7876765447632794,5.679511192410929,-3.90432274390134
-2.64289603317451,-0.6468114517687418,5.640467964971915,-3.7916428313347734
-2.6493641476921974,-0.5114144386440773,5.602551536658567,-3.6803411306619624
-2.6544782920786383,-0.3814258359949484,5.565748125351948,-3.570709730061629
-2.658292550438588,-0.2567440214545421,5.530041028051332,-3.4629874046234965
-2.660859990653133,-0.137231835193648,5.4954111540050965,-3.3573655775532614
-2.6622323090050695,-0.022722608387676826,5.461837498229564,-3.253994285524064
-2.662459535088946,0.08697430154087353,5.4292975553743235,-3.1529879877471503
-2.6615897920735376,0.19206853300019683,5.397767675496852,-3.0544311013570087
-2.659669106743536,0.2927843290039531,5.367223364483282,-2.958383183625583
-2.656741263453496,0.38935673474952315,5.337639532647026,-2.8648837134552676
-2.652847696106001,0.4820283657946356,5.308990695512474,-2.7739564503877605
-2.6480274124480543,0.5710467144466157,5.281251131008596,-2.685613369328546
-2.642316945303588,0.6566619529458033,5.254394997315311,-2.599858183940305
-2.6357503257741297,0.7391251871322415,5.228396415475908,-2.516689481960616
-2.628359073902807,0.8186871125850321,5.2032295206563015,-2.436103502341539
-2.6201722027769567,0.8955970258776242,5.178868485632886,-2.3580965878454343
-2.6112162325181805,0.9701021458898225,5.155287519754432,-2.282667348237184
-2.601515211059282,1.0424472034799428,5.1324608462720605,-2.2098185690616448
-2.591090739024483,1.1128742617914076,5.110362660581444,-2.139558899652716
-2.5799619964065688,1.1816227336954506,5.088967071584917,-2.0719043518475986
-2.568145769069614,1.2489295670893068,5.068248028066441,-2.0068796381382357
-2.555656473398721,1.315029572775963,5.048179231685059,-1.9445193748518117
-2.5425061776709614,1.3801558732902433,5.028734037936541,-1.8848691724987183
-2.528704618938059,1.4445404541738727,5.009885346211554,-1.8279866316629678
-2.5142592143963203,1.5084148017103893,4.9916054798949245,-1.7739422586569147
-2.4991750663792165,1.5720106128636082,4.9738660573083555,-1.7228203104490665
-2.4834549602505804,1.6355605639348767,4.956637854203865,-1.6747195728247801
-2.4670993546112316,1.699299124011282,4.939890658475617,-1.629754068948178
-2.450106363371119,1.763463397264999,4.923593117786136,-1.5880536868851935
-2.432471729398469,1.8282939740850621,4.907712580917284,-1.549764703426709
-2.414188789657618,1.8940357641797707,4.892214933883017,-1.5150501666277914
-2.3952484320158205,1.9609387742125002,4.87706443221674,-1.4840900793733223
-2.3756390442736954,2.029258776895069,4.862223531423006,-1.4570812989942292
-2.3553464565047446,2.0992577959537537,4.847652718433064,-1.434237030821666
-2.334353878545207,2.171204299586827,4.833310348124847,-1.4157857430550287
-2.3126418355493388,2.245372950782653,4.819152490694297,-1.4019692618708097
-2.290188106041512,2.322043702134555,4.805132798075588,-1.3930397135727213
-2.2669676690201666,2.4014999406694137,4.791202400939861,-1.3892548578814288
-2.2429526696134725,2.4840252791655257,4.777309852361046,-1.3908711955297073
-2.218112416821817,2.5698984490833823,4.763401140405749,-1.3981340269492972
-2.192413432330983,2.659385573156045,4.749419800136256,-1.4112633829558785
-2.165819576599423,2.7527288851662233,4.735307166306698,-1.4304344475480386
-2.1382922877477606,2.8501307354025114,4.721002821831218,-1.4557507705969799
-2.1097909803937354,2.9517315123072527,4.706445314125248,-1.4872082838268783
-2.080273665270663,3.0575800071376658,4.691573231286979,-1.5246480101298585
-2.0496978651992865,3.167594902747414,4.67632675118568,-1.5676956189081894
-2.0180219161718123,3.281516734455319,4.660649794996599,-1.6156869990122125
-1.9852067488272591,3.398851223633966,4.644492925006476,-1.667581335925129
-1.9512182365909194,3.518807779227979,4.627817111647225,-1.7218674479838643
-1.9160301587986397,3.6402415718968375,4.610598437167386,-1.7764758910611684
-1.8796277430796713,3.761613800695479,4.592833678256775,-1.828718417532241
-1.8420116050727164,3.8809913203585364,4.574546494081453,-1.8752859311586259
-1.8032016918691312,3.996110490916471,4.555793634769866,-1.9123415154235723
-1.7632405869599665,4.104525796926793,4.5366702196156306,-1.9357389931173745
-1.7221953289906986,4.203846308060394,4.517312829684457,-1.9413723361296775
-1.6801568659100947,4.292032022404645,4.4978991063231595,-1.9256164097317114
-1.6372365456860483,4.367687297280971,4.478642942225842,-1.8857688643984754
-1.5935596727132386,4.43026956083749,4.459785253581857,-1.820374619477454
-1.5492569771048637,4.480146501006983,4.441581507387083,-1.7293346662207756
-1.5044555120947938,4.518483728225076,4.424288160724875,-1.6137701120658374
-1.459270674812543,4.54700339120469,4.408150459604217,-1.4756964903315481
-1.4138006409004962,4.567690627843402,4.393393494700901,-1.3176169110303448
-1.368123734622062,4.582523841298741,4.380217325590598,-1.1421432350853857
-1.3222984962090747,4.593276137560242,4.368795893239744,-0.9517149275657695
-1.2763657348334723,4.601400366003034,4.3592787439640865,-0.748435890301689
-1.230351731173442,4.6079854127755695,4.35179438506107,-0.5340138256256195
-1.1842718770456864,4.6137611785407096,4.3464542468048135,-0.30977131361373544
-1.1381342652602793,4.619130262013866,4.343356533668676,-0.07669779688407241
-1.0919429626401407,4.6242099510150885,4.342589555699836,0.16448103645034037
-1.0457008631299898,4.6288744400887865,4.344234366064339,0.41323142305560334
-0.999412118729102,4.63279224580193,4.348366680294895,0.6691452778694593
-0.9530841962710827,4.635457133727433,4.355058133073589,0.9318829722086885
-0.9067296249338084,4.636212778734682,4.364376962795676,1.2011259817417412
-0.8603674971464615,4.634272305080599,4.376388222613094,1.47653902822604
-0.8140247740956555,4.628734187334465,4.391153612895354,1.7577409400172908
-0.767737432222311,4.618596007780854,4.408731022295527,2.0442834867447774
-0.7215514721445024,4.602767421942936,4.429173857162975,2.3356376562547
-0.6755237979250731,4.580083465977016,4.452530233725522,2.631187094445574
-0.629722963265303,4.549319085951941,4.478842104669978,2.930228644146303
-0.5842297724057836,4.509205492504614,4.508144391111441,3.231980059348042
-0.5391377174807375,4.458448647283609,4.540464191704921,3.5355950195238584
-0.4945532310079014,4.395749870116559,4.57582014190016,3.8401855223833183
-0.4505957323067358,4.319828221360581,4.614221997123994,4.144851598479871
-0.40739745009312994,4.229443972187503,4.6556705131087925,4.4487180816947625
-0.3651030103712549,4.123422144467803,4.70015769392574,4.7509779068677735
-0.3238687889265769,4.000674808084202,4.747667472994418,5.050941116543342
-0.28386204084573485,3.8602206023880052,4.798176884159851,5.348088472473621
-0.24525983482185482,3.701199844331551,4.851657768884587,5.642128310531581
-0.2082478363785393,3.522883652532146,4.908079051989903,5.933055062916246
-0.17301899985321784,3.324675822128474,4.967409602619066,6.221207681149383
-0.13977224163193308,3.1061068235395197,5.0296216794305595,6.507325950451229
-0.10871117339653788,2.866820415299196,5.0946949389350715,6.79260220717478
-0.08004296924354593,2.6065552098048257,5.162620961006819,7.0787248845200645
-0.05397741714549767,2.3251265735808793,5.23340820985202,7.367907914720732
-0.030726151409688877,2.022419338909454,5.307087288999227,7.6628950201255535
-0.010501958020594337,1.698410523488172,5.383716239200483,7.966918019402427
0.006482147214287384,1.3532563776087334,5.463385419394507,8.283569421345229
0.020014710990374718,0.9875041877832496,5.5462211136079596,8.616515104082024
0.029889752868207213,0.602532865065605,5.63238626464878,8.96891308994682
0.03591508151886326,0.20139306238414773,5.722075395548248,9.342309983366814
0.037929012142704735,-0.20970137255803634,5.815498495381916,9.734666311583544
0.035831998417124374,-0.6189508348011081,5.912845158497751,10.137102610113088
0.029642490069113292,-1.0055948726259611,6.014216184598881,10.5292722588992
0.019586541342853682,-1.336644164239955,6.119508907187873,10.874688498454354
0.006220099700454132,-1.5672408349533906,6.228255792172416,11.120648339484948
-0.009452308649079776,-1.6505931357875514,6.339462275567266,11.21072628388633
-0.02595824000695529,-1.5592990847052377,6.45156953840613,11.11232766301291
-0.041551230854007665,-1.3045185876758043,6.562692815036259,10.841224076788208
-0.05459641673076571,-0.931841428726315,6.671105055804142,10.455183273334141
-0.06391483101802886,-0.4961020287216431,6.775656888537483,10.020627433401076
-0.06887585130524529,-0.040034016918463644,6.875863162871494,9.585713879982903
-0.06927619147442993,0.4109437436403586,6.971720301671323,9.175123891240823
-0.06516675403802634,0.8444162619735989,7.063471540583731,8.79684393001607
-0.05672259141829035,1.2553913306235918,7.151439979883892,8.44992940609938
-0.04416867811205443,1.64245187604727,7.235939273944886,8.12959601663949
-0.02774415935158173,2.005645797215069,7.317235234111281,7.829895569716355
-0.00768770137943104,2.3454688229718057,7.395534189808444,7.544952029953558
0.015766986850287018,2.6624305395871914,7.47098371010798,7.269469807133657
0.04239129224615894,2.956907778108875,7.543678408179317,6.998906513934136
0.07196037002724769,3.229131850252273,7.6136674733186585,6.729502026988673
0.10425168852977042,3.479233378848952,7.680962493588545,6.4582510483101165
0.13904402231825994,3.7073072838565397,7.745545004071646,6.182855921601882
0.17611709515682533,3.913479428041687,7.807373563287665,5.901673351705235
0.21525188943724222,4.097965680452648,7.866390296804717,5.613658730216679
0.2562315462417687,4.261118834281649,7.922526884106883,5.318308024923545
0.2988427345845852,4.403461376744065,7.975709964356119,5.015596302253137
0.3428773483520259,4.525703690285131,8.02586592737865,4.705912307079479
0.3881343852548772,4.6287483643926075,8.072925050449445,4.389989326403458
0.4344218688988033,4.713682110564599,8.11682494371348,4.068833408500782
0.4815586900044493,4.781757360309209,8.157513277798488,3.743650691986701
0.5293762636075414,4.8343659980370886,8.194949784718355,3.415776025398371
0.5777199235879124,4.87300783877275,8.229107544972338,3.086605201357957
0.6264500019756398,4.899256414959893,8.259973596985917,2.7575330098523763
0.6754425661252388,4.914724411572064,8.28754892708444,2.429898982935358
0.7245898102409595,4.92103072110503,8.311847916913795,2.1049422270368146
0.7738001174520097,4.91977062419895,8.332897339184163,1.7837661958758078
0.8229978236939992,4.912490083225331,8.35073500114292,1.467313722481458
0.8721227245262525,4.9006646058067,8.365408138367735,1.1563521706102922
0.9211293705843195,4.88568262336802,8.376971660073838,0.8514682387252814
0.9699861968179997,4.8688328530852365,8.38548634246109,0.5530717940879368
1.018674525348852,4.851294671027405,8.39101706040197,0.2614081576232705
1.0671874720591261,4.834130105487867,8.393631141978203,-0.023421480734666655
1.115528773114005,4.818275635070506,8.393396927170857,-0.3014313508370727
1.16371152946471,4.804531511269935,8.390382613662485,-0.5727132128043518
1.2117568445774094,4.793545789312128,8.384655481534441,-0.8373874669467172
1.2596923024705307,4.785789639966098,8.376281606864975,-1.0955403253231455
1.3075501988701916,4.781519896553588,8.365326203611744,-1.34714295898338
1.3553653978357276,4.78072438869604,8.351854774021911,-1.591947708327542
1.403172641722688,4.783045950947538,8.335935296938635,-1.8293567056496682
1.4510031012321634,4.787683109197078,8.317641729882139,-2.0582610881265038
1.4988799323241342,4.793271123674286,8.297059119000874,-2.276856884996503
1.546812643560877,4.7977588219956315,8.274290550150909,-2.482460157075636
