th1 (rad),w1 (rad/s),th2 (rad),w2 (rad/s)
5.2167870540132695,-2.3450152068596624,4.635905155687907,-2.4285453213255357
5.193336901944673,-2.320181189994437,4.611619702474652,-2.321415619904088
5.170135090044729,-2.291011893736055,4.588405546275611,-2.2187055797598645
5.147224971107368,-2.2576570335088646,4.566218490478013,-2.120486059128049
5.12464840077228,-2.220270275599209,4.545013629886732,-2.026807349779038
5.102445698016288,-2.179007505589595,4.524745556388941,-1.9376995548087927
5.080655622960392,-2.1340254915106946,4.505368560840854,-1.8531729897008555
5.059315368045285,-2.085480873629615,4.486836830943845,-1.7732186465083601
5.038460559308988,-2.0335294200577674,4.469104644478761,-1.6978087472136
5.01812526510841,-1.9783254940602413,4.452126557006625,-1.6268974013697683
4.998342010167808,-1.9200216853628325,4.435857582992927,-1.5604213743042032
4.97914179331418,-1.8587685640636744,4.4202533692498855,-1.4983009649035115
4.960554107673543,-1.7947145220484233,4.40527035960085,-1.4404409858976583
4.942606962453059,-1.7280056730803965,4.390865949741873,-1.386731834344806
4.9253269057222555,-1.658785788918219,4.3769986313984255,-1.3370506355511456
4.908739047833073,-1.587196254778071,4.363628125042914,-1.2912624399058044
4.8928670852852925,-1.5133760330457664,4.350715500643856,-1.2492214491150966
4.877733324954835,-1.4374616291814082,4.338223286152705,-1.2107722461779893
4.863358708663021,-1.3595870580772251,4.326115563690926,-1.175751002271047
4.849762838082248,-1.2798838125814744,4.314358053668215,-1.1439866336139253
4.836963999956433,-1.1984808383800267,4.302918187332076,-1.115301882441763
4.824979191572633,-1.1155045208733123,4.291765168507658,-1.089514298444972
4.8138241463639,-1.0310786900954472,4.280870025523209,-1.0664371004157958
4.803513359462945,-0.9453246491464843,4.27020565451905,-1.0458799022658714
4.79406011297148,-0.858361230152803,4.259746855496392,-1.0276492928893797
4.785476500669952,-0.770304879585958,4.249470362567498,-1.0115492653276121
4.777773451874093,-0.6812697720454921,4.239354869914222,-0.9973814970855143
4.770960754153638,-0.5913679485619364,4.229381054943367,-0.9849454899716528
4.7650470746680185,-0.5007094723346864,4.219531600043651,-0.9740385841758777
4.760039979944672,-0.40940259182430033,4.209791214201893,-0.9644558671549636
4.755945954026429,-0.31755389850557025,4.200146655530343,-0.9559900029637782
4.752770415041374,-0.22526846457980426,4.190586755500705,-0.9484310116637553
4.7505177303955755,-0.13264994474391964,4.1811024453840675,-0.9415660311060667
4.749191230948136,-0.03980062589040738,4.171686785073007,-0.935179094509538
4.748793224689232,0.053178590506544124,4.162334994127911,-0.9290509566742293
4.749325010594297,0.14618828650499877,4.1530444845611685,-0.9229589993041413
4.750786893459347,0.23913071625487756,4.143814894568127,-0.9166772417599935
4.753178200621896,0.3319100906000155,4.134648122150527,-0.9099764777356012
4.756497301527896,0.42443295802358066,4.125548357373171,-0.902624551078817
4.760741631108132,0.5166086762448743,4.116522111862383,-0.8943867756149991
4.765907717870581,0.6083499624184078,4.107578244106233,-0.8850264948506725
4.771991217494765,0.6995735035635373,4.098727979157727,-0.87430576840845
4.778986952530401,0.7902006030020348,4.089984921473643,-0.8619861636039219
4.7868889585604215,0.8801578336405198,4.081365059837603,-0.8478296233650998
4.795690536896827,0.9693776653019196,4.072886763603952,-0.8315993763107683
4.805384313549847,1.0577990312969656,4.064570769840844,-0.8130608517308054
4.8159623038628165,1.1453677992213485,4.056440161323536,-0.7919825617674967
4.82741598185503,1.2320371126043055,4.048520335705861,-0.7681369153926665
4.839736352981073,1.31776757339769,4.040838966551934,-0.7413009336953624
4.85291402871505,1.4025272401079294,4.03342595721498,-0.7112568432047095
4.86693930111613,1.4862914222416848,4.026313388782933,-0.6777925329540901
4.8818022153385465,1.5690422581861734,4.019535463453392,-0.6407018710993158
4.897492637920409,1.6507680701783545,4.013128444742399,-0.5997848874289369
4.914000318622192,1.731462496163658,4.00713059586811,-0.5548478383559762
4.931314943583829,1.8111234037118455,4.00158211748455,-0.5057031803409141
4.949426177620948,1.8897515954651944,3.996525085681141,-0.45216948567494764
4.9683236935756,1.9673493186962845,3.9920033908243915,-0.39407134081224215
4.987997186762563,2.0439185934405364,3.988062677416269,-0.3312392717991059
5.008436372696968,2.119459374460433,3.984750284698278,-0.2635097437671179
5.029630966441572,2.193967562217333,3.982115187260607,-0.19072528200683903
5.051570642063745,2.2674328773731385,3.9802079344405383,-0.11273476095962444
5.074244970837476,2.3398366124645262,3.9790805868309422,-0.029393904725852557
5.097643336962122,2.411149273651511,3.9787866477836835,0.05943396145386187
5.121754829698637,2.4813281251970687,3.979380987398222,0.15387687471688472
5.146568110950608,2.5503146499155043,3.980919756145391,0.25405288573250207
5.172071257449763,2.618031940521751,3.9834602850027157,0.3600683780465379
5.198251576854981,2.684382039854841,3.987060968783181,0.47201604543491715
5.225095397253529,2.74924325250503,3.99178112923753,0.5899725278393354
5.252587829778579,2.812467456539621,3.9976808545159233,0.7139957188862809
5.280712504343976,2.8738774518057606,4.004820811704786,0.8441217722777066
5.309451278862033,2.9332643905979108,4.013262029427563,0.9803618506403821
5.3387839227680125,2.99038534710523,4.023065647933967,1.122698678808699
5.368687776239065,3.044961093655831,4.034292634722054,1.2710829839487445
5.399137387175623,3.0966741638509254,4.047003464561541,1.42542992719858
5.430104128814132,3.1451672945576368,4.061257763833527,1.5856156551778793
5.461555801759708,3.190042349541353,4.077113920385306,1.7514741241367369
5.493456225255121,3.2308598362094347,4.094628661626674,1.9227943737194653
5.525764823617216,3.267139132264156,4.1138566053638685,2.099318450079346
5.558436214939857,3.2983595396201517,4.134849789864662,2.2807401978864625
5.591419810336059,3.3239622772156436,4.157657191843526,2.466705155884349
5.624659433108215,3.3433535107874612,4.18232424340237,2.6568117991801903
5.65809296821609,3.35590849480896,4.208892361394172,2.8506143714675027
5.69165205316418,3.360976868337335,4.237398505108847,3.0476275400672606
5.725261821847553,3.3578891015885284,4.267874780509519,3.247333084533646
5.758840712863439,3.3459640333279452,4.300348111354856,3.449188794646611
5.792300353196718,3.324517371083452,4.334839999301321,3.6526397057430953
5.825545526907552,3.2928709481874385,4.371366396358752,3.857131739414758
5.858474236389426,3.25036244634147,4.4099377137529,4.062127747807561
5.890977860852841,3.1963552036833764,4.4505589912309755,4.267125883749871
5.922941412889674,3.130247641504935,4.493230250068474,4.471680141883091
5.954243889304724,3.051481764431219,4.537947051487305,4.675422844413823
5.9847587069490364,2.959550126836347,4.584701279931443,4.878088786499859
6.0143542082174,2.854000621353812,4.6334821677964415,5.079540718070716
6.042894214430937,2.734438443297844,4.684277574977148,5.279795826948548
6.070238598863916,2.6005246286676886,4.737075533246633,5.4790529042870935
6.0962438451505925,2.4519706667437906,4.791866062289504,5.677719911369971
6.120763551818031,2.2885288704682183,4.848643261403204,5.876441706143985
6.1436488405227125,2.1099784807439415,4.907407678464644,6.07612768315208
6.1647486253301516,1.916107942044475,4.968168955296164,6.277978943674865
6.183909704750596,1.7066945237212465,5.030948744732913,6.483514181229705
6.200976649987809,1.4814836751635982,5.0957838865452105,6.694592446453904
6.2157914867394455,1.2401725658656053,5.16272981100975,6.913428814136977
6.228193212398102,0.9824058526804752,5.231864099151119,7.142594761159463
6.238017270924907,0.7077980499926539,5.303290046762714,7.3849870820675845
6.245095251424833,0.41600805621163034,5.37713991758339,7.643734468917373
6.24925533198695,0.10691084523175365,5.453577262272564,7.921984583243385
6.250324440439267,-0.2190559976994212,5.532797108104997,8.222469355213411
6.248133880462273,-0.5602424794428595,5.615021801657131,8.54667475166736
6.242531455667844,-0.9126393466245308,5.700488549173805,8.893346125871146
6.233405062201599,-1.2679994737990343,5.789422010432516,9.255991801196686
6.220725067463609,-1.6111204850642675,5.881981928444483,9.619199181903328
6.204613862612966,-1.9168355603092326,5.978173920263516,9.954438590404097
6.185445507009874,-2.1489379927426877,6.077718306167557,10.21829473926522
6.163956127082447,-2.2655426997093273,6.179901253560209,10.359183035063143
6.1413007000853534,-2.2344108986621944,6.283493083910841,10.337340664190743
6.118956591098732,-2.0518904658437807,6.386866490552748,10.149556935529354
6.098437686440294,-1.7479243944500023,6.488362059908042,9.835146663937707
6.080958442495794,-1.3696742651314346,6.586713526547419,9.453708747191856
6.0672616998444795,-0.9599230692851919,6.681250614019337,9.056874969652137
6.057662469151627,-0.5470134455425544,6.771819363715858,8.676083574342487
6.052192334696202,-0.14596036950652497,6.858580199459283,8.325066491046982
6.050732731001137,0.23677810388628168,6.941830864369752,8.006687252659145
6.053100512039999,0.5992443706939096,7.021897736896344,7.718439485146145
6.059092955746938,0.9415020632319331,7.099082131747806,7.455675291289022
6.068507976379258,1.2643390382847568,7.173638884660696,7.213223773149235
6.081151366762105,1.5686566767473726,7.245771122392188,6.986115396431778
6.096837933529579,1.8552162001837074,7.3156322763565065,6.769865142911288
6.115390095531416,2.1245600338741673,7.383330927785619,6.560554990481512
6.136635695870158,2.377015078749353,7.448936477690434,6.354832961796576
6.1604058466576515,2.6127318263161725,7.512484807308399,6.149882489380436
6.186533164920813,2.831736822675193,7.573983632202204,5.943384948654337
6.2148505331475645,3.033987468637302,7.633417481688747,5.733483720604943
6.245190407833937,3.219423660792617,7.690752318894797,5.518751641610676
6.277384644441863,3.3880134361914376,7.745939835310903,5.2981610280503775
6.3112647788037775,3.5397911103150785,7.798921445591406,5.071054622201744
6.346662689906928,3.6748871325749293,7.849631991813424,4.837115825168171
6.383411561232678,3.7935493701295573,7.898003150065105,4.596336986425314
6.421347054933974,3.89615591795304,7.943966519929359,4.348985065633872
6.460308614113504,3.983219873194989,7.987456370585697,4.095564540501483
6.500140812845454,4.055386812376991,8.028412015990712,3.836777931564098
6.540694680969224,4.113425960414087,8.066779795306353,3.573484709788349
6.581828940573366,4.1582162267756235,8.102514642404236,3.3066596256554566
6.623411102841122,4.1907283957915675,8.13558123866079,3.037351643759056
6.665318386799038,4.212004791139942,8.165954755098381,2.7666446913683496
6.707438434710437,4.223137691850665,8.193621202012064,2.4956213480513454
6.7496698116289435,4.225247667719941,8.218577415492577,2.2253304377004874
6.791922288306143,4.219462839315042,8.240830719869582,1.9567592593341012
6.834116916699293,4.206899867883508,8.260398312462923,1.6908109355538605
6.876185915378128,4.188647260413503,8.277306421818462,1.4282870935851415
6.918072387982264,4.165751350919611,8.291589292754313,1.1698758469423793
6.9597299014914595,4.13920510455929,8.303288051223737,0.9161448354060183
7.001121952537052,4.109939696843058,8.312449499577797,0.6675389215692017
7.042221349505483,4.078818652332632,8.319124888793489,0.4243820427163255
7.0830095360288094,4.046634187836931,8.323368709220652,0.1868826812148905
7.123475877907179,4.014105292046506,8.325237536032802,-0.04485755511787656
7.163616930827644,3.981876980939798,8.324788960481623,-0.2708326617666016
7.2034357006370415,3.950520087377309,8.322080633863957,-0.491118547693841
7.242940901510814,3.9205308633740725,8.317169448387018,-0.7058569988238645
7.282146210144555,3.892329583293302,8.31011087839878,-0.9152371157346598
7.321069505977488,3.866257225647277,8.300958507241432,-1.1194737482672517
7.359732078233961,3.842569174912622,8.28976376975876,-1.3187821113375175
7.398157769983087,3.8214247277111193,8.276575948645386,-1.5133474056634302
7.436372017260198,3.802871035462595,8.261442474588751,-1.7032879278358264
7.474400727614824,3.7868200319579275,8.244409595310392,-1.888609929635859
7.512268927934403,3.773017008946605,8.225523496014034,-2.069152559316413
7.549999098023869,3.761000050200694,8.20483197042087,-2.2445219137553947
7.587609098525876,3.750050895575525,8.182386751283316,-2.4140150778458076
7.625109607481631,3.7391405231401804,8.158246600504858,-2.5765387752736353
7.662501012713033,3.726877421666032,8.132481212752122,-2.7305337453130885
7.699769786929694,3.711473518260085,8.105175875298992,-2.873925648917508
7.736884522112295,3.6907513122501148,8.076436618809817,-3.0041351653342883
7.773792035234796,3.6622229114855913,8.046395267156473,-3.118189687098455
7.810414264349652,3.6232708805604874,8.015213370285489,-3.212977553052514
7.846646973155257,3.5714430554772023,7.983083594754963,-3.28566046407857
7.8823614037100285,3.5048329480632896,7.950226990114177,-3.334202632451314
7.917409733190661,3.4224622733880286,7.916884963789664,-3.357898140578606
7.951634355924542,3.3245419623621317,7.883305982383877,-3.3577225548029532
7.984879775548163,3.2125011995406045,7.849728756835848,-3.3363549308368414
8.017004787543568,3.088753211848181,7.81636520752748,-3.2978291313155585
8.04789231966205,2.956273024723768,7.783386916214324,-3.246923621252312
8.077455049909288,2.818129365723661,7.750917680001801,-3.188492264926547
8.105636343566525,2.677103279473572,7.719032757352536,-3.126923443861351
8.132407376361261,2.5354609849795713,7.687763522913922,-3.065821703887499
8.157761986211057,2.394878322664339,7.657105305875048,-3.0079064825398465
8.1817107694377,2.256473322390197,7.627026241049649,-2.9550649190529312
8.204275502661602,2.1208956390605938,7.59747559185912,-2.9084851699305223
8.225484459052208,1.988433017451061,7.568390740159815,-2.8688132356553706
8.245368789226719,1.8591111712607684,7.539702607803261,-2.8362995833794553
8.263959900939327,1.7327766795449073,7.511339611969467,-2.8109207593071233
8.281287667734775,1.6091607222312987,7.483230404376395,-2.792472926732578
8.297379274957088,1.4879255466714039,7.455305675109069,-2.7806400774092674
8.3122585304238,1.3686970047208702,7.427499274334976,-2.7750417288929587
8.32594550047101,1.2510865827433686,7.399748857046046,-2.7752650356758584
8.338456366298443,1.1347058603220779,7.371996206689288,-2.780885542642909
8.349803424901664,1.0191757001343915,7.344187351262859,-2.7914798996366312
8.359995181903008,0.904131881266329,7.316272552266493,-2.806633007413982
8.369036500715671,0.789228406235287,7.288206222192353,-2.825941371503733
8.376928784778023,0.6741393448503576,7.2599468084773155,-2.8490139115499997
8.383670178226527,0.5585598098160918,7.231456669361815,-2.875471087321385
8.389255776324688,0.442206468118401,7.202701958488602,-2.904942928230317
8.393677841005873,0.32481785863789686,7.173652529206298,-2.937066362537022
8.396926019592252,0.20615469377729176,7.144281865580928,-2.9714821123041046
8.398987566530025,0.08600025874698876,7.114567044457887,-3.0078313330934234
8.399847569117494,-0.03583902255080787,7.084488731126953,-3.0457521205840443
8.399489178891987,-0.15953281784242906,7.054031209921113,-3.08487597065684
8.397893850713562,-0.2852258991441451,7.023182450214544,-3.124824258672521
8.395041591722121,-0.41303694198291424,6.991934207627819,-3.165204793230713
8.390911222302291,-0.5430571303849114,6.960282159695511,-3.205608496536819
8.385480650998442,-0.6753486001830973,6.928226074730143,-3.2456062654152804
8.378727164996612,-0.8099427658107635,6.895770012075991,-3.2847460723671618
8.370627737338504,-0.9468385881608845,6.862922551352319,-3.3225503736069744
8.361159351456894,-1.086000853513288,6.829697047616249,-3.35851389965628
8.350299342921762,-1.2273585459172989,6.796111908619686,-3.3921019128369028
8.338025757462589,-1.3708034075002151,6.7621908894913165,-3.422749023930325
8.324317723387587,-1.516188792494355,6.727963399252014,-3.4498586663666897
8.309155835462644,-1.6633289307185393,6.6934648125883465,-3.472803329556633
8.292522546155459,-1.811998724067578,6.65873677929278,-3.490925652335704
8.274402558914783,-1.9619342044254073,6.623827522769423,-3.503540471910716
8.254783216870528,-2.112833782462813,6.588792118050316,-3.5099379121831613
8.2336548790459,-2.264360413179437,6.5536927389284845,-3.50938757698268
8.211011274914107,-2.4161447950725,6.518598863158657,-3.501143887843634
8.186849826963382,-2.567789704902592,6.483587424280221,-3.484452571996241
8.161171929914357,-2.718875548859048,6.448742898560258,-3.458558263999316
8.133983174425767,-2.868967183480103,6.414157315920265,-3.422713134025369
8.105293502590966,-3.0176220262790747,6.379930184580012,-3.376186397706407
8.075117282328176,-3.16439943737837,6.346168320602947,-3.318274497562437
8.043473287954392,-3.308871310697137,6.312985575627323,-3.2483116757306645
8.01038457484742,-3.4506337679892156,6.280502458870016,-3.16568058388341
7.975878237167527,-3.589319803435097,6.248845653031182,-3.0698225013580176
7.939985039133176,-3.7246126833191364,6.218147428017602,-2.9602466597866104
7.902738912299984,-3.856259868035891,6.188544961419736,-2.836538105781442
7.864176313619625,-3.984087196495905,6.1601795803619215,-2.6983634770296447
7.824335441654666,-4.108013060930047,6.133195945591625,-2.545474026434139
7.783255311045366,-4.228062308737218,6.107741205327284,-2.37770520862314
7.740974687957994,-4.3443796433013295,6.083964153241053,-2.194972147377697
7.6975308915249805,-4.457242363287397,6.062014431767276,-1.997260333671951
7.652958467892106,-4.567072384433458,6.042041828430556,-1.784610961634288
7.607287744047771,-4.6744476318408354,6.024195718814213,-1.557100389710664
7.560543267729363,-4.780113073500189,6.008624714917106,-1.3148133087888263
7.512742136994361,-4.8849918817459415,5.995476581829218,-1.0578092978280227
7.463892218176902,-4.990197445982179,5.984898488850938,-0.786082542101775
7.41399024371708,-5.097047193919361,5.97703766342992,-0.49951458101599605
7.3630197717778865,-5.207079367302664,5.9720425176197605,-0.1978200691314015
7.31094897810486,-5.322073963318626,5.970064316928447,0.11951424113236697
7.257728238471674,-5.444078844257973,5.9712594593397705,0.4532965577529135
7.2032874500290935,-5.575441238853859,5.9757924249173,0.8047011597137981
7.147533037640555,-5.718842913153037,5.983839436514438,1.175338739238279
7.0903446085090245,-5.877332972912635,5.99559282390682,1.567315009224517
7.031571278779898,-6.054343146045657,6.011265973999065,1.9832536836180803
6.971027847319442,-6.2536516442173875,6.031098510835246,2.42623337755598
6.9084913308772675,-6.479223935634563,6.055360844610806,2.8995345745700045
6.8436990915209215,-6.734784890363571,6.084356190356505,3.405988666592128
6.776351242617285,-7.022840150717041,6.1184160770224265,3.9465292255677618
6.706122841110115,-7.342641823179333,6.157881369278104,4.517234620576979
6.632696422878321,-7.686342699518062,6.203053715483874,5.103806097674243
6.55583299588314,-8.032724991949982,6.254091776460616,5.6726466202928005
6.47550574596364,-8.339827052620727,6.310818242663544,6.160481206549275
6.392107475437433,-8.543839492792873,6.372423054729037,6.473053153532946
6.306669080509504,-8.57901310191936,6.437153586264366,6.513854398245999
6.22087894949031,-8.421227681897802,6.502292130246826,6.246617361885098
6.136666672671332,-8.114642055377136,6.564758303865677,5.7338442284050055
6.05552025211756,-7.740551128450992,6.622096746149727,5.092924498051119
5.978114740833051,-7.366126855584313,6.673025991130238,4.422827495201045
5.904453472277208,-7.02598528217631,6.717254266082249,3.7768821158554475
5.834193619455444,-6.730808974248176,6.7550230872408035,3.174250229391991
5.766885529712963,-6.479547922887333,6.786765589534723,2.6169885172976683
5.702090050484089,-6.266842107227534,6.8129354747077,2.100625194340586
5.639421629411814,-6.086397138367687,6.833941726651106,1.61908575433532
5.578557658028137,-5.93225727049747,6.850132584194459,1.166633081321669
