th1 (rad),w1 (rad/s),th2 (rad),w2 (rad/s),a1 (rad/s^2),a2 (rad/s^2)
3.0588687879097463,2.005742386240404,0.7326493434357512,-0.7304345962123061,-2.937271568522838,-5.639759205456518
3.07892621177215,1.9763696705551754,0.7253449974736281,-0.7868321882668713,-2.860640690916571,-5.749549367926632
3.0986899084777018,1.9477632636460098,0.7174766755909594,-0.8443276819461376,-2.783834870629349,-5.845793330729913
3.118167541114162,1.9199249149397164,0.7090333987714981,-0.9027856152534367,-2.7057711775334448,-5.9277119028195475
3.137366790263559,1.892867203164382,0.7000055426189637,-0.9620627342816321,-2.6251917798680706,-5.994285872595887
3.156295462295203,1.8666152853657014,0.6903849152761474,-1.022005593007591,-2.540646304424427,-6.0442349601438385
3.17496161514886,1.841208822321457,0.6801648593460715,-1.0824479426090294,-2.450475953197344,-6.075999165644733
3.1933737033720746,1.8167040627894837,0.6693403799199812,-1.1432079342654768,-2.3528009114938753,-6.087724618702749
3.2115407439999695,1.793176053674545,0.6579083005773264,-1.2040851804525043,-2.245513095290335,-6.0772567102247015
3.229472504536715,1.7707209227216416,0.6458674487728013,-1.2648577475547513,-2.126276865122116,-6.04214405695854
3.2471797137639316,1.7494581540704204,0.6332188712972538,-1.3252791881243366,-1.9925409457977346,-5.979657664273025
3.2646742953046357,1.729532744612443,0.6199660794160105,-1.3850757647670668,-1.8415653723608763,-5.886830431950321
3.28196962275076,1.7111170908888342,0.6061153217683398,-1.4439440690865701,-1.67046773088624,-5.7605227557404435
3.2990807936596482,1.6944124135799719,0.5916758810774742,-1.5015492966439745,-1.4762931292364478,-5.597520216757478
3.316024917795448,1.6796494822876074,0.5766603881110344,-1.5575244988115493,-1.2561120203228182,-5.394668957803064
3.3328214126183244,1.6670883620843793,0.5610851431229189,-1.61147118838958,-1.007148971427432,-5.149053001645705
3.3494922962391684,1.6570168723701049,0.5449704312390231,-1.662961718406037,-0.7269434785532491,-4.858215133394546
3.3660624649628694,1.6497474375845724,0.5283408140549627,-1.7115438697399825,-0.4135407573479445,-4.520418761428487
3.3825599393387153,1.645612030011093,0.5112253753575629,-1.7567480573542673,-0.0657060204390861,-4.134942265953436
3.3990160596388264,1.644954969806702,0.49365789478402017,-1.7980974800138017,0.3168497720681439,-3.7023899267490283
3.4154656093368936,1.6481234675273835,0.4756769199838822,-1.835121379281292,0.733250826345458,-3.224995239475962
3.431946844012167,1.655455975790838,0.45732570619106927,-1.8673713316760516,1.1812680305050656,-2.7068845006317876
3.4485014037700754,1.6672686560958887,0.4386519928743088,-1.8944401766823695,1.6571891522977933,-2.1542627391799773
3.4651740903310344,1.6838405476188667,0.41970759110748507,-1.9159828040741693,2.155776709618908,-1.5754825132518777
3.482012495807223,1.7053983147150558,0.4005477630667434,-1.9317376292066881,2.670338722299422,-0.9809607660570306
3.4990664789543735,1.73210170193805,0.3812303867746765,-1.9415472368672584,3.1929282330004294,-0.38292104865009535
3.516387495973754,1.7640309842680544,0.36181491440600394,-1.9453764473537594,3.7146729199812643,0.20504232542535858
3.5340278058164345,1.801177713467867,0.34236114993246636,-1.9433260240995058,4.226218081848956,0.768557481768575
3.5520395829511133,1.8434398942863566,0.3229278896914713,-1.93564044928182,4.718247913079337,1.2931799321324007
3.570473981893977,1.89062237341715,0.30357148519865307,-1.922708649960496,5.182035246489896,1.7651432387819281
3.5893802056281485,1.942442725882049,0.2843443986990481,-1.9050572175726768,5.609962477762119,2.1720783831952755
3.608804632886969,1.99854235065967,0.26529382652332134,-1.883336433740724,5.995958433873007,2.5036263918469532
3.6287900563935658,2.0585019349984,0.2464604621859141,-1.8583001698222543,6.335807475424341,2.751883060144935
3.6493750757435497,2.1218600097526434,0.22787746048769156,-1.830781339220805,6.6273057495041385,2.9116386630721034
3.670593675841076,2.188133067247685,0.2095696470954835,-1.8016649525900839,6.870261185598239,2.9804041098442307
3.692475006513553,2.2568356791036672,0.19155299756958266,-1.7718609114916415,7.066354056345631,2.9582421573953006
3.71504336330459,2.3274992196671236,0.17383438845466626,-1.7422784899176884,7.21889003428409,2.847443091439676
3.7383183555012613,2.3996881200099645,0.15641160355548936,-1.7138040590032917,7.332485672616444,2.6520959044008627
3.762315236701361,2.473012976736129,0.13927356296545645,-1.6872830999592832,7.412727023792871,2.377608108134097
3.787045366468722,2.547140246974058,0.12240073196586362,-1.6635070188779422,7.465837103295397,2.030221601139797
3.8125167689384627,2.621798618007012,0.1057656617770842,-1.6432048028665442,7.498379338242306,1.6165612772457487
3.8387347551185327,2.6967824113894348,0.08933361374841875,-1.6270391900940868,7.5170143260506705,1.1432403084156983
3.865702579232427,2.7719525546499413,0.07306322184747788,-1.6156067870099298,7.528318037944688,0.6165337281618665
3.8934221047789266,2.847235735029388,0.05690715397737858,-1.6094414497283112,7.538662216691557,0.042121686645807094
3.9218944621292207,2.9226223571963037,0.04081273948009547,-1.609020232861853,7.554152632193728,-0.5751037418436937
3.951120685701184,2.998163883518241,0.02472253715147694,-1.6147712702802899,7.5806180366351406,-1.2311790348202765
3.981102324536366,3.0739700638845924,0.00857482444867404,-1.6270830606284927,7.623641746083411,-1.9231701954863556
4.011842025175212,3.1502064813454265,-0.007696006157610888,-1.6463147625833563,7.688628281804024,-2.649248118076248
4.043344089988666,3.2270927641634666,-0.02415915378344445,-1.6728072437641188,7.780898955151088,-3.4087518778735038
4.075615017630301,3.3049017537149776,-0.040887226221085635,-1.7068947625428539,7.905812286230621,-4.202252658362222
4.10866403516745,3.383959876577284,-0.05795617384651418,-1.7489172891264761,8.06890743928066,-5.031630201314561
4.142503633933223,3.4646489509700906,-0.07544534673777895,-1.7992335911396218,8.276071285404074,-5.9001731623983735
4.177150123442924,3.5474096638241313,-0.09343768264917517,-1.8582353227636055,8.533732213086187,-6.8127147986958665
4.212624220081165,3.6327469859549932,-0.11202003587681122,-1.9263624707505642,8.84908641676109,-7.775816145761373
4.248951689940714,3.721237850122604,-0.13128366058431687,-2.004120632208178,9.230365158019909,-8.798010328186642
4.28616406844194,3.813541501702803,-0.15132486690639865,-2.0921007354900447,9.687154457163698,-9.89012386487966
4.324299483458969,3.91041304627444,-0.17224587426129911,-2.191001974138841,10.230781791231976,-11.065693585001787
4.363403613921713,4.012720864186759,-0.1941558940026875,-2.301658909988859,10.87478736850698,-12.3415005086491
4.403530822563581,4.1214687378718295,-0.2171724831025761,-2.42507391507535,11.63549959880617,-13.738243431109646
4.444745509942299,4.237823733859892,-0.24142322225332963,-2.5624563493864465,12.53273348986307,-15.281371964604105
4.487123747280898,4.363151068758523,-0.2670477857471941,-2.7152700690324876,13.590622373699723,-17.002084853296843
4.530755257968483,4.49905729249552,-0.294200486437519,-2.885290917565456,14.83856778936401,-18.938460360558658
4.575745830893438,4.64744297038916,-0.3230533956131736,-3.0746755211710424,16.312228443369726,-21.136591369991226
4.62222026059733,4.8105652548228575,-0.35380015082488403,-3.286041434870955,18.054321985469507,-23.651384781128463
4.670325913145558,4.991108474677553,-0.3866605651735936,-3.5225552826822395,20.11468740825955,-26.546217890760506
4.720236997892334,5.192255348760148,-0.421886118000416,-3.7880174615898445,22.548349846893053,-29.88963987295926
4.772159551379936,5.417738847229079,-0.4597662926163144,-4.086913860319437,25.40882594446376,-33.74517681493248
4.826336939852227,5.6718271066737165,-0.5006354312195088,-4.424365628468761,28.730776931647974,-38.14587840629644
4.883055210918964,5.9591348759901965,-0.5448790875041964,-4.8058244125317255,32.48987332891238,-43.03645183211046
4.942646559678866,6.28403360927932,-0.5929373316295137,-5.23618893085283,36.51645825432352,-48.149983610726174
5.005486895771659,6.649198191822555,-0.6452992209380419,-5.717688766960092,40.32417474076533,-52.76467031582913
5.071978877689885,7.052439939230209,-0.7024761086076429,-6.245335470118383,42.81447214590243,-55.28602345017514
5.142503277082187,7.4805846606892334,-0.7649294633088267,-6.7981957046201344,41.919249492644624,-52.74373029772311
5.21730912368908,7.89977715561568,-0.8329114203550281,-7.325633007597365,34.659251097253694,-40.879381306142484
5.296306895245237,8.246369666588217,-0.9061677504310017,-7.73442682065879,18.828863825793533,-16.53611836829395
5.378770591911119,8.434658304846153,-0.9835120186375896,-7.89978800434173,-3.2402808954686657,17.009535456877998
5.46311717495958,8.402255495891465,-1.0625098986810069,-7.72969264977295,-23.426152092137958,48.25082617275036
5.547139729918494,8.167993974970086,-1.1398068251787363,-7.247184388045446,-34.45009744717948,66.79520116025664
5.628819669668195,7.823493000498291,-1.2122786690591907,-6.57923237644288,-36.13462442939352,72.23617213673985
5.707054599673177,7.462146756204356,-1.2780709928236196,-5.856870655075481,-32.52907838952749,70.17697189504479
5.781676067235221,7.136855972309081,-1.3366396993743743,-5.155100936125033,-27.114661809678267,65.49087989895234
5.853044626958312,6.865709354212298,-1.3881907087356247,-4.500192137135509,-21.63521495634452,60.64206200987031
5.921701720500435,6.649357204648854,-1.4331926301069797,-3.8937715170368064,-16.7184423284521,56.52994312730876
5.988195292546924,6.482172781364333,-1.4721303452773478,-3.3284720857637184,-12.498364613687563,53.350988119085585
6.053017020360567,6.357189135227457,-1.505415066134985,-2.7949622045728626,-8.934292565454786,51.04291242280497
6.116588911712841,6.267846209572909,-1.5333646881807137,-2.284533080344813,-5.941815358531616,49.46808194035107
6.17926737380857,6.208428055987593,-1.556210018984162,-1.7898522609413026,-3.4398052113845194,48.479885418060825
6.241351654368446,6.174030003873748,-1.574108541593575,-1.3050534067606943,-1.3642857196474072,47.942855327994494
6.303091954407184,6.160387146677274,-1.587159075661182,-0.8256248534807493,0.32981292226667114,47.73605886240175
6.364695825873956,6.16368527589994,-1.5954153241959894,-0.34826426485673184,1.6709351716277456,47.751294623945405
6.4263326786329555,6.180394627616217,-1.5988979668445567,0.12924868138272222,2.674291797720906,47.89041963428798
6.488136624909118,6.207137545593427,-1.5976054800307293,0.608152877725602,3.3453915422115914,48.06332494381675
6.5502080003650525,6.240591461015542,-1.5915239512534733,1.0887861271637695,3.6834379544065228,48.186988126853116
6.612613914975208,6.277425840559608,-1.5806360899818357,1.5706560084323007,3.6845226950102896,48.18559055298238
6.675388173380804,6.3142710675097105,-1.5649295298975128,2.0525119139621246,3.3445696101482616,47.99148791938577
6.738530884055901,6.347716763611193,-1.5444044107578916,2.5324267931559823,2.6619508921787993,47.54671874662241
6.802008051692013,6.374336272532981,-1.5190801428263319,3.0078939806222063,1.6396651656002907,46.80468704595755
6.865751414417343,6.390732924188984,-1.4890012030201099,3.4759408510817815,0.2869645172401126,45.73166000810536
6.929658743659233,6.393602569361385,-1.454241794509292,3.9332574511628353,-1.3796478882851206,44.307783446670314
6.993594769352846,6.379806090478534,-1.4149092199976636,4.376335285629539,-3.3360623155747886,42.52743086016906
7.057392830257632,6.346445467322787,-1.3711458671413683,4.80160959423123,-5.550783776369935,40.398844451076734
7.120857284930859,6.290937629559087,-1.323129771199056,5.2055980387419964,-7.9855993081696495,37.943163996598756
7.18376666122645,6.211081636477391,-1.271073790811636,5.585029678707984,-10.596529585926552,35.193036061863324
7.245877477591224,6.1051163406181255,-1.2152234940245563,5.936960039326617,-13.33491842693369,32.19102671637967
7.306928640997405,5.971767156348789,-1.15585389363129,6.258870306490413,-16.148570250175354,28.988021209813542
7.366646312560892,5.810281453847035,-1.093265190566386,6.548750518588549,-18.98292383488944,25.641702059078117
7.424749127099362,5.6204522154981404,-1.0277776853805005,6.8051675391793305,-21.782322699522254,22.215087277003303
7.480953649254344,5.402628988502918,-0.9597260099887072,7.027318411949364,-24.491480723330913,18.77502269081668
7.534979939139373,5.157714181269609,-0.8894528258692135,7.215068638857531,-27.057228752404583,15.390488498686437
7.586557080952069,4.887141893745563,-0.8173021394806381,7.368973523844395,-29.43056252631094,12.130614776064393
7.6354284998895245,4.592836268482453,-0.7436124042421942,7.490279671605039,-31.568910777541873,9.062395613582064
7.681356862574349,4.277147160707035,-0.6687096075261438,7.5809036277408595,-33.43843516701725,6.248218673278986
7.724128334181419,3.942762809036862,-0.5929005712487352,7.64338581447365,-35.01609627582208,3.743446116510005
7.763555962271788,3.592601846278641,-0.5164667131039987,7.68082027563875,-36.291201126282196,1.5943550849568167
7.7994819807345745,3.229689835015819,-0.4396585103476112,7.696763826488318,-37.26619970371959,-0.16325355633616076
7.831778879084733,2.8570278379786234,-0.36269087208272804,7.695131290924956,-37.95661089967336,-1.5045426882630908
7.860349157464519,2.47746172898189,-0.2857395591734785,7.680085864042325,-38.39010358679706,-2.415113006489773
7.885123774754338,2.0935606931139192,-0.20893870053305524,7.6559347339774275,-38.60489876830988,-2.8894970056916685
7.906059381685477,1.7075117054308204,-0.13237935319328098,7.627039763920511,-38.647760460985,-2.9288288662980055
7.923134498739786,1.3210341008209705,-0.05610895555407587,7.597751475257531,-38.571886539285366,-2.537922343875179
7.936344839747996,0.9353152354281169,0.019868559198499433,7.572372251818779,-38.43499354039879,-1.7220103743297366
7.945697992102277,0.550965300024129,0.09559228171668722,7.555152148075481,-38.29782146985133,-0.48337873793719605
7.951207645102518,0.16798708532561574,0.17114380319744205,7.550318360696109,-38.22317901444243,1.1819097848781006
7.952887515955775,-0.21424470481880858,0.24664698680440314,7.56213745854489,-38.27550950278593,3.287010163021682
7.950745068907587,-0.5969997998466678,0.32226836138985204,7.595007560175107,-38.52076091228192,5.85672480282862
7.94477507090912,-0.982207408969487,0.3982184369916031,7.653574808203393,-39.02601673527342,8.928770447956895
7.934952996819425,-1.3724675763222212,0.47475418507363704,7.7428625126829616,-39.85772109385662,12.552512950307042
7.921228321056203,-1.7710447872607873,0.5521828102004667,7.868387642186032,-41.07605919461467,16.782086000491255
7.9035178731835956,-2.181805379206934,0.630866686622327,8.036208502190945,-42.720432877311,21.6571795586415
7.881699819391526,-2.609009707980044,0.7112287716442365,8.25278029777736,-44.77573059022096,27.15744685879688
7.855609722311726,-3.0567670138822534,0.7937565746220101,8.52435476636533,-47.09946327535075,33.10288298151791
7.825042052172904,-3.527761646635761,0.8790001222856634,8.855383596180507,-49.275794815841394,38.952394418152856
7.789764435706546,-4.020519594794175,0.9675539582474685,9.244907540362036,-50.35727959766035,43.44406103678586
7.749559239758605,-4.524092390770779,1.0600030336510888,9.679348150729894,-48.523774630101684,44.11329239360684
7.704318315850897,-5.009330137071796,1.1567965151583879,10.120481074665962,-41.00970523907542,37.16931054443243
7.654225014480179,-5.41942718946255,1.2580013259050475,10.492174180110286,-25.33215266760745,19.158898380952753
7.600030742585553,-5.672748716138625,1.3629230677061503,10.683763163919814,-2.6486563162454932,-8.425438113039919
7.543303255424167,-5.69923527930108,1.4697606993453485,10.599508782789414,20.001431024030833,-36.07322409204251
7.486310902631156,-5.499220969060771,1.5757557871732426,10.238776541868988,34.66317788855451,-53.09411594036253
7.431318692940549,-5.1525891901752265,1.6781435525919326,9.707835382465364,39.62750288065348,-57.35600162427475
7.379792801038796,-4.7563141613686915,1.7752219064165862,9.134275366222615,38.349473951928935,-53.649328477671986
7.332229659425109,-4.372819421849402,1.8665646600788124,8.597782081445896,34.5171710026541,-46.933573338657524
7.288501465206615,-4.027647711822861,1.9525424808932714,8.12844634805932,30.19165248907621,-39.89353450076932
7.248224988088386,-3.725731186932099,2.033826944373865,7.729511003051627,26.201120676997768,-33.54413831386627
7.210967676219065,-3.463719980162121,2.111122054404381,7.3940696199129645,22.779024984453034,-28.118640437885677
7.176330476417443,-3.235929730317591,2.1850627506035107,7.112883215534108,19.92743023857101,-23.56078796686003
7.143971179114267,-3.0366554279318807,2.2561915827588517,6.877275335865508,17.57544686943086,-19.733451445290925
7.113604624834948,-2.860900959237572,2.3249643361175067,6.679940821412599,15.639749557255314,-16.49501389883301
7.084995615242572,-2.7045034636650187,2.391763744331633,6.514990682424268,14.044782736056604,-13.722788815671253
7.0579505806059215,-2.5640556363044524,2.4569136511558756,6.377762794267555,12.727607430828222,-11.317105450309674
7.032310024242877,-2.43677956199617,2.520691279098551,6.264591739764459,11.637350955328218,-9.199184483489903
7.007942228622915,-2.320406052442888,2.583337196496196,6.17259989492956,10.733045181077667,-7.307649564732003
6.984738168098486,-2.2130756006321115,2.6450631954454917,6.09952339928224,9.981199107886214,-5.59533560380833
6.962607412092165,-2.1132636095532495,2.7060584294383143,6.043570043244157,9.353511509549588,-4.026875982778233
6.941474775996633,-2.0197284944577536,2.7664941298707557,6.003301283416374,8.824781716796013,-2.577140623540352
6.921277491052055,-1.9314806772897934,2.8265271427049194,5.977529877180971,8.370964002373366,-1.230468215723805
6.901962684279157,-1.8477710372660598,2.886302441476729,5.965225195023733,7.967298322545455,0.019406236577756582
6.883484973906496,-1.7680980540406053,2.9459546934269665,5.965419257389511,7.586492964472433,1.1688688283726307
6.86580399336609,-1.692233124395881,3.0056088860008616,5.977107945673238,7.197027366633629,2.203617494610244
6.848881662122132,-1.6202628507295447,3.065379965457594,5.99914412061934,6.761795518386846,3.097921797196605
6.832679033614836,-1.5526448955456762,3.1253714066637874,6.030123338591306,6.2375276557676615,3.814608775278776
6.817152584659379,-1.4902696189879996,3.1856726400497006,6.068269426344093,5.575685241601256,4.306756177577796
6.802249888469499,-1.434512766571987,3.2463553343131415,6.111336988119871,4.725724539597749,4.522333791105709
6.787904760803778,-1.3872555211760096,3.3074687041943402,6.156560326030928,3.6415586884656266,4.412949973811981
6.774032205592018,-1.3508399342913533,3.3690343074546494,6.200689825769048,2.2914102481721907,3.9470232913079393
6.760523806249105,-1.3279258318096314,3.43104120571234,6.240160058682128,0.6697937791793076,3.125781923160285
6.747244547931008,-1.3212278940178384,3.493442806299161,6.271417877913731,-1.191707576216185,1.9977456232131736
6.73403226899083,-1.3331449697800002,3.5561569850782986,6.291395334145863,-3.219892610577614,0.6651102609910708
6.72070081929303,-1.3653438958857764,3.6190709384197572,6.298046436755773,-5.306253710520921,-0.724038417202042
6.707047380334172,-1.4184064329909856,3.682051402787315,6.290806052583752,-7.325196154214935,-1.99902507722488
6.692863316004263,-1.491658394533135,3.7449594633131524,6.270815801811503,-9.159538978334817,-2.9992905590329344
6.677946732058931,-1.5832537843164831,3.8076676213312677,6.240822896221174,-10.724420970944225,-3.6048660448602856
6.662114194215766,-1.6904979940259253,3.8700758502934796,6.204774235772572,-11.981192518835606,-3.7536659844559126
6.645209214275507,-1.8103099192142813,3.9321235926512053,6.167237575928013,-12.937913809561248,-3.441307039800136
6.627106115083365,-1.9396890573098937,3.9937959684104856,6.132824505530012,-13.639128512265167,-2.7070390897439403
6.607709224510265,-2.0760803424325456,4.055124213465786,6.105754114632573,-14.150926146113171,-1.613635860244828
