th1 (rad),w1 (rad/s),th2 (rad),w2 (rad/s),a1 (rad/s^2),a2 (rad/s^2)
0.5724309305838144,-0.134677848895954,5.619204847363759,-0.8715271903663923,-7.040145537211267,8.366940320101204
0.5710841520948549,-0.20507930426806667,5.610489575460095,-0.7878577871653802,-6.93622845094829,8.374224849241903
0.5690333590521742,-0.27444158877754954,5.6026109975884415,-0.7041155386729612,-6.841189587164788,8.397740440041998
0.5662889431643987,-0.3428534846491974,5.595569842201712,-0.6201381342725412,-6.754944430807584,8.436659734939404
0.5628604083179067,-0.41040292895727326,5.589368460858987,-0.5357715369231472,-6.6775123471652,8.490266022872664
0.558756379028334,-0.47717805242892525,5.584010745489755,-0.45086887669442055,-6.609011753274989,8.557952032523096
0.5539845985040447,-0.5432681699616752,5.579502056722811,-0.3652893563691896,-6.549655861494754,8.639220075575862
0.5485519168044279,-0.6087647285766227,5.575849163159119,-0.278897155613431,-6.499749035929605,8.733683505530882
0.5424642695186617,-0.6737622189359187,5.573060191602985,-0.19156032055812217,-6.459683780480169,8.841069422451342
0.5357266473293025,-0.7383590567407203,5.571144588397404,-0.10314962633360875,-6.429938358187332,8.961222523379304
0.5283430567618953,-0.8026584403225937,5.570113092134068,-0.013537401099815702,-6.4110750202517774,9.09410996538824
0.5203164723586694,-0.8667691905251115,5.569977718123069,0.0774036985540667,-6.403738794492035,9.239827066688383
0.5116487804534183,-0.9308065784700318,5.57075175510861,0.16980196922095053,-6.408656741184487,9.398603613071751
0.502340714668718,-0.9948931458818766,5.57244977480082,0.263788005351668,-6.426637521739344,9.570810452294149
0.49239178320989924,-1.0591595210992701,5.575087654854336,0.3594961098746095,-6.458571032470159,9.756965934152348
0.48180018799890656,-1.1237452314239718,5.578682615953082,0.45706576921613296,-6.505427717850778,9.957741569949018
0.47056273568466683,-1.1887995086024796,5.583253273645243,0.5566431849156231,-6.568256975375298,10.173966014569444
0.45867474059864205,-1.2544820783562325,5.5888197054944,0.6583828450613176,-6.648183769264548,10.406626078555343
0.4461299198150797,-1.320963916048878,5.595403533945013,0.7624491058468711,-6.7464021424499405,10.656862900370543
0.4329202806545909,-1.3884279374733774,5.603028025003481,0.8690177348505765,-6.8641636977240355,10.925960570147561
0.41903600127985713,-1.457069574450618,5.611718202351987,0.9782773405520522,-7.002758227115312,11.215323280580709
0.4044653055353509,-1.527097156721771,5.621500975757508,1.0904305733578592,-7.1634823861146355,11.52643532467913
0.3891943339681332,-1.5987319805829174,5.632405281491087,1.2056949266046506,-7.347590471254581,11.860795733278136
0.373207014162304,-1.6722078852954632,5.644462230757133,1.324302883937432,-7.556218736919493,12.219815727652632
0.3564849353093494,-1.7477700726646581,5.657705259596508,1.4465010412139583,-7.790270970830088,12.60466202121108
0.3390072345827028,-1.825672782372959,5.672170270008648,1.5725476614260692,-8.05024783608309,13.016021776099127
0.3207505067589732,-1.9061752607337898,5.6878957466229085,1.7027078791870605,-8.335995297026779,13.453755024772592
0.3016887541516353,-1.9895352137040576,5.704922825414779,1.8372454294347864,-8.646337775558719,13.916386894164395
0.28179340201459474,-2.0759985914596446,5.723295279709127,1.9764092983764303,-8.978549210749488,14.400374553971783
0.2610334160999983,-2.1657840835671394,5.743059372692891,2.120413043916148,-9.327600244889814,14.899062881309064
0.2393755752643269,-2.2590600860160377,5.764263503132053,2.2694036727292386,-9.685104329737532,15.401221140965648
0.21678497440416652,-2.355911129313413,5.786957539859346,2.423415884138895,-10.03787533529892,15.889038428559962
0.1932258631110324,-2.4562898826664026,5.811191698700735,2.5823062684244946,-10.366017363677042,16.33546647098358
0.1686629642843684,-2.559950056303173,5.83701476138498,2.7456609331343302,-10.64052051254003,16.70087172854181
0.14306346372133666,-2.6663552614285733,5.864471370716323,2.9126696504197485,-10.820482399178276,16.92916183464773
0.11639991110705092,-2.7745600854203563,5.893598067220521,3.081961268766226,-10.850389594129828,16.943989591638925
0.08865431025284735,-2.8830639813616545,5.924417679908183,3.251401164682615,-10.65846631134939,16.646438104055488
0.05982367043923081,-2.9896486444751487,5.95693169155501,3.41786554572317,-10.15797083393928,15.916811351741334
0.02992718399447932,-3.0912283528145417,5.991110347012241,3.5770336592405836,-9.25430997000776,14.62454004248635
-0.0009850995336660971,-3.1837714525146192,6.026880683604647,3.723279059665447,-7.861232287487008,12.65076121272223
-0.032822814058812294,-3.2623837753894893,6.064113474201301,3.8497866717926694,-5.927661842548403,9.925755140258085
-0.06544665181270719,-3.321660393814973,6.1026113409192275,3.9490442231952505,-3.471223583241631,6.475712911046528
-0.09866325575085691,-3.3563726296473892,6.14210178315118,4.013801352305716,-0.6055561024507489,2.460778781273948
-0.1322269820473308,-3.362428190671897,6.182239796674237,4.038409140118455,2.458108940080075,-1.8229278580812056
-0.16585126395404975,-3.337847101271096,6.222623888075422,4.020179861537643,5.448710099221681,-5.996288206061279
-0.19922973496676072,-3.283360000278879,6.262825686690798,3.96021697947703,8.104037942396193,-9.693265107871332
-0.2320633349695495,-3.2023196208549174,6.3024278564855685,3.8632843283983167,10.238591494560538,-12.655611369517736
-0.26408653117809866,-3.099933705909312,6.341060699769551,3.7367282147031395,11.77746761294139,-14.779907346683173
-0.2950858682371918,-2.982159029779898,6.378427981916583,3.588929141236308,12.746775496112745,-16.103804447191195
-0.32490745853499076,-2.8546912748187703,6.414317273328946,3.427891096764396,13.23688854716132,-16.75444216507645
-0.35345437128317847,-2.7223223893471573,6.44859618429659,3.2603466751136314,13.362344374492453,-16.892367763059944
-0.38067759517665006,-2.588698945602233,6.481199651047726,3.091422997483032,13.233229100731272,-16.67163422608291
-0.4065645846326724,-2.45636665459492,6.5121138810225565,2.9247066552222027,12.9409265931438,-16.220014146588298
-0.43112825117862164,-2.326957388663482,6.541360947574779,2.76250651375632,12.554486816365607,-15.634035435150125
-0.45439782506525644,-2.201412520499826,6.568986012712342,2.6061661594048187,12.122679764884088,-14.981923405203343
-0.4764119502702547,-2.080185722850985,6.59504767430639,2.4563469253527854,11.6781266175088,-14.30940953420353
-0.49721380749876454,-1.963404456675897,6.6196111435599185,2.31325283001075,11.241550023366276,-13.645681656894132
-0.5168478520655235,-1.8509889564422344,6.642743671860026,2.176796013441809,10.82534478962759,-13.008370166899715
-0.5353577416299459,-1.7427355085459584,6.6645116319944435,2.046712311772812,10.436292347923004,-12.407331022107595
-0.5527850967154054,-1.6383725850667283,6.684978755112172,1.9226390015517358,10.077507408023212,-11.847353603635236
-0.5691688225660727,-1.537597510986496,6.704205145127689,1.8041654655153834,9.7497827596137,-11.330027631238236
-0.5845447976759377,-1.4400996833903592,6.722246799782843,1.690865189203001,9.452494472225014,-10.854996812347148
-0.5989457945098413,-1.345574738668109,6.739155451674873,1.5823152210795297,9.18419915581357,-10.420783446960758
-0.6124015418965224,-1.2537327471099733,6.754978603885668,1.4781073866099221,8.943021187437054,-10.02532071104189
-0.6249388693676221,-1.1643025352356027,6.769759677751767,1.3778541794995032,8.726899264467354,-9.666289335926676
-0.6365818947199782,-1.0770335425909292,6.783538219546762,1.2811912861402364,8.533740010220905,-9.341325157405478
-0.6473522301458875,-0.9916961424887202,6.796350132408165,1.1877780345661817,8.361510870568239,-9.048142399444153
-0.6572691915707747,-0.9080810337830378,6.808227912753827,1.09729661057174,8.208293812756342,-8.78460261456465
-0.666350001908605,-0.8259980956554744,6.819200878859544,1.0094505844260937,8.072314054625917,-8.54874907249277
-0.6746099828651598,-0.7452749551092153,6.829295384703805,0.923963093701166,7.951953169291897,-8.338819605435074
-0.682062732416252,-0.6657554234162963,6.838535015640817,0.8405748976468153,7.845752662650985,-8.15324641217747
-0.688720286650415,-0.5872978967897865,6.846940764617285,0.7590424335250405,7.752411972939847,-7.990648345530538
-0.6945932656183128,-0.5097737770603881,6.854531188952535,0.6791359500697352,7.670783426776691,-7.849819247715469
-0.6996910033889167,-0.4330659427926212,6.8613225484532325,0.6006377575925804,7.599865758116643,-7.729714612728317
-0.7040216628168429,-0.35706728521145475,6.867328926029158,0.5233406114652972,7.538797190797073,-7.629438014740089
-0.7075923356689574,-0.281679313303484,6.8725623321438105,0.44704623131789634,7.486848692581974,-7.548228195489814
-0.7104091288019923,-0.20681082637766426,6.87703279445699,0.3715639493629982,7.443417756463274,-7.4854473510924855
-0.7124772370657689,-0.13237664881303152,6.88074843395062,0.2967094758520733,7.408022905543626,-7.440570933441278
-0.7138010035538992,-0.05829641975759525,6.883715528709141,0.2223037665176605,7.380299019397893,-7.41317913964244
-0.7143839677514752,0.015506570436383676,6.885938566374318,0.1481719751212361,7.359993521360674,-7.4029501757051355
-0.7142289020471113,0.08910650564999041,6.88742028612553,0.07414247336418474,7.3469634337168515,-7.409655328772919
-0.7133378369906114,0.16257613998715892,6.888161710859172,4.592007645554119e-05,7.34117329189212,-7.433155852652115
-0.7117120755907398,0.23598787290608012,6.888162170059936,-0.07428563845006561,7.342693903037605,-7.47340165549434
-0.7093521968616789,0.30941481193645615,6.887419313675435,-0.14901965500500902,7.351701934332786,-7.530431770030816
-0.7062580487423143,0.38293183127978403,6.885929117125385,-0.22432397270531718,7.368480318425651,-7.6043765810250745
-0.7024287304295165,0.45661663446404055,6.883685877398332,-0.3003677385155679,7.393419464699741,-7.695461777565194
-0.6978625640848761,0.5305508291110379,6.880682200013176,-0.37732235629121985,7.427019262483009,-7.804013985380174
-0.6925570557937657,0.604821021735868,6.876908976450264,-0.4553624961450216,7.4698918523395825,-7.930468011741509
-0.686508845576407,0.6795199402592639,6.872355351488814,-0.5346671762624366,7.522765119550157,-8.075375596391076
-0.6797136461738144,0.7547475914547654,6.867008679726189,-0.6154209322263474,7.586486823284538,-8.239415497480312
-0.6721661702592667,0.8306124596876108,6.860854470403926,-0.6978150872011506,7.6620292064376905,-8.423404638930576
-0.6638600456623907,0.9072327517519877,6.853876319531914,-0.7820491335904564,7.750493820968158,-8.628309886184528
-0.6547877181448708,0.9847376899616693,6.84605582819601,-0.8683322324523016,7.853116131752607,-8.85525977334779
-0.6449403412452541,1.0632688512791955,6.837372505871487,-0.9568848301857795,7.971269198827295,-9.105555135287025
-0.6343076527324621,1.1429815432674684,6.827803657569629,-1.0479403815386497,8.106465339684455,-9.380677042743278
-0.6228778372997874,1.2240461966643128,6.817324253754243,-1.1417471519660825,8.26035407542579,-9.682289607206581
-0.6106373753331443,1.3066497374185706,6.805906782234582,-1.2385700480381483,8.434713771716934,-10.01223398251844
-0.5975708779589586,1.39099687513574,6.793521081754201,-1.3386923878633328,8.631433057313966,-10.372508046334714
-0.5836609092076012,1.4773112057088797,6.780134157875567,-1.44241746832668,8.85247613387735,-10.765223509768353
-0.5688877971505124,1.5658359670476532,6.7657099831923,-1.5500697034243636,9.099823182162392,-11.192528160318773
-0.5532294374800358,1.656834198869277,6.750209286158056,-1.6619949850275513,9.37537279335146,-11.65647499252948
-0.5366610954913431,1.7505879268027915,6.733589336307781,-1.7785597349528461,9.680787110128714,-12.158811281840675
-0.5191552162233152,1.8473957979040787,6.715803738958252,-1.9001478477712528,10.01725133964104,-12.700648072498485
-0.5006812582442743,1.9475683113004891,6.696802260480539,-2.0271543284962377,10.385106475689238,-13.281952639925827
-0.48120557513126944,2.0514193760573813,6.676530717195577,-2.159973854895496,10.783296310503097,-13.900781656422916
-0.46069138137069565,2.1592523391624123,6.654930978646623,-2.298981671459725,11.208546282412465,-14.5521398287253
-0.43909885797907156,2.271337801986537,6.631941161932025,-2.444503069746978,11.654162870724543,-15.226308310863617
-0.41638547995920616,2.3878794306937827,6.607496131234556,-2.596766152855614,12.108312300769173,-15.906445022719348
-0.3925066856522683,2.5089625537014744,6.581528469706,-2.7558306030828077,12.551619162995985,-16.56523309822626
-0.36741706011525355,2.6344787453314344,6.553970163675172,-2.9214829340650703,12.953950283631528,-17.16038750082042
-0.3410722726619392,2.7640182481677495,6.524755334334521,-3.0930868090732746,13.27038177315523,-17.62901430251559
-0.3134320901802617,2.896722065899302,6.4938244662437885,-3.2693769520984306,13.436706104534494,-17.881318311959944
-0.28446486952126865,3.031089126944647,6.461130696722805,-3.44819013521803,13.365600014030676,-17.79522352496926
-0.2541539782518222,3.1647451270849536,6.426648795370625,-3.6261423704677225,12.945920276829968,-17.21535696356271
-0.22250652698097265,3.2942043298532533,6.390387371665947,-3.7982959401033494,12.049448477097265,-15.962447470816237
-0.1895644836824401,3.414698814624226,6.352404412264914,-3.957920414811512,10.550859564184215,-13.861235844836798
-0.15541749553619785,3.520207410266068,6.312825208116799,-4.09653277325988,8.365248603967956,-10.792985104199511
-0.12021542143353717,3.6038598963057473,6.271859880384199,-4.2044626243018755,5.499462968203758,-6.767353722715067
-0.0841768224704797,3.6588545259877847,6.22981525414118,-4.272136161529026,2.097723514390535,-1.9863015620472002
-0.04758827721060185,3.67983176113169,6.1870938925258905,-4.291999177149498,-1.5520126987756098,3.1469661310320105
-0.010789959599284943,3.664311634143934,6.144173900754396,-4.2605295158391785,-5.0762626603977115,8.10945822485163
0.025853156742154396,3.613549007539957,6.101568605596004,-4.179434933590662,-8.124163489371115,12.409711424481973
0.06198864681755396,3.5323073726462457,6.059774256260098,-4.0553378193458425,-10.468725584981398,15.729359737685755
0.09731172054401642,3.4276201167964317,6.019220878066639,-3.898044221968985,-12.046596216072704,17.97861184335089
0.13158792171198075,3.307154154635705,5.980240435846949,-3.7182581035354763,-12.929085187224986,19.255644666322592
0.1646594632583378,3.177863302763455,5.943057854811594,-3.5257016568722506,-13.259610521411354,19.759188890824046
0.19643809628597236,3.0452671975493417,5.9078008382428715,-3.32810976796401,-13.196469650655915,19.70868112901294
0.2268907682614658,2.9133025010427827,5.8745197405632315,-3.1310229566738808,-12.878658361714631,19.296660833393638
0.2560237932718936,2.784515917425636,5.843209510996493,-2.9380563483399444,-12.413289830398494,18.671311778110894
0.28386895244614996,2.6603830191216513,5.813828947513094,-2.7513432305588355,-11.87604026837253,17.937142657192055
0.3104727826373665,2.541622616437926,5.786315515207505,-2.571971803986915,-11.316994885489166,17.163161912779934
0.33588900880174577,2.4284526675830342,5.760595797167636,-2.4003401848591155,-10.7674440234011,16.392350956715447
0.36017353547757613,2.3207782273490234,5.736592395319045,-2.236416675291961,-10.245731736938687,15.649802669574667
0.3833813177510664,2.2183209099796364,5.7142282285661254,-2.0799186485962147,-9.76167414645509,14.948861826914921
0.40556452685086275,2.1207041685150854,5.693429042080163,-1.9304300303270654,-9.319666793206993,14.295439045751387
0.4267715685360136,2.0275075005830154,5.674124741776893,-1.7874756398695515,-8.920775550668326,13.690911113275318
0.44704664354184376,1.9382997450763322,5.656249985378198,-1.6505665287367983,-8.564101938198595,13.134013556454766
0.4664296409926071,1.8526587256943463,5.63974432009083,-1.5192263931722507,-8.247654300002138,12.622047648289152
0.48495622824955054,1.770182182694325,5.624552056159107,-1.3930059166893591,-7.968892186828907,12.15163433861256
0.5026580500764938,1.690493260826036,5.610621996992213,-1.2714895733032336,-7.725058840068615,11.719174469961178
0.5195629826847541,1.6132426724253497,5.597907101259181,-1.1542978286036218,-7.513378327363068,11.321121273709139
0.5356954094090076,1.538108889151719,5.586364122973144,-1.0410866158665304,-7.331167385885708,10.95413434526004
0.5510764983005249,1.4647972152928619,5.575953256814479,-0.9315452724139299,-7.175894306809953,10.615159726817604
0.5657244704534534,1.3930382722247623,5.56663780409034,-0.8253936751457539,-7.045205561494819,10.301464630000403
0.5796548531757011,1.3225862166098141,5.558383867338883,-0.7223790288457499,-6.93693332097969,10.010644908667917
0.5928807153417992,1.2532168834000172,5.551160077050425,-0.6222725797590707,-6.849092156292148,9.74061669516605
0.6054128841757994,1.1847259618370958,5.544937351252834,-0.5248664128074102,-6.779870087691594,9.489599332630553
0.6172601437941704,1.11692726096018,5.53968868712476,-0.4299704194811047,-6.7276171579634925,9.256094012594417
0.6284294164037721,1.049651089380545,5.535388982929948,-0.3374094793551605,-6.6908334365160265,9.038860803092907
0.6389259272975776,0.9827427550153848,5.532014888136397,-0.24702087132423145,-6.6681575580771035,8.83689566807241
0.6487533548477314,0.9160611794346137,5.529544679423155,-0.15865191464350736,-6.658356395530201,8.649408403081933
0.6579139666420776,0.8494776154793118,5.52795816027672,-0.07215783061268803,-6.660316153794882,8.47580199670571
0.6664087427968707,0.782874453941363,5.527236581970593,0.012600189354369074,-6.673034981894435,8.315653676949783
0.6742374873362843,0.7161441041224187,5.527362583864137,0.0957567261238669,-6.695617089280619,8.168697755952326
0.6813989283775085,0.6491879332296125,5.528320151125375,0.17744370368339019,-6.727268291690531,8.034810306004747
0.6878908077098046,0.5819152503127072,5.530094588162209,0.25779180674343766,-6.767292883005943,7.913995660104329
0.6937099602129316,0.5142423214826477,5.532672506229643,0.33693176334448094,-6.81509172099093,7.806374715327098
0.6988523834277581,0.4460914042727384,5.536041823863088,0.4149955104977519,-6.870161418811532,7.712175017259044
0.7033132974704855,0.3773897900846231,5.540191778968065,0.49211726067034234,-6.9320945459992345,7.631722612329966
0.7070871953713318,0.30806884462463074,5.545112951574769,0.568434486793642,-7.000580758848272,7.565435668302253
0.7101678838175781,0.238063037036148,5.550797296442705,0.6440888434766645,-7.0754087990713375,7.513819878987581
0.7125485141879396,0.16730894904543464,5.5572381848774715,0.7192270422665403,-7.15646931948456,7.477465685970028
0.7142216036783939,0.09574425585058904,5.564430455300137,0.7940016991262406,-7.243758515521689,7.457047366611193
0.7151790462368999,0.02330667069537215,5.572370472291399,0.8685721727923525,-7.33738256058594,7.453324052910215
0.7154121129438535,-0.05006715491048726,5.581056194019323,0.9431054133214547,-7.437562860640152,7.467142758709979
0.7149114413947487,-0.12444278351688878,5.590487248152537,1.0177768409085546,-7.544642157688758,7.499443501602434
0.7136670135595798,-0.19988920509377636,5.6006650165616225,1.092771275924579,-7.659091520972969,7.55126660812635
0.7116681215086421,-0.27648012030350605,5.6115927293208685,1.1682839420058424,-7.781518265814335,7.6237622824883875
0.7089033203056071,-0.3542953029616494,5.623275568740927,1.2445215648307262,-7.9126748285297985,7.718202493893839
0.7053603672759906,-0.4334220512469474,5.6357207843892345,1.3217035897696645,-8.053468594670662,7.835995186103211
0.7010261467635212,-0.513956737193654,5.648937820286931,1.4000635416306966,-8.204972616228588,7.978700720359571
0.6958865793915846,-0.5960064633559399,5.662938455703238,1.4798505488342923,-8.368437044928243,8.14805030685956
0.6899265147580252,-0.6796908338052223,5.677736961191581,1.561331051902888,-8.545300928153473,8.345965926028295
0.683129606419973,-0.7651438430867571,5.69335027171061,1.644790711163171,-8.737203723123931,8.57458083634245
0.6754781679891054,-0.8525158803179964,5.709798178822242,1.7305365195265956,-8.945995425278186,8.836259129821528
