th1 (rad),w1 (rad/s),th2 (rad),w2 (rad/s)
1.9576682174279778,-0.7064803692110989,4.577455303204249,1.201990377821515
1.9506034137358668,-0.7803990669630275,4.589475206982464,1.2325301224674676
1.9427994230662364,-0.8551121635904204,4.6018005082071385,1.2613872216673756
1.9342483014303322,-0.9307585621119393,4.6144143804238125,1.288387949605129
1.9249407158092129,-1.0074797598055116,4.627298259919864,1.3133633687003823
1.9148659182111578,-1.0854175562603958,4.640431893606868,1.3361527534509368
1.9040117426485539,-1.164711001732989,4.653793421141377,1.356608111973053
1.892364632631224,-1.2454924758449473,4.667359502261108,1.3745999796998063
1.8799097078727744,-1.3278828023931508,4.681105502058106,1.3900246403490648
1.866630879848843,-1.4119853396405226,4.695005748461597,1.4028128841046843
1.8525110264524376,-1.4978790427645357,4.709033877302644,1.412940333122072
1.8375322360247923,-1.585610581726134,4.723163280633864,1.4204392413120237
1.821676130207531,-1.6751857176375236,4.737367673046984,1.4254115023396055
1.8049242730311559,-1.7665602941314353,4.751621788070381,1.428042375363403
1.7872586700898416,-1.8596313816158119,4.765902211824015,1.4286141693929233
1.7686623562736834,-1.9542293073781591,4.780188353517944,1.4275188340989446
1.7491200631999018,-2.0501114884658196,4.794463541858933,1.4252681232163351
1.7286189483152437,-2.146959121514661,4.808716223091096,1.4224997787920264
1.707149357100097,-2.24437783063152,4.8229412208790166,1.4199780960917463
1.684705578793782,-2.341903286227024,4.837141001839934,1.4185873392833201
1.6612865459315116,-2.439012549084715,4.851326875232767,1.4193168441894837
1.6368964204406644,-2.535141452499045,4.865520043674662,1.4232372913208913
1.611545005915674,-2.629707733649782,4.879752416587871,1.431468533247638
1.585247928579176,-2.722138927693384,4.894067101920347,1.4451404250212074
1.5580265393022423,-2.811903346310564,4.90851850617056,1.4653491847226816
1.5299075058391367,-2.8985419002811788,4.923171998017787,1.493112715455844
1.5009220868363249,-2.9816982120451607,4.938103125172345,1.5293288635647644
1.4711051047158732,-3.061144483591615,4.953396413807993,1.5747406314285364
1.4404936598799571,-3.136800962963935,4.969143820122278,1.6299118553743228
1.4091256502503178,-3.2087475453971472,4.985442938676021,1.6952158564266726
1.3770381747963463,-3.277226946928251,5.002395097240288,1.7708382307468173
1.3442659053270638,-3.342639855141072,5.020103479547756,1.8567934916982847
1.310839506775653,-3.40553334358946,5.038671414464739,1.952953947383444
1.2767841733397585,-3.4665845099221553,5.058200953938574,2.05908820192143
1.2421183282405368,-3.526581689380816,5.078791835957788,2.174906136408771
1.2068525113467286,-3.5864056915394187,5.100540897321876,2.3001071941114155
1.1709884544313343,-3.6470133504605364,5.12354196926299,2.434429214483134
1.1345183209267289,-3.7094253479461785,5.147886261407821,2.577695820461179
1.097424067447267,-3.774719865927798,5.1736632196124335,2.7298613244422674
1.0596768687879892,-3.8440332454328163,5.200961832856856,2.891053149365109
1.021236536333661,-3.9185685580363887,5.229872364350507,3.061612765454454
0.9820508507532972,-3.9996128901879144,5.260488492005052,3.242137071322784
0.9420547218514181,-4.088564236978699,5.29290986271828,3.4335230000736465
0.9011690794816312,-4.1869692158865375,5.327245092719016,3.6370189456339785
0.8592993873227658,-4.296573341396106,5.363615282175356,3.8542874399176084
0.8163336539088047,-4.419386321138315,5.402158156574532,4.087484411090878
0.7721397906974216,-4.557765656025497,5.443033000685441,4.339361280139879
0.7265621341371666,-4.714522506327128,5.48642661348684,4.613396844366158
0.6794169090738954,-4.893053678282151,5.532560581930501,4.913965522770119
0.6304863722910738,-5.097501056776377,5.581700237158202,5.246544883564262
0.5795113617233101,-5.332930806047499,5.634165685993844,5.617952852746329
0.5261820536628351,-5.605499266613853,5.690345214521307,6.036569858365447
0.47012706099669654,-5.922506688078818,5.750710913104961,6.512409972397694
0.41090199411590833,-6.292076772152714,5.815835012828938,7.056678299655313
0.34798122639438117,-6.7218109907879615,5.886401795825491,7.679909551056138
0.28076311648650154,-7.214901952441075,5.963200891336053,8.386573971769531
0.2086140969620908,-7.760584201170826,6.047066631053748,9.161785232848324
0.13100825495038254,-8.314387780748275,6.138684483382232,9.943748309393168
0.04786437714289979,-8.769817256739065,6.238121966476164,10.584170424014925
-0.039833795424490864,-8.956990929655312,6.343963670716313,10.846318820388214
-0.12940370472104398,-8.747042788797538,6.452426858920195,10.55089710950621
-0.21687413260901936,-8.20979702921382,6.557935830015258,9.795811093373498
-0.29897210290115755,-7.556333432082074,6.655893940948993,8.87497980136281
-0.3745354372219783,-6.94076010213138,6.744643738962622,8.002114213207319
-0.44394303824329207,-6.4146714691079225,6.824664881094695,7.248333622193763
-0.5080897529343713,-5.978322105795257,6.897148217316633,6.613765204430758
-0.5678729739923238,-5.6175386577843325,6.9632858693609405,6.0787683459278234
-0.6240483605701672,-5.317260284819785,7.0240735528202185,5.622610860041296
-0.677220963418365,-5.0649473421056666,7.080299661420631,5.228128557646887
-0.7278704368394217,-4.8508411199106956,7.1325809469971,4.882059750214925
-0.7763788480385286,-4.667468886186013,7.181401544499249,4.5743580661492524
-0.8230535369003887,-4.509086133661615,7.2271451251607415,4.2974311225414406
-0.8681443982370048,-4.371218314901062,7.270119436386156,4.045523811483933
-0.9118565813860154,-4.25031548584454,7.310574674500995,3.8142616060013212
-0.9543597362444608,-4.143498768981239,7.348717290561009,3.6003227234796213
-0.9957947239342732,-4.048374986338043,7.384720517795805,3.401204738139709
-1.0362784737976536,-3.962900674844732,7.418732565177202,3.215057754775774
-1.0759074805461009,-3.885282122568714,7.45088314272496,3.0405632771219153
-1.114760301771788,-3.813902453253312,7.481288775496179,2.8768433717604602
-1.152899326304321,-3.747269999139962,7.510057209213784,2.7233886093212933
-1.1903720262957207,-3.683984418160193,7.537291095306997,2.579996000242575
-1.2272118704773227,-3.622718412238062,7.563091055309423,2.446710213440003
-1.2634390545997034,-3.5622136086020335,7.587558157443823,2.323763181631724
-1.2990611906857237,-3.5012892533273923,7.61079578926014,2.2115090592452833
-1.3340740832189977,-3.4388619153702664,7.632910879852593,2.1103535751893787
-1.3684627023727003,-3.3739735387915055,7.654014415604487,2.0206791124058405
-1.4022024377606153,-3.3058241216181115,7.674221206728546,1.9427691586759968
-1.4352606789767963,-3.2338043365916884,7.693648898315305,1.8767377466809325
-1.4675987223427132,-3.15752287820557,7.712416275782115,1.822470680585959
-1.4991739511247688,-3.076823516072997,7.730640982587974,1.7795853207674612
-1.5299421862854987,-2.991787907254964,7.748436835795649,1.747414264428904
-1.5598600653580483,-2.9027220979579575,7.765910978439938,1.7250155476783813
-1.588887286337628,-2.8101270196555137,7.783161133916722,1.7112084926090658
-1.616988556534183,-2.714655680225527,7.800273218842813,1.7046307728805077
-1.6441351133364384,-2.6170616586610227,7.817319526571618,1.7038094596880646
-1.6703057299230486,-2.5181445436444982,7.834357621168499,1.7072373324918548
-1.6954871753594936,-2.418697953899552,7.851429994493417,1.7134458304075086
-1.719674154898489,-2.319464844202667,7.868564452797492,1.7210675131214999
-1.7428688033405157,-2.2211032419211887,7.885775127928707,1.728883315935907
-1.7650798357597277,-2.1241637742347605,7.903063961088066,1.7358526083028882
-1.7863214735020754,-2.029078707705068,7.920422487171095,1.7411265357557697
-1.8066122605791262,-1.9361609871168401,7.937833752528652,1.7440469600500466
-1.8259738704502946,-1.8456110389615614,7.955274222129153,1.7441343591415133
-1.8444299808399103,-1.757528873721451,7.972715565720567,1.741068355081444
-1.8620052695771248,-1.6719291708101236,7.990126249271381,1.7346642790261324
-1.878724561285226,-1.5887574170949366,8.007472892061642,1.7248485798086115
-1.8946121354561754,-1.507905658735925,8.024721377859729,1.7116351407513108
-1.9096911920435347,-1.4292269131294826,8.041837729267241,1.6951038418535624
-1.9239834611748294,-1.3525477089845483,8.058788767685776,1.6753820835812712
-1.9375089382646749,-1.2776785491294866,8.07554258852159,1.6526295136197602
-1.9502857237559696,-1.204422319225634,8.092068883657786,1.6270258709131127
-1.962329946948226,-1.1325808079528277,8.108339142366917,1.5987616622351633
-1.9736557550277543,-1.0619595788477756,8.12432675898927,1.5680312866391461
-1.984275350816232,-0.9923714600882668,8.140007071855662,1.5350281931365757
-1.9941990654171147,-0.9236389130587358,8.155357353787027,1.4999416716022578
-2.003435454547702,-0.8555955168128144,8.17035677050305,1.4629549166480458
-2.0119914097158302,-0.7880867731426346,8.18498631966953,1.4242440552068054
-2.0198722774472566,-0.7209704022206281,8.1992287602216,1.383977881807747
-2.027081981469463,-0.6541162655352625,8.213068539039677,1.3423180956912024
-2.0336231441248156,-0.5874060231367981,8.226491719996588,1.2994198783014257
-2.0394972043561834,-0.5207326068837329,8.239485918779602,1.2554326873157644
-2.0447045304250206,-0.45399957053669315,8.25204024565276,1.2105011742547063
-2.0492445261303875,-0.3871203608718921,8.264145257395306,1.1647661574643684
-2.0531157297391065,-0.3200175409713113,8.27579291896995,1.1183656017123607
-2.0563159051488196,-0.25262198691924254,8.286976574987074,1.0714355706881276
-2.058842125018012,-0.18487207173730086,8.297690930693955,1.0241111301991817
-2.060690845735385,-0.11671284501935163,8.307932041995947,0.9765271885533559
-2.0618579741855787,-0.04809521295111638,8.317697313881482,0.9288192671430927
-2.06233892631509,0.021024879143893324,8.326985506552912,0.8811241991108287
-2.062128677523651,0.09068726119306311,8.33579674854402,0.8335807575763882
-2.06122180491172,0.1609283500549461,8.344132556119783,0.7863302175560277
-2.0596125214111707,0.23178195922141342,8.351995858295343,0.7395168576282208
-2.0572947018189565,0.30328010726511917,8.359391026871625,0.6932884087696485
-2.0542619007463054,0.37545382547719997,8.366323910959322,0.6477964587114508
-2.0505073624915333,0.4483339646707583,8.372801875546436,0.6031968207256196
-2.0460240228448257,0.5219520005233566,8.378833843753693,0.5596498759879669
-2.0408045028395922,0.5963408361351951,8.384430342513573,0.51732089859604
-2.0348410944782405,0.671535599711085,8.389603551499533,0.4763803719467574
-2.0281257384811298,0.7475744344413642,8.394367355219002,0.43700430448248456
-2.020649994136716,0.8244992767538257,8.398737398263826,0.3993745517655022
-2.012405001369178,0.9023566181172773,8.40273114378148,0.3636791503970878
-2.0033814351880053,0.9811982444673006,8.40636793528545,0.33011266740530165
-1.9935694527433323,1.0610819460543635,8.409669061959503,0.2988765663204227
-1.9829586332827887,1.1420721890307808,8.412657827622708,0.2701795881627856
-1.971537911392481,1.2242407383329657,8.415359623504335,0.24423814189669182
-1.9592955040091513,1.3076672193066252,8.417802004923303,0.22127669445646342
-1.9462188318160851,1.3924396029856747,8.420014771867868,0.2015281451158551
-1.9322944357862284,1.4786545968873135,8.422030053319027,0.1852341626304288
-1.9175078898173552,1.566417919543542,8.42388239494533,0.17264545611038776
-1.9018437106219197,1.655844432678972,8.425608849506434,0.16402194185887436
-1.88528526629513,1.7470580999098373,8.427249068925022,0.15963275833469073
-1.8678146852960316,1.8401917350554537,8.428845396508368,0.15975606990178823
-1.849412767945477,1.9353864966477963,8.430442957207386,0.164678587107566
-1.830058902978999,2.032791078099598,8.432089743078462,0.17469471698699796
-1.8097309921980032,2.132560535455153,8.433836690248333,0.19010524157119899
-1.7884053868434515,2.23485468705345,8.435737742664045,0.21121540685458023
-1.766056839972917,2.3398360123200037,8.43784989673259,0.23833228870412143
-1.7426584798497171,2.447666971044291,8.440233219619632,0.27176128771681046
-1.7181818101392743,2.558506660942957,8.4429508324968,0.31180159345584196
-1.6925967435298448,2.672506731412128,8.44606884843136,0.3587404519821472
-1.6658716762157235,2.7898064768079105,8.449656252951181,0.4128460719065555
-1.6379736114476444,2.9105270453133674,8.453784713670247,0.47435901667453506
-1.6088683409945108,3.03476472157789,8.458528303836992,0.5434819583024141
-1.578520693778732,3.1625832749517566,8.463963123420017,0.6203677143887215
-1.5468948610292144,3.2940054120461517,8.470166800563904,0.7051055597942449
-1.513954806908753,3.429003433503962,8.477217856161847,0.7977058999026849
-1.4796647725737133,3.567489269898803,8.485194915160873,0.898083515031287
-1.4439898798747253,3.7093041582415855,8.494175750311186,1.0060397336672449
-1.4068968382923095,3.8542083137510574,8.504236147647859,1.1212440600572178
-1.368354755154799,4.0018710434727796,8.51544858824843,1.2432159586238327
-1.3283360447200712,4.151861828239175,8.527880747834669,1.3713076677387004
-1.2868174264376795,4.303642954378769,8.541593824512056,1.5046890577813388
-1.2437809968938918,4.456564292871295,8.55664071508987,1.6423356394770556
-1.1992153539651789,4.6098607894107255,8.573064071484641,1.7830208449790401
-1.1531167460710716,4.76265313694383,8.590894279934432,1.9253136278323026
-1.1054902147016332,4.913951953414955,8.610147416212754,2.0675822508782478
-1.0563506951674837,5.062665592576269,8.630823238721536,2.208004860235346
-1.005724039241721,5.207611496558163,8.65290328732389,2.3445871029763596
-0.9536479242761394,5.347530786206422,8.676349158353654,2.47518667658587
-0.9001726164140752,5.4811056142934,8.701101025119513,2.59754435129514
-0.8453615602711412,5.6069787108093285,8.727076468632465,2.709320735249776
-0.7892917731630479,5.7237745522122605,8.754169675984963,2.8081379005192306
-0.7320540276409253,5.830121694997018,8.782251054990155,2.8916249770790734
-0.6737528106909552,5.924676014882483,8.811167304760946,2.95746694387162
-0.6145060505421304,6.006144851583745,8.840741974199663,3.0034560590886143
-0.5544446020262929,6.073312322215419,8.870776534790549,3.027545603238736
-0.4937114788041387,6.12506626769853,8.901051990822936,3.0279057634483166
-0.43246081612715337,6.1604273649294115,8.93133104845742,3.002981462370346
-0.37085654247785926,6.178580806189571,8.961360863081122,2.9515516359628973
-0.30907073441596356,6.178910565512548,8.990876379440751,2.8727888279938445
-0.2472816287608381,6.161035618765982,9.01960426772069,2.7663169876889357
-0.18567127257317828,6.124846586569314,9.04726743759758,2.632264104269276
-0.12442280670748515,6.070540218469004,9.073590078640272,2.471304965706713
-0.06371740452279512,5.998648102257952,9.09830312829734,2.2846881777827868
-0.003730923500215602,5.910055207473442,9.121150010075167,2.074241002173493
0.05536962857451882,5.806003643493367,9.141892420096902,1.8423459715882973
0.11342966500945248,5.6880775932598056,9.160315879812785,1.591884928952099
0.17031044094205053,5.5581669173932555,9.176234729102307,1.3261491959810807
0.2258921101159831,5.418409337826081,9.189496221062118,1.0487187259018729
0.2800762034942439,5.271114062067787,9.199983408321136,0.7633176607446241
0.3327873441149218,5.118672619434417,9.207616584928584,0.4736577300491135
0.38397407030926595,4.963464872398731,9.212353162229075,0.18328339268141464
0.43360871903325326,4.807769075547819,9.214185996155889,-0.10456717364607171
0.48168640978873145,4.653684228865115,9.213140324419427,-0.38707333949676676
0.5282232520773826,4.503070966957632,9.20926959102446,-0.6619077826524287
0.573253961746959,4.357514351327418,9.202650513197936,-0.9272740550342877
0.6168291052602332,4.2183088718079285,9.193377772647594,-1.1819081787899686
0.6590121939783125,4.08646334819878,9.181558690859694,-1.4250502916165733
0.6998768274603002,3.962721664194085,9.167308187943528,-1.6563945506734203
0.739504044102241,3.8475944874847214,9.150744242436794,-1.8760260528682153
0.7779799889770882,3.741397212869389,9.131983981908112,-2.0843527651809755
0.8153939611057821,3.6442900476709363,9.111140454256303,-2.2820388830969947
0.8518368615824915,3.5563171456254556,9.088320065425332,-2.469944147131609
0.887400033038746,3.477442736536698,9.063620623954016,-2.6490718317696005
0.922174460404113,3.407583125412935,9.03712990563632,-2.820526608781737
0.9562502916582424,3.346634160039884,9.008924639548503,-2.9854823678845084
0.9897166332586412,3.2944942671187327,8.979069815869659,-3.145159340583659
1.0226615759298285,3.2510834497256336,8.947618222463822,-3.3008094475297804
1.055172410427085,3.2163587538190774,8.914610127988524,-3.453708580241136
1.0873359979652757,3.1903266775931827,8.880073042186114,-3.6051544333526815
1.1192392647412075,3.1730528288198934,8.844021497852587,-3.7564684229273113
1.1509697930294065,3.1646688216921914,8.806456813623313,-3.9090000545712416
1.1826164812463285,3.1653759009358655,8.7673668130776,-4.064131717307096
1.214270240255687,3.175443992453044,8.72672549590453,-4.2232811057519735
1.2460246801802175,3.1952036402165587,8.68449268484701,-4.38789706251284
1.277976716582383,3.2250263291358148,8.640613714221882,-4.559442200789177
1.3102269798737411,3.265285603984913,8.59501929221399,-4.739351639623048
1.3428798359135903,3.316286608613184,8.54762577581776,-4.928950763635243
1.3760427019997221,3.3781445448451946,8.498336268181408,-5.129305186371672
1.409824147448174,3.450582769444141,8.447043216317692,-5.340962551392212
1.4443299751426155,3.5326100737765582,8.39363359080377,-5.563530086888708
1.4796560758803812,3.6220301630558622,8.337998289934882,-5.7950221302516365
1.5158763775109398,3.714751959489677,8.280048068632366,-6.030932182905577
1.5530238971058365,3.8039459407563547,8.21973874680331,-6.263088154204876
1.5910633565134,3.8792912268661275,8.157107865261262,-6.478623364855476
1.6298562687820612,3.926915902912292,8.092321631612707,-6.659889317843396
1.6691254278111842,3.9309820916946467,8.025722738434274,-6.786618318322013
1.7084352487281307,3.8775994906180946,7.957856555251054,-6.841271685500044
1.7472112436343117,3.760130810424582,7.889443838396053,-6.816266006213653
1.7848125517385576,3.5827038648807883,7.8212811783339165,-6.718674266624155
1.8206395903873656,3.358866315884103,7.754094435667675,-6.568214550066154
1.8542282535462067,3.1060980601339616,7.6884122901670136,-6.389602000818654
1.8852892341475462,2.8401601357151245,7.624516270158827,-6.204805361591656
1.9136908355046975,2.5722257583604686,7.56246821654291,-6.029227662273226
1.9394130930883022,2.308752772603422,7.5021759399201775,-5.871670775703802
1.9625006208143365,2.0526471488646885,7.443459232163139,-5.736033789573095
1.9830270923029834,1.8045736675493598,7.386098894267408,-5.623163350434703
2.001072828978477,1.5639563900748985,7.329867260763061,-5.532240934497453
2.016712392879226,1.3296213625162736,7.274544851418087,-5.461657594678927
2.030008606504389,1.1001702269515246,7.219928275471298,-5.40950887779782
2.041010308773904,0.8741825018949192,7.16583318669332,-5.373850034481489
2.0497521337928535,0.6503181524818735,7.112094686348505,-5.352812500074384
2.056255315317672,0.4273655987702979,7.058566561347761,-5.344644578830029
2.060528971305375,0.20426156063848666,7.0051201155594605,-5.3477127746234006
2.06257158691176,-0.019902513470395566,6.951642987813226,-5.360483979230306
2.062372561777056,-0.24587949441084078,6.898038148020923,-5.381499404715125
2.0599137668329472,-0.47426701633127977,6.844223153973772,-5.4093460002711105
2.0551710966696346,-0.7055073981174678,6.7901296939710605,-5.44262834714564
2.04811602268846,-0.939886338577058,6.735703410499604,-5.479942617938478
2.0387171593026894,-1.1775303783386988,6.680903984320219,-5.519853511876647
2.0269418555193024,-1.418403536432297,6.625705449201453,-5.560874793451218
2.0127578201549796,-1.6623037885849232,6.570096701266941,-5.601453974007301
1.9961347822691304,-1.908860219714631,6.514082161526868,-5.639961671593587
1.977046180071984,-2.1575317810208503,6.457682544810932,-5.674686194884693
1.9554708622617756,-2.4076086183660026,6.400935682862085,-5.703833878482209
