th1 (rad),w1 (rad/s),th2 (rad),w2 (rad/s),a1 (rad/s^2),a2 (rad/s^2)
3.8644435803186177,-1.670700909464333,0.1530037588465008,2.8016704744280423,11.366703867404055,6.571098846028269
3.847736571223974,-1.5570338707902924,0.18102046359078122,2.867381462888325,11.397625643932265,6.882228178468147
3.8321662325160712,-1.4430576143509697,0.20969427821966447,2.9362037446730063,11.376014862812639,7.082627918001796
3.8177356563725615,-1.3292974657228434,0.23905631566639451,3.0070300238530243,11.290044645298314,7.160163609919846
3.804442681715333,-1.21639701926986,0.26912661590492476,3.0786316599522228,11.12881304795068,7.1039700924682005
3.792278711522634,-1.1051088887903533,0.299912932504447,3.149671360876905,10.88311866618279,6.905477502252231
3.781227622634731,-0.9962777021285254,0.33140964611321605,3.218726135899427,10.546305713995464,6.559493241638072
3.7712648456134454,-0.8908146449885708,0.3635969074722103,3.284321068315808,10.1150937311649,6.065229943113461
3.7623566991635595,-0.7896637076769217,0.3964401181553684,3.3449733677469426,9.590282753993844,5.427141629538342
3.7544600620867903,-0.6937608801369833,0.42988985183283784,3.399244784042326,8.977214398578276,4.655421224735163
3.7475224532854203,-0.6039887361512006,0.4638822996732611,3.445798996289678,8.285880555758753,3.7660314263472636
3.741482565923908,-0.5211299305936131,0.4983402896361579,3.4834593105531506,7.5306081295696,2.7801915460304096
3.736271266617972,-0.44582384929791713,0.5331748827416894,3.511261226013455,6.72930757649633,1.723320393541173
3.731813028124993,-0.37853077353295383,0.568287495001824,3.5284944299488665,5.9023442699696185,0.6235251637153972
3.7280277203896635,-0.31950733083325766,0.6035724393013127,3.5347296815860205,5.071158505656155,-0.4901925566104681
3.724832647081331,-0.2687957457766961,0.6389197361171729,3.529827756019916,4.2568049956512795,-1.5897914541370504
3.7221446896235637,-0.22622769582018332,0.6742180136773721,3.5139298414785456,3.47859387563734,-2.6498765609747053
3.719882412665362,-0.19144175706380992,0.7093573120921576,3.4874310758687987,2.7529901474830316,-3.6490257590912716
3.7179679950947238,-0.1639118555889796,0.7442316228508455,3.450940818277886,2.092875120185581,-4.570637696386738
3.716328876538834,-0.1429831043871238,0.7787410310336244,3.4052344413140188,1.5072069594567503,-5.403267690470243
3.7148990454949624,-0.1279110347925563,0.8127933754467646,3.3512017644093164,1.001054565599718,-6.140496450958461
3.7136199351470367,-0.11790048913655912,0.8463053930908577,3.2897967998997317,0.5759324580973596,-6.780432017748783
3.712440930255671,-0.11214116455558552,0.8792033610898551,3.221992479722244,0.23034010941156915,-7.3249718305679465
3.7113195186101153,-0.10983776346146983,0.9114232858870775,3.1487427614165644,-0.03959361697795902,-7.7789514842537635
3.710221140975501,-0.11023369963124942,0.9429107135012432,3.070953246574027,-0.23944710201519742,-8.149287148963403
3.7091188039791883,-0.11262817065140139,0.9736202459669835,2.9894603750843927,-0.3758879760840568,-8.44418926915084
3.7079925222726744,-0.11638705041224195,1.0035148497178275,2.9050184823928844,-0.45614079425481546,-8.672494250605673
3.706828651768552,-0.12094845835479011,1.0325650345417563,2.818293539886828,-0.48755922166302035,-8.843133977589035
3.705619167185004,-0.12582405057142032,1.0607479699406246,2.7298622001109374,-0.4773050630135012,-8.964742877258866
3.70436092667929,-0.13059710120155532,1.088046591941734,2.6402147713383486,-0.4321255055916011,-9.04538930154567
3.7030549556672745,-0.13491835625747134,1.1144487396551175,2.5497608783228918,-0.35821393074172864,-9.092411268220802
3.7017057721046998,-0.13850049556488864,1.1399463484383463,2.4588367656406835,-0.26113744078663387,-9.112334531775815
3.700320767149051,-0.141111869972755,1.1645347160947532,2.3677134203229255,-0.14581460423780337,-9.110851930508472
3.6989096484493236,-0.14257001601513303,1.1882118502979826,2.2766049010178406,-0.01652876017704665,-9.092845620372747
3.697483948289172,-0.14273530361690348,1.210977899308161,2.185676444814113,0.12303527378715748,-9.06243715962646
3.696056595253003,-0.1415049508790319,1.2328346637563021,2.0950520732178486,0.26974062308331037,-9.023053800779524
3.6946415457442128,-0.13880754464819878,1.2537851844884806,2.0048215352100534,0.420941019735948,-8.977502409970668
3.693253470297731,-0.1345981344508393,1.273833399840581,1.9150465111103467,0.5744217569095608,-8.92804500287894
3.6919074889532224,-0.1288539168817437,1.2929838649516845,1.8257660610815574,0.7283423233124022,-8.876471924277059
3.690618949784405,-0.12157049364861967,1.3112415255625,1.7370013418387868,0.8811828318836089,-8.824170242381
3.689403244847919,-0.11275866532978358,1.328611538980888,1.6487596394149768,1.0316954187668719,-8.772186050737805
3.688275658194621,-0.10244171114211487,1.3450991353750377,1.5610377789075989,1.1788611252730379,-8.721280151072031
3.6872512410832,-0.09065309988938448,1.3607095131641136,1.4738249773968786,1.3218523271676959,-8.67197710815474
3.686344710084306,-0.07743457661770753,1.3754477629380824,1.387105206315331,1.4600004887989928,-8.62460799000351
3.6855703643181292,-0.0628345717297176,1.3893188150012357,1.300859126415296,1.5927688500327932,-8.579347288810986
3.684942018600832,-0.04690688322938966,1.4023274062653885,1.2150656535271862,1.7197295667015675,-8.536244603075392
3.684472949768538,-0.029709587562373987,1.4144780628006604,1.1297032074964324,1.840544793678632,-8.495251681980543
3.6841758538929144,-0.011304139625587666,1.4257750948756247,1.044750690676627,1.9549512041488106,-8.456245412900513
3.6840628124966583,0.00824537241590044,1.436222601782391,0.960188236547622,2.0627474651366278,-8.419047288850217
3.6841452662208174,0.028872847067266717,1.4458244841478671,0.8759977636591199,2.1637842281444772,-8.383439836392727
3.68443399469149,0.05051068934871149,1.4545844617844583,0.7921633652951926,2.2579562383170577,-8.349180423698376
3.684939101584977,0.07309025173188206,1.4625060954374103,0.7086715610582088,2.3451962116777887,-8.31601280808542
3.685670004102296,0.09654221384865995,1.4695928110479923,0.6255114329773547,2.4254701751137793,-8.28367672544066
3.6866354262407826,0.12079691559979774,1.4758479253777659,0.5426746657229481,2.498774006485918,-8.251915772043187
3.6878433953967806,0.14578465566465693,1.4812746720349954,0.4601555080025162,2.5651309518340355,-8.220483783197977
3.689301241953427,0.17143596518299728,1.4858762271150205,0.3779506701705364,2.624589932946348,-8.189149872827299
3.691015601605257,0.19768186451246075,1.489655733816726,0.2960591714422634,2.6772244916800596,-8.157702263479177
3.6929924202503814,0.22445410942926136,1.4926163255311486,0.21448214880747163,2.7231322476380266,-8.125951006569323
3.695236961344674,0.25168543190564163,1.4947611470192235,0.1332226387417784,2.7624347734920844,-8.093729667416621
3.6977538156637304,0.27930977964056247,1.4960933734066413,0.05228534206761218,2.795277817792502,-8.060896028031856
3.700546913460136,0.3072625578184875,1.4966162268273173,-0.028323618212706375,2.8218318289051436,-8.027331841920201
3.703619539038321,0.3354808761075389,1.4963329906451903,-0.10859693663190839,2.842292756137271,-7.9929416586082525
3.706974347799396,0.3639038036689116,1.4952470212788713,-0.18852635321799094,2.856883125475959,-7.9576507204804905
3.7106133858360852,0.3924726349236712,1.4933617577466913,-0.26810286042279585,2.8658534079498033,-7.921401920127886
3.714538112185322,0.4211311690031692,1.4906807291424633,-0.3473168796240747,2.869483718662823,-7.884151792155874
3.718749423875354,0.44982600618979746,1.4872075603462225,-0.42615839754563345,2.868085904202965,-7.845865498744161
3.723247683937252,0.4785068652318271,1.4829459763707662,-0.5046170525330751,2.8620060954802025,-7.806510752792514
3.72803275258957,0.5071269261866291,1.4778998058454353,-0.5826821600610003,2.851627822076503,-7.766050605991084
3.733104021851436,0.5356432044073942,1.4720729842448252,-0.6603426661209111,2.8373758027166858,-7.724435011624674
3.73846045389551,0.5640169624345611,1.465469557583616,-0.7375870162371578,2.8197205441035926,-7.6815910536919585
3.7441006235198557,0.592214167875597,1.4580936874212445,-0.8144029267740774,2.799183896402602,-7.637411715790026
3.7500227651986116,0.620206006839623,1.4499496581535036,-0.8907770439319777,2.7763457269662957,-7.5917430466224545
3.7562248252670076,0.647969464109286,1.441041887714184,-0.9666944743982022,2.751851882695356,-7.544369566262931
3.7627045199081004,0.6754879829362396,1.4313749429702018,-1.0421381700608316,2.7264236131066477,-7.494997751992458
3.7694593997374626,0.702752219067306,1.4209535612695936,-1.1170881475807561,2.7008686169147027,-7.443237449812575
3.776486921928136,0.729760905236453,1.409782679793786,-1.1915205220788818,2.6760938493396913,-7.388581084996585
3.7837845309805003,0.7565218437298499,1.397867474572997,-1.2654063329288476,2.6531201779820743,-7.330380602503917
3.791349749417799,0.7830530455096706,1.3852134112437087,-1.338710138953887,2.633098891880707,-7.267822169609099
3.7991802798728953,0.8093840344284776,1.3718263098541699,-1.411388360649978,2.617329938023894,-7.199898837007432
3.8072741202171803,0.8355573338087166,1.35771242624767,-1.4833873490200522,2.6072815651240786,-7.125381604498358
3.8156296935552674,0.8616301494599573,1.3428785527574696,-1.5546411650650358,2.6046107749396468,-7.042789702331101
3.824245995049867,0.8876762572093537,1.3273321411068193,-1.6250690620883468,2.6111835922299207,-6.950361414022466
3.83312275762196,0.9137880931316529,1.3110814504859358,-1.6945726762285713,2.6290936387352173,-6.846027469172677
3.842260638553277,0.940079029519005,1.2941357237236502,-1.763032950920298,2.660676808627464,-6.727389963188203
3.851661428848467,0.9666857976052796,1.276505394214447,-1.83030685055218,2.708518974250874,-6.591710943749988
3.8613282868245196,0.9937709873477883,1.2582023257089252,-1.89622395998968,2.7754526011722414,-6.43591624726951
3.8712659966979976,1.0215255133595107,1.2392400861090285,-1.960583122462375,2.8645369544726496,-6.256621833189577
3.881481251831593,1.050170882904237,1.2196342548844048,-2.0231493407942707,2.9790153255521945,-6.050191633270842
3.891982960660635,1.0799610361597591,1.1994027614764622,-2.083651257126979,3.122241580296222,-5.812837571150642
3.902782571022233,1.1111834519627213,1.1785662489051925,-2.1417796328384853,3.297567627071327,-5.540773511426102
3.91389440554186,1.1441591282334345,1.1571484525768077,-2.1971873679527465,3.5081835793551686,-5.230434854394976
3.9253359968241943,1.179240964026986,1.1351765788972803,-2.249491716496696,3.7569040532258042,-4.878773465132962
3.9371284064644643,1.216810004559244,1.1126816617323134,-2.2982794511480256,4.0458979199189855,-4.483632603160495
3.949296506510057,1.2572689837584339,1.0896988672208332,-2.3431157771796305,4.37636564073947,-4.044197484043917
3.9618691963476413,1.3010326401658285,1.066267709449037,-2.3835577520200695,4.748178496927389,-3.561503364732559
3.9748795227492995,1.3485144251351024,1.0424321319288363,-2.4191727856673952,5.159507400381464,-3.038964751354632
3.9883646670006505,1.4001094991389171,1.0182404040721624,-2.4495624331809416,5.606484238485705,-2.482868118988572
4.002365761992039,1.4561743415237742,0.993744779740353,-2.4743911143708273,6.082953075774776,-1.902750101358482
4.016927505407277,1.517003872281522,0.9690008685966447,-2.493418615384412,6.580377657783058,-1.311569340093094
4.032097544130092,1.5828076488593525,0.9440666824428006,-2.506534308785343,7.087970236221057,-0.7255804010890082
4.0479256206186855,1.653687351221563,0.9190013393549471,-2.513790112796233,7.593089994806229,-0.16383915796101772
4.064462494130901,1.7296182511696254,0.8938634382269848,-2.5154285043758433,8.081925308197757,0.3526859726103857
4.081758676642598,1.810437504251603,0.8687091531832264,-2.5119016446497393,8.54042574876254,0.8023570939608882
4.099863051685114,1.8958417617392285,0.843590136736729,-2.5038780737101303,8.955396283892886,1.164350259715036
4.118821469302507,1.9853957245781573,0.8185513559996277,-2.49223457111298,9.315621309214114,1.420201247950809
4.138675426548288,2.0785519376702983,0.7936290102884979,-2.4780325586334717,9.612864478411744,1.5552015305193347
4.159460945924991,2.1746805824544158,0.7688486847021632,-2.462480543328278,9.842601168950912,1.559441900979144
4.181207751749535,2.273106594143925,0.7442238792688803,-2.4468861243184867,10.004383795412984,1.4283557590002647
4.203938817690974,2.373150432098055,0.7197550180256955,-2.4326025667284843,10.101805540404094,1.162700427660953
4.227670322011955,2.4741684875020957,0.6954289923584107,-2.4209755624518747,10.142098025387062,0.7680101344535235
4.252412006886976,2.5755894677559663,0.6712192367338919,-2.4132954611073396,10.135455170637744,0.25363405615839846
4.278167901564536,2.676944019462344,0.6470862821228185,-2.4107591205457557,10.094206964278744,-0.3684801474801186
4.304937341759159,2.7778860891051314,0.6229786909173609,-2.4144439220205567,10.031970024059852,-1.0850880930167808
4.332716202650211,2.87820578934573,0.5988342516971553,-2.4252948029507246,9.962881884867963,-1.8828902048554819
4.3614982605436685,2.9778346081944096,0.574581303667648,-2.4441237049992797,9.90099279969471,-2.7496111302094914
4.391276606625612,3.0768445361913566,0.5501400666176552,-2.4716198163013745,9.85985297529618,-3.6748648641631867
4.422045051987526,3.1754430659443185,0.5254238684546415,-2.5083684649430062,9.852302547941337,-4.65079829474947
4.45379948264697,3.273966091423732,0.5003401838052114,-2.554876447890501,9.890450486613496,-5.672539825495608
4.486539143561207,3.3728705962898666,0.47479141932630636,-2.611601846145457,9.985817850082968,-6.738501240806292
4.520267849524106,3.4727287747906965,0.4486754008648518,-2.67898685855352,10.149619049382775,-7.850591760881938
4.554995137272012,3.5742249652845244,0.4218855322793166,-2.7574927761623393,10.393159648717688,-9.014406592667983
4.590737386924857,3.678156561771701,0.3943106045176932,-2.847636842089019,10.728338450344255,-10.239451826405341
4.627518952542574,3.785439946275144,0.365834236096803,-2.9500313603530723,11.168253354754775,-11.53946638038887
4.665373352005325,3.8971224798226913,0.33633392249327226,-3.065426024156961,11.727923624543305,-12.932902152138384
4.704344576803552,4.014401716068124,0.3056796622517027,-3.194755045678345,12.42515503754926,-14.44362688010691
4.744488593964234,4.138653266443617,0.27373211179491924,-3.339191314479414,13.281588299223724,-16.101920423853727
4.78587512662867,4.2714691494358545,0.2403401986501251,-3.5002105187179513,14.323983286668911,-17.9458419185258
4.828589818123029,4.414708982302543,0.20533809346294557,-3.6796689379032093,15.585797401487273,-20.023045394339377
4.872736907946054,4.570566956317416,0.1685414040839135,-3.879899391846603,17.10910293412291,-22.393096710813506
4.918442577509229,4.7416579856586445,0.12974241016544746,-4.103830358954738,18.946824839064607,-25.130250841951526
4.9658591573658155,4.931126234049291,0.08870410657590008,-4.3551328673742535,21.165092219238467,-28.326380664007793
5.015170419706308,5.142777156241675,0.04515277790215755,-4.638396674014332,23.845007690628204,-32.09305863919036
5.066598191268725,5.381227233147957,-0.0012311888379857722,-4.959327260406235,27.081933166566024,-36.560098339334004
5.120410463600205,5.652046564813618,-0.05082446144204813,-5.324928243799575,30.97749888803854,-41.863803731159905
5.176930929248341,5.961821553694003,-0.10407374388004388,-5.743566281111174,35.612758943989384,-48.108655662035694
5.236549144785281,6.317949143133897,-0.16150940669115563,-6.224652837731531,40.975566154775656,-55.26462327783436
5.29972863621662,6.727704804681654,-0.22375593506847094,-6.777299070509875,46.783316938761715,-62.91747162136102
5.367005684263436,7.195537974069271,-0.2915289257735697,-7.406473786723485,52.09023108604419,-69.71640483763838
5.438961064004129,7.716440284929713,-0.36559366364080453,-8.10363783509987,54.554823573042015,-72.3443420700869
5.516125466853426,8.261988520660132,-0.44663004199180323,-8.827081255800739,49.61140361188523,-64.35359258102189
5.598745352060027,8.758102556778985,-0.5349008545498106,-9.470617181610958,31.417383331833832,-37.498753416318024
5.686326377627817,9.072276390097324,-0.6296070263659203,-9.845604715774138,-0.6179683089888038,9.083032952097023
5.77704914152879,9.066096707007436,-0.7280630735236616,-9.754774386253168,-33.813610875416195,57.59722105183391
5.867710108598865,8.727960598253274,-0.8256108173861934,-9.178802175734829,-51.892770232150184,85.16621861219234
5.954989714581398,8.209032895931772,-0.9173988391435417,-8.327139989612906,-53.344784989206815,89.57896395497181
6.0370800435407155,7.6755850460397035,-1.0006702390396707,-7.431350350063188,-46.60022270474184,82.55631077884388
6.113835894001112,7.209582818992285,-1.0749837425403026,-6.60578724227475,-38.04120561750853,72.9956608742828
6.185931722191035,6.829170762817199,-1.14104161496305,-5.875830633531922,-30.16074527751922,64.38779032531295
6.254223429819207,6.527563310042007,-1.1997999212983692,-5.231952730278792,-23.525095994010947,57.539728601467544
6.319499062919627,6.292312350101898,-1.252119448601157,-4.656555444264116,-18.063307310210106,52.3647763230047
6.382422186420646,6.111679276999797,-1.2986850030437982,-4.1329076810340695,-13.561293377836263,48.56801597481517
6.443538979190644,5.976066343221435,-1.340014079854139,-3.6472275212859175,-9.812821479098103,45.85554501326789
6.503299642622859,5.877938128430453,-1.3764863550669981,-3.1886720711532384,-6.654458402675249,43.98253457310111
6.562079023907164,5.811393544403701,-1.4083730757785304,-2.748846725422227,-3.9662063572774073,42.753600240852656
6.6201929593512014,5.771731480830926,-1.4358615430327526,-2.3213107230137004,-1.66401949320471,42.01200519093956
6.677910274159511,5.755091285898879,-1.4590746502628895,-1.9011906711043047,0.3081842869851274,41.62851741410771
6.735461187018499,5.75817312876873,-1.4780865569739325,-1.4849054969632276,1.985267169112371,41.49264850679619
6.7930429183061865,5.7780258004598535,-1.4929356119435648,-1.0699790118952657,3.386342515278406,41.50661933571165
6.850823176310785,5.811889225612638,-1.5036354020625176,-0.6549128185381492,4.5193442942235595,41.58179305711658
6.908942068566911,5.857082668554874,-1.5101845302478991,-0.23909488796698342,5.385053835888977,41.63720771360991
6.96751289525246,5.9109332069137634,-1.512575479127569,0.17727718916911572,5.980807721282851,41.599820157518174
7.026622227321598,5.970741284126592,-1.5108027072358778,0.5932753907442975,6.303946263298774,41.40602512775046
7.086329640162863,6.03378074675958,-1.5048699533284349,1.007335642021802,6.354908376871453,41.00393015036984
7.146667447630459,6.097329830528294,-1.4947965969082169,1.4173749435255005,6.139765410491305,40.35578543728526
7.207640745935742,6.158727484633207,-1.480622847472962,1.8209327978983532,5.671940843670282,39.43994067884885
7.269228020782074,6.21544689306991,-1.4624135194939785,2.2153322046868418,4.972901837264706,38.251772324954395
7.331382489712773,6.265175911442556,-1.44026019744711,2.5978499279363856,4.0717289039460764,36.80321110665213
7.394034248827198,6.305893200482017,-1.4142816981677462,2.965882039002907,3.003641966160034,35.120773929377016
7.457093180832018,6.3359296201436175,-1.3846228777777172,3.317089778296677,1.8077355943292486,33.24230352219743
7.520452477033454,6.35400697608691,-1.3514519799947504,3.649512813518651,0.5243012182411754,31.212865270023432
7.583992546794323,6.359249988269322,-1.314956851859564,3.9616414662188855,-0.8078454892739778,29.080381179905388
7.647585046677016,6.351171533376582,-1.275340437197375,4.252445278017939,-2.1536635283037278,26.891572858561275
7.711096762010782,6.329634898093545,-1.2328159844171958,4.521361006603552,-3.483559708424045,24.688659929592426
7.774393110991717,6.294799301009304,-1.1876023743511603,4.768247605899476,-4.774327640012192,22.507069201378645
7.83734110400181,6.247056024609182,-1.1399198982921657,4.993318297913262,-6.009376138797244,20.37421200135392
