th1 (rad),w1 (rad/s),th2 (rad),w2 (rad/s)
5.645836870307412,1.3655325569942984,1.9992129188327237,1.3273304732337605
5.659492195877355,1.397334855652914,2.012486223565061,1.256997365117856
5.673465544433885,1.4267667286849657,2.0250561972162395,1.1847008863126711
5.687733211720735,1.4538133665368522,2.036903206079366,1.1104051304749791
5.702271345386103,1.4784644805437652,2.048007257384116,1.0340786957831192
5.717055990191541,1.5007153729405696,2.058348044341947,0.9556957885153751
5.732063143920947,1.5205680805682926,2.067905002227101,0.8752374118011347
5.74726882472663,1.5380325668072001,2.0766573763451124,0.7926925987371388
5.762649150394702,1.5531279326074345,2.084584302332484,0.7080596446623987
5.778180429720776,1.5658836143176926,2.0916648987791078,0.6213472898489987
5.793839265863953,1.5763405335198586,2.0978783716775977,0.5325758014646956
5.809602671199152,1.5845521624767114,2.103204129692245,0.4417779026888429
5.825448192823919,1.5905854683149923,2.1076219087191332,0.3489994976019265
5.841354047507069,1.594521699911711,2.1111119036951527,0.2543001431704467
5.857299264506186,1.5964569838080436,2.113654905126857,0.15775322449087725
5.873263834344266,1.5965026994627844,2.1152324373717657,0.05944579650955681
5.889228861338894,1.594785609810605,2.1158268953368613,-0.04052193536910258
5.905176717437,1.5914477303366907,2.1154216759831703,-0.1420375122673222
5.921091194740367,1.5866459285251067,2.114001300860497,-0.2449775002804074
5.936957654025617,1.5805512552658985,2.111551525857693,-0.3492091407067548
5.9527631665782765,1.5733480201841599,2.108059434450625,-0.4545923486136644
5.968496646780118,1.56523263336231,2.1035135109644885,-0.5609820231066673
5.984148973113742,1.556412245991661,2.0979036907334216,-0.6682306209123671
5.999713095573658,1.5471032315331106,2.091221384524298,-0.7761909353582759
6.01518412788899,1.5375295564589797,2.0834594751707156,-0.8847190162307913
6.030559423453579,1.5279210951566138,2.0746122850084077,-0.9936771628289389
6.045838634405145,1.518511946809561,2.0646755133801182,-1.102936923092228
6.061023753873241,1.5095388129163638,2.0536461441491958,-1.212382035994564
6.076119142002405,1.5012394926278732,2.04152232378925,-1.3219112622345472
6.091131536928684,1.4938515495280058,2.0283032111669046,-1.431441059158836
6.106070052423964,1.4876111982513398,2.013988800575316,-1.5409080691963264
6.120946164406477,1.4827524529415437,1.9985797198833528,-1.6502714061166397
6.135773688935893,1.4795065725941592,1.9820770058221864,-1.7595147393878998
6.150568754661834,1.4781018314016094,1.9644818584283075,-1.868648193074592
6.16534977297585,1.4787636359059428,1.9457953764975615,-1.9777100914786354
6.18013740933491,1.481715005578106,1.926018275582775,-2.086768598640624
6.194954559390691,1.4871774297999094,1.9051505895963687,-2.1959233126291027
6.2098263336886905,1.495372112434021,1.8831913564700777,-2.3053068881953744
6.2247800548130305,1.5065216154173473,1.860138287588124,-2.415086772980002
6.239845270967204,1.5208519151703803,1.835987419858324,-2.5254671532850144
6.255053790118908,1.5385948900154323,1.8107327483254738,-2.636691215810763
6.2704397390190625,1.5599912630228312,1.7843658361673662,-2.749043842024183
6.286039651649291,1.5852940323310507,1.7568753977471243,-2.8628548621580894
6.301892591972601,1.6147724292700218,1.7282468491255434,-2.978503006077604
6.318040316265302,1.6487164522832278,1.6984618190647673,-3.096420697566329
6.334527480788134,1.6874420295164476,1.667497612089104,-3.217099844969305
6.351401901083299,1.7312968612834487,1.6353266136394111,-3.341098780492855
6.3687148696961335,1.7806669790069918,1.6019156258344827,-3.469050485115744
6.386521539486203,1.8359840186104655,1.5672251209833252,-3.6016721921077415
6.404881379672308,1.8977331246724292,1.5312083990622478,-3.7397763649330567
6.423858710919032,1.9664612442088958,1.4938106354129173,-3.8842828516097474
6.443523323361121,2.04278527938517,1.4549678068968197,-4.0362316520347
6.463951176154972,2.1273990499553332,1.4146054903764727,-4.1967950664876685
6.4852251666545255,2.221077102772685,1.372637539711596,-4.367286796195623
6.507435937682253,2.324671814375787,1.3289646717496397,-4.549163451915474
6.530682655826011,2.439097487235799,1.283473037230485,-4.744010235487494
6.555073630698369,2.565290458861134,1.23603293487561,-4.953496203500974
6.58072653528698,2.704126402722378,1.1864979728406002,-5.179273785441786
6.607767799314204,2.8562632743289176,1.1347052349861824,-5.422779661015595
6.636330432057493,3.0218588790055634,1.0804774383760265,-5.684866988710612
6.666549020847548,3.200085657134634,1.0236287684889205,-5.965161853582157
6.698549877418895,3.388339577815966,0.9639771499530989,-6.260999732102869
6.732433273197055,3.581045799559042,0.9013671526320702,-6.565802832078624
6.768243731192645,3.7680849152963884,0.835709124311284,-6.866922204821503
6.805924580345609,3.9332629212496437,0.767039902263069,-7.143515710542396
6.845257209558105,4.054072584699607,0.695604745157645,-7.366170676062452
6.885797935405101,4.104886988412596,0.6219430383970205,-7.501217628784108
6.926846805289227,4.065027938779178,0.5469308621091794,-7.521719330996472
6.967497084677018,3.9288752506273816,0.47171366879921467,-7.421210520801359
7.006785837183292,3.7101976404229995,0.3975015635912011,-7.219418613048878
7.0438878135875225,3.435787244658729,0.3253073774607123,-6.953309215898951
7.078245686034109,3.1337283939084,0.2557742853017228,-6.660963965179542
7.109582969973194,2.82529803026038,0.18916464564992738,-6.370671579301461
7.1378359502757975,2.5232355822362433,0.1254579298569128,-6.098825491301681
7.16306830609816,2.2336322135806026,0.06446967494389598,-5.852707890905515
7.185404628233966,1.958470917972686,0.005942596034840826,-5.634058696665849
7.204989337413693,1.6975602441828537,-0.05039799093181767,-5.441740189186438
7.221964939855521,1.449721409130612,-0.10481539282368205,-5.27334398258027
7.236462153946827,1.213436339416021,-0.15754883264948474,-5.126048711654055
7.248596517340988,0.9871725651927586,-0.2088093197660253,-4.997035379664924
7.258468242992915,0.7695315820348697,-0.2587796735626745,-4.883665199220998
7.266163558813264,0.5593062555461048,-0.3076163255548845,-4.78353796948901
7.271756621368725,0.35549369725687624,-0.3554517052497746,-4.694494272065232
7.275311558341294,0.15728773262272994,-0.4023966479704269,-4.614593948483098
7.2768844356675215,-0.035936942008265166,-0.4485425874552579,-4.542086908687244
7.276525066247439,-0.2246431028709582,-0.4939634565421303,-4.475383847544254
7.27427863521873,-0.40914924782138673,-0.5387172950175728,-4.413030171726599
7.270187142740516,-0.589646761780632,-0.5828475967348388,-4.353684332456333
7.26429067512271,-0.7662157801999504,-0.6263844400594021,-4.296100754013425
7.25662851732071,-0.9388398733157566,-0.6693454475995363,-4.239117091977561
7.247240118587552,-1.1074197961793681,-0.7117366185193119,-4.181645366663235
7.2361659206257585,-1.2717865620924,-0.7535530721859443,-4.122666453560047
7.223448055004835,-1.4317140571135445,-0.7947797367215447,-4.061227403388676
7.2091309144336995,-1.586931350711538,-0.8353920107554315,-3.9964410763926863
7.193261600926584,-1.737134788579343,-0.8753564215193583,-3.9274875944721983
7.17589025304079,-1.881999887143873,-0.9146312974640803,-3.8536171359535807
7.157070254169351,-2.021192990695684,-0.9531674688236161,-3.774153620785097
7.136858324262395,-2.1543826044572687,-0.9909090050314671,-3.6884988599888078
7.115314498217822,-2.281250281990391,-1.0277939936313552,-3.5961367736690453
7.092501995397918,-2.4015009236428897,-1.0637553613680457,-3.496637317561502
7.068486986161489,-2.514872333784817,-1.0987217345436608,-3.3896597989045834
7.043338262823641,-2.621143887068566,-1.1326183325327066,-3.274955307379359
7.017126823952956,-2.7201441659277292,-1.1653678856065002,-3.152368034454318
6.989925382293679,-2.8117574507290923,-1.1968915659510433,-3.0218353029215033
6.961807807786388,-2.8959289681285254,-1.2271099189802583,-2.8833861761287802
6.932848518105103,-2.972668830274472,-1.2559437807415461,-2.7371385623019853
6.903121829802358,-3.042054626104785,-1.2833151663645659,-2.5832947729850635
6.87270128354131,-3.1042326552800015,-1.3091481140944166,-2.4221355362357744
6.84165895698851,-3.159417825058111,-1.3333694694567744,-2.254012505473975
6.810064778737928,-3.2078922608036375,-1.355909594511514,-2.079339344550186
6.777985856129892,-3.2500027121024164,-1.3767029879570158,-1.8985815091066351
6.745485829008867,-3.2861568686749707,-1.3956888030480823,-1.712244883338171
6.712624260322118,-3.316818733016732,-1.412811251881464,-1.5208634685509277
6.67945607299195,-3.342503228880999,-1.4280198865669733,-1.324986353185067
6.64603104070314,-3.36377025467526,-1.441269750098824,-1.1251642201538374
6.612393338156387,-3.381218416429605,-1.4525213923003624,-0.9219356630538195
6.578581153992091,-3.39547869394263,-1.4617407489309007,-0.7158135848711007
6.544626367052665,-3.407208303971291,-1.4688988847796116,-0.5072719389764958
6.510554284012952,-3.4170850244404773,-1.4739716041693767,-0.2967330416303611
6.476383433768547,-3.425802232950482,-1.4769389345856803,-0.0845556388671862
6.442125411439042,-3.4340648915539047,-1.477784490974352,0.1289761485772755
6.4077847625235025,-3.4425866787078068,-1.4764947294885793,0.3436629458533409
6.373358895736424,-3.4520884295107797,-1.4730581000300458,0.5593993222319313
6.338838011441316,-3.463297997243975,-1.4674641068077265,0.7761821405820506
6.304205031468877,-3.4769515915736657,-1.459702285401906,0.994118175366875
6.26943551555314,-3.4937965769563966,-1.4497611036482372,1.2134311283025268
6.234497549783576,-3.5145956185816973,-1.437626792365212,1.434468131035568
6.1993515935977594,-3.5401319231011956,-1.4232821110548564,1.6577057025252453
6.163950274366748,-3.5712151029059807,-1.406705054029604,1.8837548767176593
6.128238123337688,-3.6086868368292353,-1.3878675052624274,2.1133647533413438
6.092151254969396,-3.6534249079032053,-1.366733857729014,2.347422917314228
6.0556170058903644,-3.706343206244449,-1.3432596285558718,2.5869497972839146
6.01855357382792,-3.7683836244897586,-1.3173901305830327,2.833081724169347
5.980869737583022,-3.840493017021891,-1.2890593133413393,3.087033616413881
5.9424648074128035,-3.923573888939717,-1.2581889771772006,3.350025953203148
5.903229068523406,-4.01839030992092,-1.224688717645169,3.6231507225400272
5.863045165424197,-4.125399668272704,-1.1884572104197688,3.9071358841821695
5.82179116874147,-4.2444658401811,-1.1493858515779471,4.20194691488945
5.779346510339659,-4.374392613871857,-1.1073663824290527,4.506140598919564
5.73560258420094,-4.512209191238515,-1.062304976439857,4.815876249084406
5.690480492288555,-4.65217519896522,-1.014146213949013,5.123538863384393
5.643958740298903,-4.78462229526575,-0.962910825315169,5.416137052954749
5.596112517346246,-4.8951157075255685,-0.9087494547856215,5.674149196112229
5.54716136027099,-4.965006722656234,-0.8520079628244992,5.872310614511886
5.497511293044427,-4.974793617056907,-0.7932848566793803,5.984314455096059
5.447763356873858,-4.910614052951413,-0.7334417121284197,5.991861130152495
5.398657216344343,-4.771003269647215,-0.6735231008268947,5.894030822335248
5.350947183647871,-4.568645801798002,-0.6145827926035422,5.709613992943446
5.305260725629891,-4.32496674238284,-0.5574866526741078,5.469441389489392
5.262011058206062,-4.061792706665476,-0.5027922387792139,5.204686746044197
5.221393131139408,-3.7957644655768994,-0.4507453713187719,4.939088107731153
5.1834354864836385,-3.5370692215276125,-0.40135449024146036,4.687235366046724
5.148064794268362,-3.290713239923594,-0.35448213658099315,4.456399200421243
5.115157661869126,-3.0583608397921367,-0.3099181445767807,4.249131542779048
5.084574053471204,-2.839814932612355,-0.2674268291489902,4.065349409528864
5.056175904145081,-2.6339746968929503,-0.22677333505370156,3.9036791138161084
5.029836157176152,-2.4393850349629393,-0.18773654391554048,3.7622257107858794
5.005442306826522,-2.2545261165140777,-0.15011428680768168,3.638977330207468
4.982897045661381,-2.0779533544310063,-0.113724513505607,3.531999666998452
4.962117512117071,-1.9083565445586734,-0.07840451683562248,3.4395171023207074
4.943033946671484,-1.7445775302985513,-0.044009345812415404,3.3599356129425835
4.925588171368498,-1.585607881065542,-0.010409989682989569,3.291837552349438
4.909732092557843,-1.4305779224046857,0.02250838584050481,3.233964173303191
4.895426313333796,-1.2787428984589533,0.054848027573536726,3.1851939948696852
4.882638884349206,-1.129469075282558,0.08669996752223358,3.1445209716890528
4.87134419359638,-0.9822210343413448,0.1181451772391241,3.111034255171459
4.861521983252967,-0.8365506060603188,0.1492555197908387,3.0839002300653062
4.853156477192363,-0.6920874972563766,0.18009452209149177,3.062346967006601
4.846235602219799,-0.5485314818188106,0.21071799176155778,3.045650983786172
4.840750287401612,-0.40564594846625124,0.2411745015994195,3.03312611155355
4.83669382791695,-0.26325257838372096,0.271505762714955,3.024114240605604
4.8340613021331125,-0.12122693048882932,0.30174690512101104,3.017977733435658
4.832849032828224,0.020505271662316693,0.3319266824553676,3.0140933193022175
4.833054085544847,0.16197133698339033,0.3620676156483898,3.011847313985964
4.8346737989146815,0.303154452550826,0.39218608878824945,3.0106320354015033
4.83770534344019,0.44399632192607585,0.4222924091422645,3.0098433079934828
4.84214530665945,0.5843997205003924,0.45239084222219933,3.008878965599902
4.847989303864454,0.7242310733733587,0.48247963187819837,3.0071382737639665
4.855231614598187,0.8633231429458862,0.5125510146158381,3.004022198834328
4.863864846027647,1.0014778954659755,0.5425912366041814,2.9989344533938183
4.873879624982306,1.1384695981841373,0.5725805811381196,2.9912832465410784
4.885264320964148,1.2740481816917832,0.6024934136035304,2.9804836643477794
4.898004802781066,1.4079428857190888,0.6322982502470081,2.9659606014773083
4.912084231638257,1.539866191558034,0.6619578562617813,2.94715216047707
4.9274828935538375,1.6695180307962392,0.691429377866552,2.9235134315084976
4.9441780738618,1.7965902486082035,0.720664512181637,2.8945205628966617
4.962143976347882,1.9207712907444003,0.7496097178106036,2.8596750322027735
4.981351689255326,2.0417510766817966,0.7782064681326313,2.8185080285247843
5.001769200022144,2.1592260169974216,0.8063915484178791,2.7705848590074824
5.023361460192119,2.272904130472888,0.8340973970079539,2.7155092953328412
5.046090501496847,2.382510215055676,0.8612524899612823,2.652927778233546
5.069915603647404,2.487791025737326,0.8877817677436178,2.58253339867304
5.0947935139047775,2.5885204107440942,0.9136071017303482,2.5040695721796355
5.120678718012218,2.6845043543520197,0.9386477974521445,2.4173333171208493
5.147523761555739,2.7755858695859796,0.9628211306233531,2.3221780381892656
5.175279620251599,2.8616496769312145,0.9860429110052458,2.2185157034882255
5.2038961170209115,2.9426265964413814,1.008228068040128,2.1063182886301846
5.2333223829853255,3.018497571380906,1.02929125092643,1.9856183463038781
5.263507358699134,3.0892972335293294,1.049147434389469,1.8565085476389107
5.294400331034427,3.155116915738422,1.067712519865858,1.7191400356172757
5.325951500191811,3.216107018766572,1.0849039202220307,1.5737194339444167
5.358112570379477,3.2724786492444835,1.100641114561475,1.4205043698268796
5.390837356871922,3.3245044658151435,1.1148461582597438,1.2597973974985721
5.4240824015300735,3.372518702153008,1.1274441322347295,1.0919382509245061
5.457807588551604,3.4169163786510555,1.1383635147439746,0.9172944067084335
5.491976752338115,3.4581517676827125,1.1475364588110588,0.7362499975514196
5.526558270014942,3.496736237808581,1.154898958786573,0.5491931764916802
5.561525632393027,3.533235666371712,1.16039089055149,0.35650208514209114
5.596857989056744,3.5682676732993666,1.1639559114029108,0.15852961733186374
5.632540665789738,3.6024989873161277,1.1655412075762295,-0.04441281435136704
5.668565655662899,3.6366433055219045,1.1650970794327158,-0.2520723132866124
5.7049320887181185,3.671460045858396,1.1625763562998497,-0.4642721814585372
5.741646689176703,3.707754418109872,1.1579336344852642,-0.6809301696673569
5.778724233357801,3.746379252421392,1.1511243327885907,-0.9020773142355992
5.816188025882015,3.788239024394611,1.1421035596462348,-1.1278774955832975
5.854070416125961,3.834296499879664,1.1308247846904018,-1.3586479721409581
5.892413381124758,3.8855823817262114,1.1172383049689922,-1.5948812372588372
5.93126920494202,3.9432082531629984,1.1012894925964039,-1.8372685738498056
5.97070128747365,4.0083829312326715,1.0829168068579058,-2.086725565329763
6.010785116785977,4.082431974606659,1.0620495512046082,-2.344419423152109
6.051609436532043,4.166819350402025,1.038605356973087,-2.6117970525035097
6.093277630036064,4.263168806017936,1.012487386448052,-2.890610813328597
6.135909318096243,4.373279657301071,0.9835812783147659,-3.182935031337473
6.179642114669254,4.499126265462172,0.9517519280013912,-3.4911587667053814
6.224633377323876,4.6428201746080315,0.9168403403343374,-3.817926014333279
6.271061579069956,4.8064947059546625,0.8786610801910045,-4.1659677909648
6.319126526129502,4.992037113592841,0.8370014022813566,-4.5377221828787535
6.369046897265431,5.200533989251491,0.791624180452569,-4.934555487218009
6.421052237157946,5.431205132688535,0.7422786255803889,-5.355271176034622
6.4753642884848315,5.679501380729661,0.6887259138200427,-5.793453965779548
6.532159302292128,5.934062827026878,0.6307913741622472,-6.233225655384125
6.591499930562397,6.172787499003551,0.568459117608406,-6.643765049246329
6.653227805552432,6.36014403551044,0.5020214671159426,-6.975583706125008
6.716829245907537,6.451232228633059,0.43226563005469254,-7.166269732060201
6.781341568193867,6.40865053051813,0.3606029327340905,-7.164169497460246
6.845428073499049,6.2265148725807,0.288961237759488,-6.962016110417777
6.9076932222248555,5.938341703641919,0.21934107665531022,-6.607826689261364
6.967076639261275,5.596582294669282,0.15326280976269657,-6.176060285782497
7.023042462207967,5.245751893191618,0.0915022069048716,-5.729922260708486
7.075499981139884,4.9118090518172375,0.03420298429778673,-5.306524313412382
7.124618071658056,4.605456637906422,-0.01886225883633709,-4.921544384846523
7.170672638037121,4.328681620863795,-0.06807770268480232,-4.5783985148924655
7.213959454245758,4.0795133201225795,-0.11386168783372697,-4.274907420014239
7.2547545874469845,3.8545956595836173,-0.15661076203386937,-4.006901602699246
7.293300544042821,3.6503719493226114,-0.19667977806086184,-3.769885221571682
7.329804263536047,3.4635582519513775,-0.23437863027657865,-3.559704480828872
7.364439846055562,3.291289659569751,-0.26997567508486736,-3.3727576337916805
7.397352742651259,3.131128735629655,-0.30370325142278415,-3.2060110191299236
7.428664030007556,2.981022822825887,-0.3357633616140834,-3.056942339775755
7.458474258235815,2.839247825911361,-0.3663327850118409,-2.9234638695218105
7.486866736494928,2.7043536483740294,-0.395567423707059,-2.803846959632546
7.513910272978668,2.5751165564477208,-0.42360589330338444,-2.696655377931059
7.5396614385431455,2.4504995534363525,-0.45057244708269506,-2.600689146277327
7.564166434077509,2.3296202116476517,-0.47657933854546836,-2.514938242663493
7.587462636193986,2.2117248863132706,-0.5017287209721033,-2.438544790676718
7.609579885057118,2.0961681750534003,-0.5261141688788705,-2.3707722641422153
7.630541566807652,1.982396598545899,-0.5498218915202927,-2.310980384364674
7.650365532793112,1.8699356382395296,-0.5729316953639394,-2.258604606544028
7.669064889175507,1.758379424509679,-0.5955177414293796,-2.213139309035237
7.686648683420604,1.647382505784237,-0.617649134519732,-2.1741239884494643
7.703122508478446,1.5366532421252261,-0.6393903744042266,-2.141131919145312
7.718489040899698,1.4259484573539738,-0.6608016935956798,-2.1137608592550423
7.732748525473237,1.3150690556646671,-0.6819393021882302,-2.0916254814397504
7.745899216029884,1.2038563656007626,-0.7028555570026277,-2.0743512798523525
