th1 (rad),w1 (rad/s),th2 (rad),w2 (rad/s)
3.080092904289,-0.7549556380712318,2.8879427612440294,2.309121086690738
3.072543347908288,-0.7541432269408104,2.911033972110937,2.2848200800587377
3.06500191563888,-0.7548419218851794,2.9338821729115243,2.2640291464092828
3.057453496420028,-0.7572028785194121,2.956522464375617,2.2469052271171153
3.049881467634834,-0.7613525397566491,2.978991516646788,2.2335779607253636
3.0422679422372676,-0.7673907013793562,3.0013272962540416,2.2241467449696892
3.034594035223474,-0.7753889812938972,3.0235687637037385,2.218678374782661
3.026840145410535,-0.785389688572232,3.045755547451565,2.217205252512823
3.0189862485248127,-0.7974050892295874,3.0679275999766933,2.2197241677404556
3.0110121976325166,-0.811417073292493,3.090124841654098,2.226195654422065
3.0028980268995915,-0.8273772395790555,3.1123867981983184,2.236543949236122
2.994624254503801,-0.8452074274369994,3.13475223769068,2.250657592404016
2.986172180229431,-0.8648007347650362,3.15725881361472,2.268390725846279
2.9775241728817807,-0.8860230653623522,3.179942720873183,2.2895651483419455
2.968663942228157,-0.9087152429980231,3.2028383723566023,2.313973179264641
2.959576789798177,-0.9326957126972995,3.225978104149249,2.3413813589309522
2.950249832671204,-0.9577638213601933,3.249391917738558,2.371534974324012
2.9406721944576018,-0.9837036316691391,3.2731072674817985,2.4041633463613628
2.9308351581409102,-1.0102881790272904,3.297148900945412,2.4389857541504942
2.920732276350637,-1.0372840364121458,3.321538758486917,2.4757178103364996
2.9103594359865155,-1.0644560129158605,3.3462959365902822,2.514078048528292
2.8997148758573568,-1.091571784671193,3.3714367170755652,2.5537944475701755
2.8887991580106447,-1.1184062468405782,3.396974661551267,2.5946106049608466
2.877615095542239,-1.1447453850337115,3.4229207676008753,2.636291286580701
2.8661676416919017,-1.1703894935791033,3.4492836804666824,2.6786271214744897
2.8544637467561107,-1.1951556131470953,3.4760699516814273,2.721438273973497
2.84251219062464,-1.2188791155439336,3.503284334421162,2.7645770028569774
2.8303233994692003,-1.2414144220226968,3.530930104449732,2.8079290987453756
2.8179092552489733,-1.262634896180753,3.5590093954371858,2.8514142667999547
2.805282906287166,-1.2824319976670477,3.5875235381051853,2.8949855841573564
2.792458586310495,-1.3007138147851578,3.616473393946759,2.9386282053102737
2.779451448162644,-1.317403111266919,3.6458596759998616,2.9823575120678503
2.7662774170499747,-1.332435025761382,3.67568325112054,3.026216908953269
2.7529530667923607,-1.345754554279179,3.705945420210073,3.070275453251887
2.739495521249569,-1.3573139291858156,3.7366481747425917,3.1146254859233666
2.725922381957711,-1.3670699867966452,3.7677944296018255,3.1593803999868553
2.7122516820897444,-1.374981592331747,3.799388233601694,3.204672651042288
2.698501866166427,-1.381007168456475,3.8314349601121167,3.2506520836354236
2.684691794481862,-1.385102353635293,3.863941480948471,3.2974846194415384
2.670840770945509,-1.3872178001272113,3.896916327142886,3.3453513299039996
2.656968592944237,-1.3872971091410955,3.930369840441926,3.3944478972945977
2.643095621852826,-1.3852748925429283,3.9643143194148722,3.4449844537559917
2.6292428729273967,-1.3810749464477723,3.998764163952432,3.4971857768598844
2.6154321234629188,-1.3746085218754982,4.0337360217210305,3.551291811369312
2.601686038244164,-1.3657726813385311,4.069248939834724,3.6075584788159465
2.5880283114307785,-1.3544487379178813,4.105324524622883,3.666258727598845
2.5744838240515997,-1.3405007855520423,4.141987111898872,3.7276837647752683
2.5610788161960794,-1.3237743468240177,4.179263949546624,3.7921443944460087
2.5478410727278393,-1.3040951889429875,4.217185393491084,3.8599723640979304
2.5348001208384097,-1.281268392019625,4.2557851171320635,3.9315215862842976
2.5219874369182134,-1.2550777991143987,4.295100332994907,4.007169054554894
2.5094366589270694,-1.2252860389167315,4.335172023540456,4.087315204394383
2.497183798537902,-1.191635394538234,4.3760451755844,4.172383375440007
2.48526744459252,-1.1538499024037399,4.4177690093388,4.262817902077146
2.4737289455684826,-1.111639211613342,4.460397188359571,4.359080185513269
2.4626125534523493,-1.064704925483821,4.5039879902147035,4.461641870000685
2.4519655041975112,-1.0127503923015024,4.54860440891471,4.57097394711756
2.441838000274496,-0.9554952182507868,4.594314148385886,4.687530235544591
2.432283048091988,-0.8926961414122476,4.641189450741331,4.811723228475519
2.423356086677866,-0.8241763149785031,4.6893066830260866,4.94388978454147
2.4151143235280808,-0.7498654525343232,4.738745580871501,5.084243616376651
2.4076156690027375,-0.6698535850724816,4.789588017035268,5.232811126869031
2.4009171331520127,-0.5844611740857149,4.841916128303958,5.38934709223146
2.3950725214111555,-0.49432768672226574,4.895809599226273,5.553227399311531
2.3901292445439326,-0.4005189555219832,4.951341873219389,5.723318147118144
2.386124054988713,-0.30465001233439615,5.00857505469057,5.897824802384535
2.383077554865369,-0.20901380080370302,5.0675533027144155,6.074132777554141
2.380987416857332,-0.11669665328797578,5.128294630489957,6.2486625450276305
2.379820450324452,-0.03164900495244166,5.190781255940233,6.4167778618992335
2.3795039602749277,0.04133309626524263,5.254949034559226,6.5728019582056145
2.37991729123758,0.096767837467549,5.320677054141282,6.710206607308173
2.380884969612256,0.12883423038482883,5.387779120214363,6.822031307769498
2.382173311916104,0.13191940049678347,5.455999433292058,6.901551625184208
2.3834925059210716,0.10132062624567659,5.5250149495439,6.943142167352439
2.3845057121835285,0.033980235717699994,5.594446371217424,6.943185991785114
2.3848455145407055,-0.07092743652891177,5.663878231135276,6.900809328600689
2.3841362401754163,-0.21173817104595904,5.732886324421282,6.818219499978979
2.382018858464957,-0.3844711255028668,5.801068519421072,6.70052019578337
2.3781741472099283,-0.583401742862452,5.868073721378906,6.555040810013707
2.372340129781304,-0.8018781920030301,5.933624129479043,6.390367736294495
2.3643213478612735,-1.0331698220646988,5.997527806841988,6.215332514501187
2.3539896496406265,-1.2711663385256513,6.059681131986999,6.0381755005740745
2.34127798625537,-1.5108307952344182,6.1200628869927405,5.866002868017185
2.326169678303026,-1.748398853946781,6.178722915672912,5.704548316260988
2.308685689763558,-1.9813766868585154,6.235768398835522,5.558179630383304
2.2888719228949728,-2.2084121256477296,6.291350195139355,5.430063728487045
2.2667878016384955,-2.4291080764033106,6.345650832424226,5.322410234731542
2.2424967208744624,-2.6438286788051273,6.398874934771541,5.2367354395497685
2.216058434086411,-2.8535285919797495,6.451242289167039,5.17411241625788
2.1875231481666138,-3.0596199066617213,6.502983413329618,5.135392332121625
2.1569269490999967,-3.263880968315868,6.554337336650835,5.121394928893378
2.124288139416838,-3.4684060736226856,6.605551285939768,5.133073647666347
2.0896040786806114,-3.6755931035907103,6.656882022416432,5.171664609802342
2.0528481476447045,-3.888166280139639,6.708598668514456,5.238830136076829
2.013966484843308,-4.109232241561241,6.760986969875224,5.3368076063407734
1.9728741624276958,-4.342368485091127,6.8143550459386315,5.468573340183547
1.9294504775767845,-4.591742502714803,6.869040779340467,5.6380276859403855
1.8835330525496363,-4.862254846788602,6.925421056199871,5.850198132821001
1.8349105040817504,-5.159683568475269,6.983923037528081,6.1114332725070355
1.7833136683969977,-5.4907661978952325,7.0450373702531515,6.429501122817996
1.7284060064180453,-5.8630546205343395,7.109332381481331,6.813362838692567
1.669775460212702,-6.284142716140966,7.177466009868257,7.272061543367088
1.6069340330512922,-6.7593493448458535,7.250186625301928,7.811438800340583
1.5393405396028337,-7.285948850918741,7.3283010133053335,8.425997671313452
1.4664810510936463,-7.840827699658909,7.412560990018468,9.081518188230358
1.3880727740970573,-8.360030109912573,7.503376171900772,9.686236119209994
1.3044724729979316,-8.723780762378425,7.600238533092872,10.069617059876894
1.2172346653741473,-8.795675214445396,7.700934703691641,10.037069576022876
1.1292779132296933,-8.543006715254176,7.80130539945187,9.538520396657221
1.0438478460771514,-8.093317182820966,7.896690603418442,8.747845708955454
0.9629146742489417,-7.610502917215489,7.9841690605079965,7.8900843579368996
0.8868096450767868,-7.184978794147272,8.063069904087365,7.088404759853739
0.8149598571353142,-6.841592378731222,8.133953951685903,6.3750769959407245
0.746543933348002,-6.577055656442178,8.19770472164531,5.743351737621474
0.6807733767835802,-6.380704784354608,8.255138239021525,5.176158939893009
0.6169663289400341,-6.241888904153926,8.306899828420455,4.656306366455919
0.5545474398984949,-6.151854168218635,8.353462892085014,4.169102504726879
0.4930288982163085,-6.103842508430709,8.395153917132284,3.702553116626328
0.43199047313200145,-6.092723250721258,8.432179448298546,3.246954651774392
0.37106324062478885,-6.1145646482893135,8.46464899481629,2.794450450854068
0.30991759414189574,-6.166249830758215,8.492593499324832,2.338698568286888
0.2482550958343136,-6.245150077950002,8.5159804850077,1.8746716115023068
0.1858035950548136,-6.3488460697934626,8.534727201122724,1.3985726798722564
0.12231513435687896,-6.474887703152555,8.548712927921446,0.9078416422612363
0.05756625732535342,-6.620589843532881,8.557791344344059,0.4012214716905702
-0.008639641109975393,-6.782869710233624,8.561803559060964,-0.12115071815709844
-0.07646833821231164,-6.958138902477532,8.560592051879393,-0.6576689321181269
-0.14604972723708695,-7.142267112159557,8.554015362558212,-1.2052442725933261
-0.21747239835868254,-7.330633057994515,8.54196291983228,-1.7593932084448594
-0.29077872893862766,-7.518269559148702,8.524368987747831,-2.3144569532276966
-0.3659614245301147,-7.700094386243847,8.501224418215553,-2.86395719435637
-0.4429623683925532,-7.8711999802284245,8.472584846271989,-3.4010626607132277
-0.5216743681948375,-8.027159283228716,8.438574219664856,-3.9191113878352923
-0.6019459610271246,-8.16429814205074,8.399383105786503,-4.412115242621664
-0.683588942447632,-8.279890630937915,8.355261953360287,-4.8751736622536495
-0.7663878487570112,-8.3722508496726,8.30651021673775,-5.304743103445867
-0.8501103572537372,-8.44071739253576,8.253462785703292,-5.698740389834881
-0.9345175311790948,-8.485547219870842,8.196475381804943,-6.056491017260178
-1.0193730033778032,-8.507748448213592,8.135910471632341,-6.37855782152097
-1.104450487859939,-8.50888484279634,8.072124893417131,-6.666496520804425
-1.1895393362879025,-8.490880362159526,8.005459928209087,-6.922583327194771
-1.2744481399094978,-8.45584356135036,7.936234094937139,-7.149550371534795
-1.3590065755230014,-8.405922478497587,7.864738591221791,-7.350352140444025
-1.4430658003079773,-8.343193069812685,7.7912350698173505,-7.527974344053767
-1.526497731006104,-8.269579204709537,7.715955326376813,-7.685287651564713
-1.6091935230531995,-8.18679957836756,7.6391024498611655,-7.824943027519062
-1.6910615188368752,-8.09633605525447,7.560853019585974,-7.949302524536786
-1.7720248793894198,-7.999418244431083,7.481359994340607,-8.060398535128224
-1.8520190618337307,-7.897019962122632,7.400756008989324,-8.159914885803893
-1.930989261454957,-7.78986427362895,7.319156860131286,-8.249184156175998
-2.0088879041912464,-7.67843480112986,7.236665018569526,-8.32919681406019
-2.085672252202545,-7.562991828045735,7.153373050428924,-8.400618935289753
-2.161302170483002,-7.443592385994714,7.069366861076027,-8.463816303007233
-2.235738094342949,-7.3201139739443075,6.984728698045955,-8.518883505803355
-2.308939234082392,-7.192281841147344,6.899539862987921,-8.565677264303028
-2.3808620524938657,-7.059699878272566,6.81388309034489,-8.603853614273358
-2.4514590512765913,-6.9218851157548755,6.727844554202157,-8.632908768481732
-2.52067790243414,-6.778305635904241,6.6415154665173395,-8.652223478622728
-2.588460958793182,-6.628421381659006,6.554993231731112,-8.661110536058686
-2.6547451726097724,-6.471726916889735,6.468382126370526,-8.658864708894205
-2.7194624417786697,-6.307794704240053,6.381793479281583,-8.644813952154589
-2.78254038882107,-6.136316979651296,6.295345339760037,-8.618370207861364
-2.843903558617583,-5.957143898924831,6.209161637681423,-8.579077614993063
-2.903474997606831,-5.770315401617001,6.123370861531493,-8.526655574507641
-2.961178151623001,-5.5760842664870225,6.038104305786416,-8.461033963480517
-3.0169389942878713,-5.374928180250248,5.953493966151611,-8.382377949156202
-3.0706882760903738,-5.167549320872926,5.869670186660049,-8.291100361758923
-3.122363769299103,-4.954860920605889,5.78675918304246,-8.187860427557672
-3.171912378505162,-4.737961412255693,5.7048805787668835,-8.073548756019918
-3.2192919926277193,-4.518097916728015,5.624145091206684,-7.949259672489229
-3.2644729717949996,-4.296621824520403,5.544652494481792,-7.816253112775819
-3.3074391900402036,-4.07493990255511,5.466489963354033,-7.675909174670428
-3.348188589065755,-3.854464619961714,5.389730871607329,-7.529678923066077
-3.386733235265372,-3.6365672088515746,5.314434082376668,-7.379035110840831
-3.423098907353888,-3.422536414531632,5.24064373126826,-7.225426128429843
-3.4573242714992043,-3.2135450609324163,5.168389469983961,-7.070235822161403
-3.4894597221085286,-3.0106256086750003,5.0976871117623475,-6.914750958818425
-3.5195659781952786,-2.81465495948142,5.028539602174163,-6.760137205304511
-3.5477125277900927,-2.626347975769908,4.960938230121118,-6.607423662210964
-3.5739760075477918,-2.446258607590939,4.894863993499008,-6.457495324786703
-3.598438593623701,-2.2747871731341798,4.830289040251142,-6.311092386142556
-3.6211864653550427,-2.1121922078956428,4.767178116389716,-6.168815047309255
-3.642308387433999,-1.958605340126852,4.705489965916623,-6.031132429856882
-3.6618944408352676,-1.8140478141902268,4.645178641618054,-5.898394256084037
-3.68003491897717,-1.678447517100903,4.586194699057214,-5.77084412192439
-3.696819394148179,-1.5516556228912963,4.52848625783797,-5.648633395402523
-3.712335950377092,-1.4334622218897328,4.471999923883945,-5.531834994154146
-3.726670572595989,-1.323610526688728,4.4166815739424035,-5.420456504938184
-3.7399066778628764,-1.2218094327873428,4.362477008893022,-5.314452291582695
-3.75212477219075,-1.1277443566356433,4.309332485977195,-5.213734388636741
-3.763402215757106,-1.0410863792505223,4.257195142090827,-5.118182095017566
-3.7738130795496114,-0.9614997948052448,4.206013321140651,-5.027650267617073
-3.783428077497664,-0.8886482069548138,4.15573681846448,-4.9419763735583615
-3.7923145595672123,-0.8221993375756887,4.106317054728897,-4.860986396673386
-3.8005365529429693,-0.761828718917308,4.057707190762163,-4.784499713824114
-3.8081548401321426,-0.7072224358170542,4.009862193623922,-4.71233306439646
-3.8152270644903132,-0.6580790735484584,3.9627388629799576,-4.644303735409112
-3.821807855225798,-0.6141110120312705,3.9162958256258666,-4.58023207817492
-3.8279489653461107,-0.5750451906819126,3.8704935048441174,-4.519943462588482
-3.8336994172529297,-0.5406234516001245,3.8252940702182325,-4.463269763529666
-3.839105651768931,-0.5106025530253681,3.780661372582936,-4.4100504617061205
-3.8442116772991843,-0.4847539306185131,3.7365608679658746,-4.36013342925483
-3.8490592166053696,-0.4628632714161808,3.6929595336733265,-4.313375459038203
-3.8536878493195315,-0.4447299543621273,3.6498257790829447,-4.26964258604904
-3.858135148863153,-0.4301664021130333,3.6071293532224544,-4.228810239782077
-3.862436812884283,-0.41899738123911573,3.5648412508246334,-4.190763257845169
-3.866626786696674,-0.41105928184331636,3.522933618246182,-4.155395783422876
-3.8707373795151074,-0.40619940283419786,3.481379660411953,-4.122611062394733
-3.8747993735434494,-0.40427526542508263,3.440153549788006,-4.0923211498690515
-3.8788421261977004,-0.4051539747100213,3.3992303382893154,-4.064446530549877
-3.882893665944801,-0.40871164719901976,3.3585858729838165,-4.0389156526594086
-3.886980782416791,-0.41483292079115625,3.3181967164572224,-4.015664371070804
-3.891129111624702,-0.4234105626298937,3.2780400727465144,-3.9946352918830885
-3.8953632172510013,-0.4343451894160688,3.2380937198276833,-3.9757770079486394
-3.899706669145162,-0.4475451138343297,3.198335949748197,-3.959043212946414
-3.9041821202835054,-0.46292632954732843,3.158745517618733,-3.9443916806271204
-3.908811383578979,-0.4804126454837795,3.1193016008124617,-3.9317830960278033
-3.9136155100338166,-0.49993597763648046,3.0799837698521837,-3.921179726984092
-3.9186148698101815,-0.5214368030384348,3.040771972582343,-3.9125439273993816
-3.923829237840566,-0.544864775757595,3.001646533308349,-3.9058364686995333
-3.929277885598142,-0.5701794984394325,2.9625881686213535,-3.9010147029130056
-3.9349796805825363,-0.5973514349971477,2.9235780215922236,-3.898030569996619
-3.940953194932508,-0.6263629404780268,2.8845977158922573,-3.89682847337314
-3.9472168243372883,-0.6572093730565668,2.845629431158526,-3.897343060962077
-3.953788918067854,-0.6899002408680314,2.806656000548905,-3.8994969638117953
-3.960687920476534,-0.7244603236109118,2.767661030910787,-3.9031985599950754
-3.9679325237126433,-0.7609306964266218,2.7286290453108366,-3.908339846551926
-3.9755418306769097,-0.7993695727384821,2.689545646845317,-3.9147945154027926
-3.9835355264042946,-0.839852875013438,2.6503977016912894,-3.92241633841413
-3.991934055154429,-0.8824744395049339,2.611173538307148,-3.9310379700534885
-4.000758799549478,-0.9273457646716822,2.571863158606613,-3.9404702711978734
-4.010032257196195,-0.9745952246412755,2.5324584558946346,-3.9505022428599132
-4.019778209442608,-1.0243666897431216,2.4929534334660355,-3.9609016328177487
-4.030021876340039,-1.0768175258107922,2.453344417137858,-3.971416241516637
-4.040790051598147,-1.132115981471454,2.4136302547226918,-3.9817759078788724
-4.052111211412862,-1.1904380154235097,2.373812495643903,-3.9916951043388464
-4.064015591567097,-1.2519636598250143,2.3338955446005145,-4.000876018746426
-4.076535228165347,-1.3168730564395454,2.29388678441305,-4.009011955215643
-4.089703958729742,-1.385342333821732,2.253796664860894,-4.015790853344407
-4.103557382067959,-1.4575395118046868,2.2136387563274496,-4.020898711480656
-4.1181327771860055,-1.5336206205718375,2.173429769212643,-4.024022708803165
-4.133468983391724,-1.6137262045815706,2.133189542124611,-4.024853853846834
-4.14960624543754,-1.6979783480909902,2.0929410035861427,-4.023089041212931
-4.1665860289184495,-1.7864783129552164,2.0527101131740135,-4.018432467889099
-4.184450812048001,-1.8793048264503633,2.0125257884951226,-4.010596438023147
-4.203243860312505,-1.9765130034127127,1.9724198241148911,-3.9993016616179795
-4.223008990346632,-2.0781338387730273,1.9324268074987114,-3.984277220805636
-4.243790328734363,-2.1841741677742306,1.892584035290655,-3.965260431685187
-4.265632070412106,-2.2946169637586142,1.8529314309738032,-3.9419968676967496
-4.2885782400496915,-2.409421827017294,1.8135114622968358,-3.914240832712964
-4.312672458319865,-2.528525510402388,1.7743690539697061,-3.881756581549301
-4.337957713423888,-2.6518423243972475,1.7355514881542131,-3.8443205871586295
-4.364476136667861,-2.779264261641889,1.697108282282627,-3.801725152747813
-4.392268779284279,-2.9106606740811207,1.6590910307551487,-3.753783668489882
-4.42137538602509,-3.0458773211389554,1.62155319407025,-3.7003378203774835
-4.45183415923648,-3.18473458194507,1.584549815866475,-3.641267075330242
-4.48368150505593,-3.3270245875558837,1.5481371451131727,-3.5765007918484315
-4.516951750931489,-3.472506981410332,1.5123721371946883,-3.5060333360418907
-4.551676820745593,-3.620902962098111,1.4773118038342694,-3.4299426110239546
-4.587885850366574,-3.77188721052787,1.4430123777240298,-3.3484124191945654
-4.625604722471852,-3.9250772689370304,1.409528253532084,-3.2617590480827054
-4.664855495161222,-4.080019946382061,1.376910663051257,-3.170462363941611
-4.705655694625043,-4.236174411460287,1.345206039411841,-3.0752014580146385
