th1 (rad),w1 (rad/s),th2 (rad),w2 (rad/s),a1 (rad/s^2),a2 (rad/s^2)
2.92534458758638,-0.16887701294884205,3.2168875438309805,-2.9034940390611905,-2.291319848567556,2.9236251848223462
2.9236558174568916,-0.1917902114345176,3.1878526034403687,-2.874257787212967,-2.348546358401465,2.7106382233418644
2.9217379153425465,-0.21527567501853226,3.159110025568239,-2.8471514049795483,-2.3923111951034515,2.485992858024714
2.919585158592361,-0.23919878696956678,3.130638511518444,-2.8222914763993012,-2.4239686095764243,2.25084802434637
2.9171931707226655,-0.263438473065331,3.102415596754451,-2.7997829961558374,-2.4450182287423923,2.0065789725054697
2.9145587859920123,-0.28788865535275493,3.0744177667928927,-2.7797172064307825,-2.4570727663897327,1.754732816771741
2.911679899438485,-0.31245938301665227,3.046620594728585,-2.762169878263065,-2.4618245584783804,1.4969827826816302
2.9085553056083184,-0.3370776286014361,3.018998895945954,-2.747200050436249,-2.461012744029356,1.235083603017944
2.905184529322304,-0.36168775604172965,2.991526895441592,-2.7348492144060694,-2.4563925736908065,0.9708300539379189
2.9015676517618867,-0.3862516817786377,2.9641784032975314,-2.7251409138666904,-2.4497079160527035,0.7060200665251898
2.8977051349441,-0.41074876093916474,2.9369269941588643,-2.7180807132014384,-2.4426676035717763,0.4424232732463682
2.8935976473347083,-0.4351754369748825,2.9097461870268497,-2.7136564804689747,-2.4369258629688137,0.1817553171205523
2.8892458929649596,-0.4595446956045706,2.88260962222216,-2.711838927297769,-2.4340667427660057,-0.07434219122921315
2.884650446008914,-0.4838853630322307,2.8554912329491824,-2.712582349210061,-2.435592201892996,-0.3243165125387675
2.8798115923785916,-0.5082412850511606,2.828365409457082,-2.7158255143354486,-2.4429133631286892,-0.5667140670816022
2.87472917952808,-0.5326704186824475,2.8012071543137274,-2.721492655006265,-2.457344358100784,-0.8001869228987589
2.8694024753412553,-0.5572438622634553,2.7739922277636646,-2.7294945242352524,-2.4800981840963034,-1.023496238427933
2.8638300367186207,-0.5820448441044184,2.7466972825213123,-2.739729486619532,-2.512284040744449,-1.2355133457521859
2.8580095882775765,-0.6071676845118629,2.719299987655117,-2.7520846200770537,-2.5549056993594506,-1.4352190446619133
2.851937911432458,-0.6327167415054574,2.691779141454347,-2.7664368105236727,-2.60886056288422,-1.6217015362041176
2.8456107440174034,-0.6588053471342996,2.66411477334911,-2.782653825885714,-2.674939185524644,-1.794153276859377
2.8390226905460603,-0.685554738989546,2.636288235090253,-2.8005953586543075,-2.7538251265503946,-1.9518668966952555
2.832167143156165,-0.7130929902550499,2.60828228150371,-2.82011402762126,-2.846095103487114,-2.09423020857522
2.825036213253614,-0.741553941289921,2.5800811412274975,-2.8410563297070124,-2.952219480020083,-2.2207202486309785
2.817620673840715,-0.7710761360901218,2.5516705779304276,-2.863263532193322,-3.0725631700596456,-2.3308962349485975
2.8099099124798137,-0.8018017677907183,2.5230379426084943,-2.886572494542808,-3.2073870607587502,-2.4243913126588206
2.8018918948019067,-0.8338756383983058,2.494172217663066,-2.9108164076693965,-3.3568500552192564,-2.50090296730744
2.7935531384179235,-0.8674441389504983,2.465064053586372,-2.935825437342471,-3.5210118134711035,-2.560182029991953
2.7848786970284185,-0.9026542570852094,2.4357057992129474,-2.9614272576423906,-3.6998362328582233,-2.602020260857487
2.7758521544575663,-0.9396526194137916,2.4060915266365237,-2.9874474602509653,-3.893195662054291,-2.626236574469802
2.7664556282634285,-0.9785845760343346,2.376217052034014,-3.0137098259956634,-4.100875792896362,-2.6326620531335587
2.756669782503085,-1.019593333963298,2.3460799537740575,-3.040036446526999,-4.322581127335237,-2.621123974454919
2.746473849163452,-1.0628191452366504,2.3156795893087874,-3.066247686271548,-4.557940878713256,-2.5914291503828064
2.7358456577110855,-1.108398554023783,2.285017112446072,-3.092161977775376,-4.806515141865812,-2.54334693118727
2.7247616721708474,-1.1564637054424411,2.254095492668318,-3.1175954470872487,-5.067801158353411,-2.476592265895982
2.713197035116423,-1.2071417170259753,2.222919538197446,-3.1423613697462085,-5.341239513025997,-2.390809229279418
2.7011256179461633,-1.2605541121562354,2.191495924499984,-3.166269462039003,-5.626220126075856,-2.285555425248622
2.688520076824601,-1.316816313416994,2.159833229879594,-3.1891250162914893,-5.922087949311063,-2.1602876599061696
2.675351913690431,-1.3760371929101045,2.127941979716679,-3.210727892890551,-6.228148334019578,-2.0143492480817113
2.66159154176133,-1.4383186762503004,2.0958347007877736,-3.230871385371368,-6.54367210717796,-1.846959279224804
2.6472083549988272,-1.50375539732208,2.06352598693406,-3.2493409781636164,-6.867900469183677,-1.6572041262873276
2.6321708010256066,-1.572434402013917,2.031032577152424,-3.2659130194264896,-7.200049905989632,-1.444031438480384
2.6164464570054675,-1.6444349010738133,1.9983734469581589,-3.2803533338112936,-7.539317387899576,-1.2062468184191488
2.6000021079947295,-1.719828074952809,1.965569913620046,-3.2924158019954852,-7.884886203050941,-0.942513347932835
2.5828038272452014,-1.7986769369833184,1.932645755600091,-3.3018409354748135,-8.235932842779562,-0.6513540952983244
2.564817057875368,-1.8810362654111141,1.899627346245343,-3.308354476427797,-8.591635415844976,-0.33115770939355166
2.546006695221257,-1.966952619569564,1.8665438014810651,-3.311666053521732,-8.951184116114083,0.019812817940344438
2.5263371690255614,-2.0564644607307048,1.8334271409458478,-3.311467925342329,-9.313794300698307,0.40340816264347973
2.5057725244182545,-2.149602403737688,1.8003124616924244,-3.307433843715894,-9.678722749033975,0.8215774156448047
2.4842765003808776,-2.246389631228028,1.7672381232552654,-3.299218069559446,-10.045287663260936,1.276349551094298
2.4618126040685975,-2.346842507860637,1.734245942559671,-3.286454574048503,-10.412892930189908,1.769811617782519
2.438344178989991,-2.4509714371625364,1.701381396819186,-3.2687564578706776,-10.781057086587737,2.304083663042154
2.4138344646183656,-2.558782008028414,1.6686938322404792,-3.2457156212402563,-11.149447300636272,2.881290381936657
2.3882466445380817,-2.6702764810347768,1.6362366760280767,-3.2169027174208895,-11.517918486714091,3.503529421927542
2.361543879727734,-2.785455665901918,1.6040676488538677,-3.181867423201614,-11.886557384647984,4.172836128289961
2.3336893230687146,-2.9043212397483975,1.5722489746218515,-3.1401390619187146,-12.25573102439353,4.891144232237459
2.3046461106712304,-3.026878549992333,1.5408475840026643,-3.09122761959634,-12.626138412986426,5.660241477075701
2.274377325171307,-3.1531399341221973,1.5099353078067008,-3.034625204825583,-12.998863448526821,6.481718320866668
2.242845925830085,-3.2831285686074656,1.479589055758445,-2.9698080216169163,-13.3754258746511,7.356906459246813
2.2100146401440104,-3.4168828273539766,1.4498909755422758,-2.896238957024448,-13.757825370248868,8.286801702781599
2.1758458118704707,-3.5544610810564654,1.4209285859720313,-2.813370939996632,-14.148571368742093,9.271962314594651
2.140301201059906,-3.6959467947438864,1.392794876572065,-2.7206513168506854,-14.550687535847498,10.31236867597153
2.103341733112467,-3.8414536701023616,1.3655883634035582,-2.61752763009097,-14.967674432489597,11.407222248015499
2.0649271964114435,-3.9911304144272575,1.3394130871026484,-2.503455407610815,-15.40340591090699,12.554650023635629
2.025015892267171,-4.145164473536328,1.3143785330265403,-2.377908907374459,-15.861923037627816,13.75126333566648
1.9835642475318078,-4.303783703912606,1.2905994439527957,-2.240396274017794,-16.34707216931756,14.991494783081427
1.9405264104926818,-4.467254425605781,1.2681954812126177,-2.0904813261869797,-16.861909166717574,16.266601483925367
1.895853866236624,-4.635873517272957,1.2472906679507478,-1.927815311347726,-17.40775744763758,17.563174279542306
1.8494951310638945,-4.809951091749332,1.2280125148372705,-1.752183568552303,-17.98276243824096,18.86093009117465
1.8013956201464012,-4.989778716131742,1.2104906791517474,-1.5635742676405566,-18.579731516365268,20.129493544518816
1.7514978329850839,-5.175576031295394,1.1948549364753418,-1.3622793321953686,-19.18299941808827,21.32381481118879
1.69974207267213,-5.367406025476277,1.181232143153388,-1.1490411840834807,-19.76405022280136,22.377878398066137
1.6460680124173672,-5.565046527704291,1.1697417313125533,-0.9252624001028193,-20.275741416868417,23.19655587078645
1.5904175471403244,-5.767803941872975,1.160489107311525,-0.6932968413949548,-20.6453781733084,23.646085400878455
1.5327395077215946,-5.974257723606059,1.1535561388975755,-0.45683598738617026,-20.767852189056377,23.54511871486587
1.472996930485534,-6.181936245496623,1.1489877790237137,-0.2213848002375116,-20.50192251371057,22.66103029637263
1.4111775680305676,-6.386955470633729,1.1467739310213387,0.00522550272621472,-19.67554685447801,20.72030392807158
1.3473080133242303,-6.583710939178509,1.1468261860486009,0.21242854200693054,-18.108910023890655,17.445705080207627
1.2814709039324452,-6.764800039417415,1.1489504714686702,0.3868855928090068,-15.6629036584983,12.631425345297309
1.213822903538271,-6.921429076002398,1.1528193273967604,0.5131998462619799,-12.310218813367916,6.251618799630028
1.144608612778247,-7.0445312641360776,1.15795132585938,0.5757160342582802,-8.202971301331566,-1.4365110457004002
1.0741633001368864,-7.126560977149393,1.1637084862019629,0.5613509238012763,-3.687883392257167,-9.867748175354626
1.0028976903653926,-7.163439811071965,1.1693219954399756,0.46267344204773,0.7702253394441803,-18.28101869432102
0.9312632922546729,-7.155737557677523,1.173948729860453,0.2798632551045198,4.736667917243631,-25.94123322384411
0.8597059166778976,-7.108370878505086,1.1767473624114981,0.02045092286607869,7.943729032885109,-32.34951832887215
0.7886222078928468,-7.028933588176235,1.176951871640159,-0.3030442604226428,10.338805251549815,-37.32592469427466
0.7183328720110844,-6.925545535660737,1.1739214290359326,-0.6763035073653895,12.038580356032632,-40.95231580868447
0.649077416654477,-6.80515973210041,1.1671583939622787,-1.0858266654522342,13.242698057593733,-43.450780388991014
0.581025819333473,-6.672732751524473,1.1563001273077564,-1.5203344693421443,14.159929474492778,-45.075610294165806
0.5142984918182283,-6.531133456779545,1.141096782614335,-1.9710905722838024,14.967181146201884,-46.05105828007193
0.4489871572504328,-6.381461645317526,1.121385876891497,-2.431601155084522,15.796309309553347,-46.549755739852934
0.38517254079725755,-6.223498552221993,1.0970698653406519,-2.897098712483051,16.73629295129339,-46.6946817862013
0.32293755527503765,-6.056135622709059,1.0680988782158214,-3.364045530345064,17.841014261782917,-46.570537578092214
0.26237619904794707,-5.87772548009123,1.0344584229123708,-3.829750906125986,19.137506485055606,-46.2366233407298
0.20359894424703479,-5.686350415240674,0.9961609138511109,-4.292117139533284,20.632771623583903,-45.73791620720948
0.14673544009462805,-5.480022699004834,0.9532397424557781,-4.749496301605379,22.318886530659523,-45.11344909286251
0.09193521310457971,-5.256833833698239,0.9057447794397243,-5.200630792534004,24.176695334172052,-44.402048501866346
0.03936687476759732,-5.015066880356518,0.8537384715143843,-5.644651277552668,26.178452396718477,-43.64572437768796
-0.01078379403596786,-4.753282356389334,0.7972919587388576,-6.081108521329547,28.28962644173987,-42.89093397172434
-0.0583166175998612,-4.470386091971935,0.7364808735255621,-6.510017861046791,30.46982698560994,-42.18773991025582
-0.10302047851958054,-4.165687822115836,0.6713806949150942,-6.931895260149349,32.67249802104956,-41.58658387477886
-0.1446773567407389,-3.8389628419053405,0.6020617423136008,-7.347761098897138,34.84262055986793,-41.13195593431198
-0.1830669851597923,-3.4905366363066612,0.5285841313246293,-7.759080658240258,36.91113146974011,-40.85156831070572
-0.21797235152285893,-3.12142532160926,0.45099332474222675,-8.167596341347314,38.78407268710598,-40.738664770281254
-0.24918660473895154,-2.7335845947382,0.3693173613287536,-8.574982989050127,40.323733201212846,-40.72389870452185
-0.2765224506863335,-2.3303472627260717,0.2835675314382523,-8.982221976095346,41.318793947565204,-40.63248297410291
-0.29982592331359426,-1.9171593232504196,0.19374531167729886,-9.388546805836375,41.44254718493285,-40.124438504338265
-0.3189975165460984,-1.502733851401091,0.0998598436189351,-9.789791190879757,40.20718141301597,-38.62689464034048
-0.3340248550601093,-1.1006620372709315,0.0019619317101375183,-10.176060137283162,36.94616845229236,-35.29898454368405
-0.34503147543281865,-0.7312003527480079,-0.0997986696626941,-10.529049982720002,30.90157639577818,-29.13042704918174
-0.3523434789602987,-0.4221845887902261,-0.20508916948989414,-10.82035425321182,21.53038878309513,-19.327717729994024
-0.35656532484820097,-0.20688070095927477,-0.31329271202201237,-11.01363143051176,9.056304167889346,-6.029389088505931
-0.3586341318577937,-0.1163176592803813,-0.42342902632713,-11.07392532139682,-5.0587716585747,9.075744848796527
-0.3597973084505975,-0.1669053758661283,-0.5341682795410981,-10.983167872908854,-18.392037200693714,23.107399305150324
-0.36146636220925876,-0.3508257478730654,-0.6439999582701866,-10.752093879857352,-28.74790452126198,33.526336125494495
-0.36497461968798944,-0.6383047930856852,-0.7515208970687601,-10.416830518602406,-35.24254405125353,39.486786230674745
-0.3713576676188463,-0.9907302335982205,-0.8556892022547842,-10.021962656295658,-38.30266317422062,41.753585835202244
-0.3812649699548285,-1.3737568653404266,-0.9559088288177408,-9.604426797943635,-38.92582142886225,41.70456793282437
-0.39500253860823276,-1.7630150796290491,-1.051953096797177,-9.187381118615392,-38.05506800209168,40.54268019843409
-0.41263268940452325,-2.1435657596499658,-1.143826907983331,-8.781954316631051,-36.35329360943566,39.049046410526394
-0.4340683470010229,-2.507098695744322,-1.2316464511496414,-8.391463852525787,-34.22112556667461,37.641597060357874
-0.4591393339584661,-2.8493099514110685,-1.3155610896748993,-8.015047881922207,-31.881404511519694,36.503065261785444
-0.4876324334725768,-3.1681239965262655,-1.3957115684941213,-7.6500172293043525,-29.45328593990527,35.68404708776241
-0.5193136734378394,-3.462656855925318,-1.4722117407871649,-7.293176758426728,-27.00083226873395,35.16764459194164
-0.5539402419970926,-3.732665178612658,-1.5451435083714322,-6.941500312507312,-24.56106692756305,34.905830898939286
-0.5912668937832192,-3.9782758478882885,-1.6145585114965053,-6.592442003517919,-22.158948483761165,34.83887381592136
-0.6310496522621021,-4.1998653327259,-1.6804829315316845,-6.244053265358706,-19.814766841527884,34.90548798354407
-0.6730483055893611,-4.398013001141179,-1.7429234641852716,-5.894998385523265,-17.547353560344362,35.04812060885466
-0.7170284356007729,-4.573486536744623,-1.8018734480405043,-5.544517179434719,-15.375064993043829,35.21570425111463
-0.7627633009682191,-4.727237186675061,-1.8573186198348515,-5.192360136923572,-13.31564817648956,35.36505016173878
-0.8100356728349697,-4.860393668439957,-1.9092422212040872,-4.838709635306184,-11.385619727898703,35.46144889781506
-0.8586396095193692,-4.974249865718944,-1.957629317557149,-4.484095146328034,-9.59951676745961,35.47874533690773
-0.9083821081765586,-5.07024503339354,-2.0024702690204292,-4.129307692958957,-7.969220139647629,35.399018313957534
-0.959084558510494,-5.149937234790016,-2.0437633459500186,-3.775317509819381,-6.503451897017328,35.21194046518855
-1.0105839308583942,-5.21497175376019,-2.0815165210482123,-3.423198105167496,-5.207484511494386,34.913877474400905
-1.0627336483959962,-5.267046598875133,-2.1157485020998874,-3.074059330423487,-4.083055463178024,34.50678387253938
-1.1154041143847475,-5.307877153506913,-2.1464890954041222,-2.728991491698093,-3.1284512403923075,33.99695224488071
-1.1684828859198166,-5.3391616659108365,-2.173779010321103,-2.389021969249286,-2.3387058255431383,33.393668143152176
-1.221874502578925,-5.362548724166268,-2.197669230013596,-2.055085287817764,-1.7058480178874034,32.70781215969242
-1.2754999898205877,-5.379607204345142,-2.2182200828917735,-1.7280071662208396,-1.219127437296486,31.950433959777957
-1.329296061864039,-5.391798478718107,-2.235500154553982,-1.4085028266230601,-0.8651491015081437,31.131302712804395
-1.3832140466512202,-5.400449969733188,-2.249585182820213,-1.0971897994950162,-0.6278501914617365,30.25741787357445
-1.437218546348552,-5.4067284716478055,-2.260557080815163,-0.7946156207592716,-0.48826074756726695,29.331449099840103
-1.49128583106503,-5.411611079123478,-2.2685032370227556,-0.5013011297608705,-0.42400623273537286,28.350072959096266
-1.5454019418562648,-5.4158511414508315,-2.273516248320364,-0.21780040016990782,-0.4085426049577559,27.30220130242508
-1.599560453270773,-5.419936567500409,-2.2756942523220633,0.05522161285434296,-0.4101792190136404,26.167174757683625
-1.6537598189457772,-5.424038359690545,-2.27514203619352,0.3168933604311792,-0.391065347218409,24.913158281672132
-1.7080002025426826,-5.4279490131627295,-2.2719731025892083,0.5660249432479005,-0.3065213692930197,23.496263628514257
-1.7622796926743098,-5.43101422685566,-2.2663128531567294,0.8009875795330431,-0.10540373242085645,21.861358248784978
-1.8165898349428664,-5.432068264179868,-2.258302977361399,1.019601162020893,0.2674325214079983,19.946045142707053
-1.8709105175846652,-5.429393938965788,-2.24810696574119,1.2190616134479635,0.8652403386479672,17.689662994489474
-1.9252044569743232,-5.4207415355793085,-2.2359163496067103,1.3959582433928581,1.7289612180593052,15.048782734865174
-1.9794118723301162,-5.403451923398715,-2.221956767172782,1.54644607074151,2.872542947559798,12.018695209636297
-2.0334463915641035,-5.374726493923117,-2.2064923064653668,1.666633022837873,4.2671514317749475,8.656218496027094
-2.0871936565033344,-5.332054979605368,-2.189825976236988,1.7531952077981439,5.8311147341107725,5.093899576573261
-2.1405142062993883,-5.27374383226426,-2.1722940241590067,1.8041342035638765,7.434124280463242,1.5333453398885868
-2.193251644622031,-5.199402589459627,-2.154252682123368,1.8194676569627624,8.920237191837392,-1.7887547803834731
-2.2452456705166273,-5.110200217541253,-2.1360580055537404,1.8015801091589276,10.14424562424746,-4.653921585745741
-2.2963476726920398,-5.008757761298779,-2.118042204462151,1.7550408933014703,11.006414307668756,-6.912699257686214
-2.3464352503050274,-4.898693618222091,-2.1004917955291367,1.6859139007246082,11.470257480404971,-8.510711490586313
-2.3954221864872483,-4.783991043418041,-2.083632656521891,1.6008067858187451,11.558204157942429,-9.482384745142438
-2.4432620969214285,-4.668409001838617,-2.0676245886637035,1.5059829383673207,11.332013871847646,-9.922195114517566
-2.4899461869398145,-4.55508886312014,-2.0525647592800302,1.406760987222145,10.8696618671007,-9.950460693430308
-2.535497075571016,-4.446392244449133,-2.038497149407809,1.3072563802878419,10.247338148352023,-9.686375353573954
-2.5799609980155074,-4.343918862965613,-2.0254245856049304,1.2103926267521024,9.529397998716089,-9.23259802430583
-2.6234001866451635,-4.2486248829784525,-2.0133206593374093,1.118066646509044,8.76501294255553,-8.669725387272287
-2.665886435474948,-4.160974753552897,-2.0021399928723187,1.0313693926363212,7.988907530149692,-8.056909091434147
-2.707496183010477,-4.0810856782514,-1.9918262989459554,0.9508003017219797,7.223902329152747,-7.43529584099084
-2.7483070397929907,-4.008846654959872,-1.9823182959287355,0.8764473433120713,6.483833833498163,-6.832169575316391
-2.7883955063425896,-3.9440083166248905,-1.9735538224956148,0.8081256475589074,5.7761594911482375,-6.264739857625826
-2.8278355895088385,-3.886246721713408,-1.9654725660200258,0.7454782489826491,5.104017909377486,-5.7431994612526545
-2.8666980567259728,-3.835206542619633,-1.9580177835301993,0.6880462543701226,4.467745682653504,-5.273022384963129
-2.905050122152169,-3.790529085793098,-1.9511373209864982,0.6353160305204912,3.865941780213458,-4.856614613104522
