th1 (rad),w1 (rad/s),th2 (rad),w2 (rad/s)
0.43088826731721375,1.0014337896099377,1.7533844986344989,-2.2340121674843365
0.44090260521331315,0.9976110645643785,1.7310443769596555,-2.3391647897163335
0.45087871585895695,0.9967674063016696,1.707652729062492,-2.4452383961932043
0.46084638992197363,0.999059993204,1.6832003451005602,-2.5524798207117017
0.4708369898540136,1.004648951448132,1.6576755468934432,-2.661151030009087
0.48088347936849496,1.0136968877441925,1.6310640365933524,-2.771529007242769
0.4910204482459369,1.0263678265974416,1.6033487465209246,-2.88390506455372
0.5012841265119113,1.0428252897368882,1.5745096958753875,-2.9985832527354916
0.5117123794092803,1.0632291473478783,1.5445238633480325,-3.1158773926867873
0.522344670882759,1.0877307210234664,1.5133650894211645,-3.236106052832214
0.5332219780929937,1.1164654130860254,1.4810040288928423,-3.359584519296424
0.5443866322238539,1.149541860105534,1.447408183699878,-3.4866124279421165
0.5558820508249092,1.1870262443650255,1.4125420594204567,-3.6174552255768213
0.5677523132685595,1.2289199369720247,1.3763675071646886,-3.752316985981071
0.5800415126382797,1.2751281033096828,1.338844337304878,-3.89130133701072
0.5927927936713766,1.3254163401724048,1.2999313239347707,-4.034356438083024
0.6060469570731006,1.3793520058154045,1.2595877595539404,-4.1811993067354765
0.6198404771312547,1.4362270212110027,1.2177757664865856,-4.331214824747548
0.6342027473433647,1.4949602720088755,1.1744636182391102,-4.483326416803705
0.6491523500634534,1.5539815212621593,1.129630354071073,-4.635840319258725
0.664692165276075,1.6111066632837283,1.0832719508784858,-4.786275899069989
0.6808032319089122,1.6634279960232408,1.035409191887786,-4.931213138243937
0.6974375118691446,1.70726327709262,0.9860970605053465,-5.066215688755789
0.7145101446400708,1.7382291686011222,0.9354349036177886,-5.185917802111454
0.731892436326082,1.7515144901251885,0.8835757255966741,-5.284377181212499
0.7494075812273339,1.7424023864450426,0.8307319537845491,-5.35576042066412
0.7668316050917843,1.7070058781338033,0.7771743495779079,-5.39531282256694
0.7839016638731223,1.643049303697554,0.7232212213522384,-5.400385284024118
0.8003321569100978,1.550421703425497,0.6692173685119972,-5.371147725416052
0.8158363739443528,1.4312530758017021,0.6155058912578367,-5.310655716507865
0.8301489047023698,1.289455242082663,0.5623993340927581,-5.224199790961298
0.8430434571231964,1.1299141096077439,0.5101573361831451,-5.1181997739965155
0.8543425982192738,0.9576451988825398,0.4589753384431799,-4.999070787265277
0.8639190502080992,0.7771631700212434,0.40898463057052714,-4.872396801302711
0.8716906819083117,0.5921555126084118,0.36026066255750006,-4.742524815886286
0.8776122370343958,0.405415310724395,0.3128354143986372,-4.61250948294314
0.8816663901416398,0.2189329772192912,0.2667103195692058,-4.48426689385314
0.8838557199138327,0.03405480465940319,0.22186765063067443,-4.358810928470879
0.8841962679604267,-0.14835151242096806,0.17827954134596563,-4.236491933349246
0.8827127528362171,-0.3277535905168054,0.13591462201247317,-4.117200090429499
0.879435216931049,-0.5038423976229778,0.09474262110817819,-4.00052316437336
0.8743967929548192,-0.6764504029737965,0.05473738946444459,-3.88586190613729
0.8676322889250813,-0.8454946543693459,0.015878770403071694,-3.772511277763588
0.8591773423813878,-1.0109389358775607,-0.021846342374564183,-3.659716138945028
0.8490679530226122,-1.1727698705997756,-0.058443503764014464,-3.5467087459555087
0.8373402543166144,-1.3309829260480193,-0.09391059122356955,-3.432733701233165
0.8240304250561342,-1.485575319868953,-0.1282379282359012,-3.3170644227627832
0.8091746718574447,-1.6365436670770808,-0.16140857246352902,-3.1990139501249675
0.7928092351866739,-1.7838848413754176,-0.1933987119647787,-3.0779419731678597
0.7749703867729197,-1.9275989744084419,-0.2241781316964573,-2.9532593060372205
0.7556943970288353,-2.067693830095544,-0.25371072475682954,-2.824430570557618
0.7350174587278799,-2.204190004782454,-0.2819550304624057,-2.6909755438423284
0.7129755586800554,-2.3371265480613674,-0.308864785900829,-2.5524694233614453
0.6896042931994417,-2.466566695959369,-0.3343894801344435,-2.408542138160433
0.664938626239848,-2.592603473225153,-0.35847490151604783,-2.2588767665896197
0.6390125915075965,-2.7153649647253495,-0.381063669181944,-2.10320709499968
0.611858941860343,-2.8350190832971283,-0.4020957401319408,-1.941314359938369
0.5835087510273717,-2.951777675054323,-0.4215088837313245,-1.7730232542130309
0.5539909742768284,-3.0658998021613026,-0.4392391162734548,-1.5981973442381745
0.5233319762552154,-3.177694023256924,-0.4552210897158365,-1.4167341456923348
0.49155503602264616,-3.2875194450838854,-0.46938843117275986,-1.2285602446124322
0.4586798415718073,-3.395785232852333,-0.48167403361888417,-1.0336270457042478
0.42472198924328397,-3.5029481227145136,-0.49201030407592666,-0.831908001237134
0.38969250801613886,-3.6095072505587895,-0.500329384088298,-0.6233985561939054
0.35359743551055095,-3.715995259596774,-0.5065633696502371,-0.40812058710340937
0.31643748291458323,-3.822964124388649,-0.5106445755212712,-0.18613388007117768
0.27820784167069673,-3.93096336723119,-0.512505914321983,0.04244172700049481
0.23889820799838482,-4.0405072735020955,-0.512081497051978,0.27738842862580215
0.19849313526336387,-4.152026281347233,-0.50930761276572,0.5183296959642385
0.15697287244989155,-4.265795952134684,-0.5041243158060776,0.7646372322063042
0.11431491292854472,-4.381835065095548,-0.4964779434840146,1.0152937461618328
0.07049656227758924,-4.499763173197048,-0.48632500602239626,1.2686982329314822
0.025498930545618755,-4.618609179857983,-0.47363802369308144,1.5224025951804454
-0.020687161252961078,-4.736569692511548,-0.458413997741277,1.7727791828806585
-0.06805285817807656,-4.850735030694755,-0.44068620591247043,2.014646577106729
-0.11656020848502412,-4.9568393025105815,-0.42053974014140316,2.240936174769956
-0.16612860151012993,-5.049152261056903,-0.3981303783937036,2.4425692709385407
-0.21662012412069895,-5.12069895237196,-0.3737046856843182,2.6088104866842126
-0.2678271136444186,-5.164011594671018,-0.34761658081747604,2.728387233598871
-0.3194672295911288,-5.172487810643172,-0.3203327084814873,2.7914758586947457
-0.3711921076975605,-5.142089374782518,-0.29241794989453984,2.792167461330053
-0.4226130014453857,-5.072709569510107,-0.2644962752812393,2.7304459033185915
-0.4733400971404868,-4.968454344746803,-0.2371918162480534,2.6125927897501335
-0.5230246405879548,-4.836591095098204,-0.21106588835055207,2.4496625054926304
-0.5713905515389369,-4.685693616469649,-0.18656926329562576,2.254782021035356
-0.6182474877036335,-4.523871158098323,-0.1640214430852722,2.040551899770015
-0.6634861992846167,-4.35768182030519,-0.14361592408757204,1.8174206785303353
-0.7070630174876686,-4.191801839096904,-0.1254417173022687,1.593149054042721
-0.7489810358786377,-4.029197479356024,-0.10951022676184148,1.3730097451538144
-0.789273010672198,-3.871506512508242,-0.09578012931030333,1.1603048694125786
-0.8279880757972804,-3.7194362432689756,-0.08417708061617754,0.956921243689891
-0.8651824382299702,-3.5730924210499846,-0.07460786817927863,0.7637963559071539
-0.90091336244047,-3.4322202987602033,-0.06696990462020709,0.5812641322345138
-0.9352355654280721,-3.296368721489293,-0.061157263297861954,0.4092932281208358
-0.968199252642965,-3.16499616651154,-0.0570643310166536,0.24764320353688538
-0.9998492143080804,-3.0375363767811163,-0.054587898981284744,0.0959629281143114
-1.0302245780758916,-2.913437204421424,-0.05362826970014163,-0.046149685551296005
-1.059358950120106,-2.7921822614325498,-0.05408976655565459,-0.1791129834419258
-1.0872807727344314,-2.673301804142028,-0.05588089639007385,-0.30334266050273856
-1.1140137907758516,-2.556377020732666,-0.058914322995101236,-0.41924256322106107
-1.1395775609831782,-2.4410403702095507,-0.06310674862731185,-0.5272012911083473
-1.1639879646852738,-2.326973629091621,-0.06837876153839532,-0.6275921147900904
-1.18725770097619,-2.2139046683329457,-0.07465468268629623,-0.7207746578181495
-1.2093967476595195,-2.1016035839323766,-0.08186242926447772,-0.8070973864908781
-1.2304127834988434,-1.9898785562983892,-0.0899334031293865,-0.8869003331637729
-1.2503115690618274,-1.8785716604168694,-0.09880240646102423,-0.9605177207573874
-1.269097285665996,-1.7675547555963471,-0.1084075836685981,-1.0282803093913666
-1.2867728332219597,-1.6567255273575423,-0.11869038676251176,-1.0905173823606316
-1.303340088495535,-1.5460037205731039,-0.12959556058611807,-1.1475583484847112
-1.318800125701266,-1.435327583270325,-0.1410711440709652,-1.199733974239981
-1.3331534015339692,-1.3246505289960713,-0.153068483813365,-1.2473772803433372
-1.3463999068239298,-1.2139380188659625,-0.16554225661679836,-1.2908241489217385
-1.3585392870125894,-1.1031646602899543,-0.17845049810601574,-1.3304136925103398
-1.3695709336154889,-0.992311516647061,-0.19175463503111914,-1.3664884371080526
-1.3794940487819596,-0.8813636201702201,-0.20541951940219966,-1.399394369853361
-1.3883076849836617,-0.770307678627533,-0.21941346310073326,-1.4294808985413745
-1.396010761769937,-0.6591299648822843,-0.233708272086147,-1.457100765836421
-1.40260206141876,-0.5478143770402484,-0.24827927974451122,-1.4826099560721209
-1.4080802051891625,-0.43634065568471664,-0.2631053793052324,-1.5063676272415445
-1.4124436117460097,-0.32468274374329265,-0.2781690555776479,-1.528736095306441
-1.4156904391834426,-0.2128072739499779,-0.2934564165307123,-1.5500808923285523
-1.4178185119229425,-0.10067216882395742,-0.30895722545399784,-1.5707709140699027
-1.4188252336111822,0.011774661205710177,-0.32466493459469686,-1.591178666423218
-1.418707486999125,0.12459653416105478,-0.340576721258929,-1.6116806129716748
-1.4174615216575144,0.2378691368376736,-0.3566935273886458,-1.6326576176032792
-1.4150828302891376,0.35168159345501,-0.3730201035646786,-1.654495465631018
-1.4115660143545876,0.46613745917771254,-0.38956505822098875,-1.677585433161978
-1.4069046397628104,0.5813556234356101,-0.4063409125526085,-1.7023248559057027
-1.4010910835284542,0.6974710910265538,-0.4233641611116655,-1.7291176229388776
-1.3941163726181887,0.814635584539078,-0.44065533734105433,-1.7583744849524363
-1.385970016772798,0.9330178766112067,-0.4582390821905787,-1.7905130157285647
-1.376639838006686,1.0528037106563553,-0.4761442123478643,-1.8259569938267737
-1.3661118009001225,1.174195098011799,-0.494403782286132,-1.8651348701908392
-1.3543698499200045,1.2974086799681661,-0.5130551309880405,-1.908476845148043
-1.3413957631203228,1.4226727042356695,-0.5321398994395209,-1.9564098800050436
-1.3271690360779662,1.5502219737602283,-0.5517039982395713,-2.0093496952648278
-1.311666816340364,1.6802898658931973,-0.5717974951922196,-2.0676884375083073
-1.294863917681432,1.8130961763759796,-0.5924743795673026,-2.1317762087081085
-1.2767329559176723,1.948829106387018,-0.6137921416543838,-2.2018940328971315
-1.257244664853802,2.087619192928671,-0.6358110819833551,-2.2782151020759933
-1.2363684729245152,2.2295024411126874,-0.6585932330041151,-2.360750379650209
-1.2140734485133884,2.3743695059665453,-0.6822007368006172,-2.4492740666800135
-1.190329753453723,2.5218978234740983,-0.7066934774674174,-2.5432245277111165
-1.165110775218982,2.6714647296092164,-0.7321257227445286,-2.6415779173437777
-1.1383961279228898,2.822042861401714,-0.7585415019179663,-2.7426964102874636
-1.1101756993088727,2.97208593181953,-0.7859684660208409,-2.844162645246065
-1.0804548399906775,3.1194247111154327,-0.8144100924733015,-2.942628742246961
-1.0492605928795231,3.261209775543239,-0.8438363798957711,-3.033732122251724
-1.0166484951240906,3.3939553343372637,-0.8741737011182883,-3.1121557475226727
-0.982708941780718,3.5137459947315866,-0.905295258593515,-3.1719214213603775
-0.9475714818334021,3.6166470805872413,-0.9370144728071188,-3.2069750573812295
-0.9114050110275297,3.699293088154812,-0.9690842233809311,-3.2120295247955433
-0.8744120801459816,3.759527513901669,-1.0012045186288865,-3.1834868578051245
-0.8368168050069649,3.796884467130389,-1.0330393872069377,-3.120143131849809
-0.798847960335661,3.8127145100112654,-1.0642408185254357,-3.0233942237702602
-0.7607208152355484,3.8098910701859565,-1.0944747607631384,-2.8968480727678676
-0.7226219045336888,3.792215665785891,-1.123443241490817,-2.745505749657772
-0.6846997478758299,3.763747602079611,-1.1508982989873948,-2.574827071109942
-0.6470622718550337,3.728259531307339,-1.1766465696984942,-2.389965003161638
-0.6097796765419603,3.688912553910111,-1.2005462197301107,-2.1953033280829692
-0.5728905510028592,3.6481397744836705,-1.2224992530109404,-1.9942850673940438
-0.5364091532580225,3.607673567420036,-1.242442103684881,-1.7894430444291585
-0.5003324175838222,3.568646473682129,-1.2603365341291726,-1.5825354614791356
-0.4646459528470009,3.531714294622525,-1.2761618887439639,-1.3747146954606098
-0.42932880990077565,3.4971722578154707,-1.2899090356985699,-1.166688299210219
-0.3943570873226209,3.4650519187876694,-1.3015759186906721,-0.9588544995690931
-0.3597065681347442,3.4351963359092075,-1.311164463686363,-0.7514082552031702
-0.32535460477565215,3.4073157320489518,-1.3186785462383948,-0.5444205050818431
-0.2912814474551626,3.381027446826742,-1.324122751289213,-0.3378955113398324
-0.2574711729868952,3.355884042084492,-1.3275017064026113,-0.13181133163169748
-0.22391233256605028,3.3313928693129533,-1.3288198197189283,0.07385227588151388
-0.19059840387292076,3.307029706198659,-1.3280812969601132,0.27909515677771957
-0.15752810681093415,3.2822484201425017,-1.3252903453923361,0.4838847912455787
-0.12470562260950914,3.2564880841989687,-1.3204514974798804,0.6881492809891241
-0.09214074176751945,3.229178559395175,-1.3135700046699892,0.891774061101281
-0.0598489561735677,3.199745248373425,-1.3046522640589764,1.0946014960157624
-0.027851503689833447,3.167613495484224,-1.2937062490988187,1.2964327902602446
0.0038246312650087946,3.132212936798216,-1.2807419211962163,1.4970318264436138
0.03514676063299096,3.0929819733482966,-1.2657716029317803,1.6961306582620121
0.06607658036647393,3.0493724400538222,-1.24881029634916,1.893436453634223
0.09657030476701216,3.0008544628034137,-1.2298759318128178,2.088639716380783
0.1265788493950463,2.9469214316383514,-1.20898953464901,2.281423624876149
0.15604806371142982,2.887094965657835,-1.1861752984002485,2.4714743212064354
0.18491901336800817,2.820929703519361,-1.161460555188184,2.6584919712652266
0.2131283104032018,2.7480177216693087,-1.1348756354755318,2.8422024004211144
0.2406084876198949,2.667992360820514,-1.1064536114713206,3.0223690954690374
0.26728841122810004,2.5805312301542807,-1.0762299205166301,3.198805355306636
0.29309372352964286,2.485358158817146,-1.0442418669635638,3.3713863731345173
0.3179473051178143,2.382243875967289,-1.0105280032322186,3.540061044057268
0.3417697438774872,2.271005224158897,-0.975127392791646,3.704863314788715
0.36447979611907616,2.1515027462886884,-0.9380787596437588,3.865922926436924
0.385994823581963,2.02363653367357,-0.8994195303793895,4.023475445041836
0.4062311889186987,1.8873402824311487,-0.8591847759289711,4.17787152336414
0.4251045917430102,1.7425735786284946,-0.8174060606953297,4.329585383946416
0.4425303275292951,1.5893125234371301,-0.7741102068558656,4.479222545743172
0.4584234527636664,1.427538926011879,-0.729317981398434,4.627526815893966
0.4726988420237852,1.2572284500244417,-0.6830427132394943,4.7753865050384565
0.4852711265240296,1.0783383289390074,-0.6352888481891097,4.9238396521500905
0.49605450981341964,0.8907956162448704,-0.5860504516676088,5.074077687838055
0.5049624659758684,0.69448749661697,-0.5353096747892283,5.227446300803177
0.511907340942038,0.4892560964454532,-0.4830352117811965,5.385441100287264
0.5167999019064926,0.27490173215829483,-0.4291808007783239,5.549693662293294
0.5195489192280756,0.05120099496908914,-0.37368386415539095,5.721940189091149
0.5200609291777665,-0.18204994223983917,-0.31646446226447944,5.903959500487382
0.5182404297553681,-0.42495010305182757,-0.2574248672596056,6.097458272569622
0.5139909287248499,-0.6773403337926858,-0.1964502845339094,6.303867983036638
0.507217525386923,-0.9385422776453604,-0.13341160470354302,6.523999055973236
0.4978321026104694,-1.206934968805966,-0.06817161414381066,6.757475310448798
0.4857627529224097,-1.4793058099681702,-0.0005968610393226881,7.00185747744799
0.47096969482272805,-1.7499364469197594,0.06942171373515721,7.2513929135415465
0.45347033035353046,-2.009497098208537,0.14193564287057267,7.495478205413024
0.4333753593714451,-2.244114497579558,0.2168904249247029,7.717316601395423
0.41093421439564953,-2.4354876839263815,0.29406359093865714,7.893951177034234
0.38657933755638574,-2.5633643631561083,0.3730031027089995,7.999467371489289
0.3609456939248247,-2.6111220311607237,0.4529977764238924,8.012400143348449
0.33483447361321744,-2.57270311528598,0.5331217778573769,7.9249857070712535
0.30910744246035765,-2.4562948399318434,0.6123716349280894,7.748014008668992
0.2845444940610392,-2.2812936038740603,0.6898517750147793,7.506649369344984
0.2617315580222986,-2.0706949956808067,0.7649182687082292,7.230223133450379
0.2410246080654905,-1.8443851288619115,0.837220500042733,6.943424945922989
0.2225807567768714,-1.6163271706085305,0.9066547495019629,6.662818341430196
0.20641748507078608,-1.3948838644034456,0.9732829329162649,6.397519113081094
0.19246864642675163,-1.1843593686149878,1.0372581240470757,6.151401599484184
0.18062505274060175,-0.9865281695527027,1.0987721400419175,5.925194538317795
0.17075977104507473,-0.8017453141429915,1.1580240854250954,5.7179613171184185
0.16274231790364482,-0.6296440078195974,1.2152036985962795,5.528004345161976
0.15644587782544886,-0.4695384895317579,1.2704837420478994,5.353369639730647
0.1517504929301313,-0.32064275372422557,1.324017438445206,5.192107911422387
0.14854406539288903,-0.182181982227777,1.3759385175594299,5.0423977854876005
0.14672224557061125,-0.05344411439710234,1.426362495414306,4.9025948427914985
0.14618780442664023,0.06620085332073516,1.475388443842221,4.771242636878679
0.1468498129598476,0.17729830560955032,1.5231008702110076,4.647065458265418
0.14862279601594308,0.2803146258599505,1.5695715247936617,4.528953331642545
0.1514259422745426,0.3756463644318194,1.614861058110087,4.415944616430097
0.1551824059188608,0.46363050985184456,1.659020504274388,4.307208818878207
0.15981871101737924,0.5445546123798424,1.70209259246317,4.2020307611087455
0.16526425714117765,0.6186661593478359,1.7441129000742575,4.099796498040321
0.171450918734656,0.6861809493927211,1.7851108650546608,3.9999810008270766
0.1783127282285832,0.7472903945811716,1.8251106750629316,3.9021374567846054
0.18578563217439492,0.8021677711399973,1.8641320496307776,3.8058879736228706
0.1938073098857949,0.8509734829021907,1.9021909293670063,3.7109154675258407
0.2023170447148168,0.8938594196744085,1.9393000840422647,3.6169565318891017
0.21125563891156088,0.9309724980555864,1.9754696493611557,3.5237951112816916
0.22056536389211673,0.9624574714818217,2.010707600473973,3.431256835581235
0.23018993860693496,0.9884590928964638,2.0450201688297853,3.339203898299779
0.24007452953589958,1.009123709128604,2.078412207812783,3.247530389041426
0.25016576662718565,1.0246003615390895,2.1108875117031975,3.1561580121132677
0.26041177024257656,1.0350414630057547,2.1424490918243304,3.0650321414480315
0.2707621848726341,1.0406031168876726,2.173099413238811,2.9741181764002
0.2811682160415108,1.0414451391672637,2.202840595002813,2.8833981740106855
0.29158266743318345,1.0377308404455505,2.2316745767429196,2.7928677414303613
0.30195997583763895,1.0296266198120274,2.259603254157223,2.702533177802343
0.31225624203575925,1.0173014178167241,2.2866285859352464,2.6124088584720178
0.3224292562139265,1.0009260708652183,2.3127526745199667,2.5225148563431805
0.33243851692257864,0.9806726043942893,2.3379778230833983,2.4328747959134334
0.34224524296652153,0.9567134972427229,2.3623065710425326,2.343513935344929
0.35181237793894876,0.929220944793569,2.385741710395982,2.25445747115356
