th1 (rad),w1 (rad/s),th2 (rad),w2 (rad/s),a1 (rad/s^2),a2 (rad/s^2)
2.5246792325373972,2.282222058402543,3.8539741379020644,2.738640829255289,-2.2539357088645917,1.887319128920228
2.5475014531214226,2.2596827013138974,3.8813605461946175,2.7575140205444915,-2.0388623845957445,2.121409683624045
2.5700982801345615,2.2392940774679397,3.908935686400062,2.778728117380732,-1.8124037748574466,2.339910539593024
2.592491220909241,2.2211700397193654,3.9367229675738695,2.802127222776662,-1.5748178070852685,2.5429982516479277
2.6147029213064346,2.205421861648513,3.964744239801636,2.8275572052931413,-1.3263558797773205,2.7308408329456695
2.6367571399229197,2.1921583028507396,3.9930198118545674,2.854865613622598,-1.067267573042219,2.903589242054571
2.6586787229514273,2.1814856271203173,4.021568467990793,2.8839015060431437,-0.7978052628224952,3.0613687313597566
2.6804935792226305,2.1735075744920924,4.050407483051225,2.914515193356741,-0.5182286961067214,3.204270047987415
2.7022286549675516,2.168325287531025,4.079552634984792,2.9465578938366153,-0.22880958606734414,3.3323404866110464
2.723911907842862,2.166037191670352,4.109018213923158,2.979881298702726,0.07016371454529494,3.445574803120327
2.7455722797595654,2.166738828815805,4.138817026910186,3.014337046733929,0.37838140640565554,3.543906009230564
2.7672396680477234,2.1705226428798614,4.168960397377525,3.0497761068262346,0.6955072532205739,3.62719608078554
2.788944894476522,2.177477715412067,4.199458158445787,3.08604806763409,1.0211733665148055,3.6952266269096534
2.810719671630643,2.187689449077215,4.230318639122128,3.123000333903186,1.3549747356149229,3.747689583488302
2.832596566121415,2.2012391964333644,4.26154864246116,3.160477229738069,1.696463487679608,3.7841780129177813
2.8546089580857488,2.2182038313101606,4.293153414758541,3.198319009867247,2.045142881142709,3.8041771128908226
2.8767909963988503,2.238655260121588,4.325136604857213,3.236360780996155,2.4004610584511297,3.807055560372669
2.899177549000066,2.262659870706099,4.3575002126671745,3.274431336599882,2.761804610775675,3.792057343017598
2.9218041477071273,2.2902779168138556,4.3902445260331735,3.312351910030058,3.1284920386834,3.758294259117036
2.944706926875266,2.32156283720069,4.423368045133474,3.3499348526212285,3.499767228739381,3.704739298641078
2.9679225552472728,2.3565605094880837,4.456867393659686,3.3869822456076393,3.874793106690758,3.6302211517011185
2.9914881603421537,2.395308440554991,4.490737216115763,3.4232844571246503,4.25264567315213,3.533420126200178
3.0154412447477035,2.4378348972865123,4.524970060687009,3.4586186583866523,4.632308677221532,3.4128657925625046
3.0398195937205688,2.4841579840587276,4.5595562472708755,3.4927473163122773,5.012669236603995,3.2669367088146495
3.064661173561156,2.5342846764247673,4.594483720433998,3.5254166834004237,5.392514768670046,3.093862611969787
3.090004020325404,2.588209824111468,4.629737887268003,3.5563553095201215,5.770531654106313,2.8917294890886374
3.1158861185665185,2.645915140652531,4.665301440363204,3.5852726044110077,6.1453061116581225,2.658487960328134
3.1423452699730436,2.7073682017691123,4.701154166407314,3.611857484014289,6.515327816668176,2.391965412802229
3.169418951990735,2.772521479935794,4.737272741247457,3.6357771381423114,6.878996844919454,2.0898823134877245
3.197144166790093,2.8413114483849884,4.7736305126288805,3.656675961277189,7.234634563428168,1.7498730963072668
3.225557281273943,2.91365779401927,4.810197272241652,3.6741746922402614,7.58049911757511,1.3695119568404373
3.254693859214136,2.989462785195021,4.846939019164054,3.6878698118086657,7.914806175211428,0.9463437912322481
3.284588487066086,3.068610846947135,4.883817717282141,3.6973332497209883,8.23575557880681,0.47792037679982485
3.3152745955355574,3.150968402735203,4.920791049779351,3.7021124534889864,8.54156452200448,-0.038158296502593704
3.3467842795629092,3.236384047955248,4.957812174314241,3.7017308705239604,8.830507803089326,-0.6041978790439769
3.3791481200424616,3.3246891259861413,4.994829483019481,3.695688891733521,9.100965611544938,-1.22235934084383
3.412395011302323,3.4156987821015905,5.031786371936816,3.6834652983250824,9.351479172956575,-1.89460549289317
3.446551999123339,3.5092135738311563,5.068621024920066,3.6645192433961506,9.580814411733131,-2.622645809610578
3.4816441348616505,3.6050217179484876,5.1052662173540275,3.638292785300045,9.788033592808679,-3.407881524866055
3.5176943520411355,3.7029020538765742,5.141649145207028,3.604213970051384,9.9725746785425,-4.251353553191516
3.5547233725799012,3.802627800661999,5.177691284907541,3.561700434519469,10.134337896050853,-5.153696424107991
3.592749650586521,3.903971179622508,5.213308289252736,3.510163470278389,10.273778769743402,-6.115102096221082
3.631789362382746,4.006708967319942,5.24840992395552,3.4490124493161782,10.392006657869445,-7.135298217312221
3.6718564520559456,4.110629033898636,5.282900048448681,3.377659467143056,10.490887673186117,-8.213546088211627
3.712962742394932,4.2155379106304975,5.316676643120112,3.29552400626094,10.57315080921939,-9.348664235875304
3.755118121501237,4.321269418722691,5.349631883182721,3.202037363902187,10.642496188356711,-10.539084063309183
3.798330815688464,4.427694380606258,5.381652256821743,3.096646523269095,10.703704659563828,-11.782944476621724
3.8426077594945265,4.534731427201897,5.412618722054434,2.978817078502878,10.76274857279667,-13.078232650092584
3.8879550737665456,4.642358912929864,5.442406892839463,2.848034752001952,10.82690451729753,-14.422978143081991
3.934378662895844,4.750627958102839,5.470887240359483,2.7038049705711322,10.904870197431192,-15.815507402607082
3.9818849424768725,4.8596766600771515,5.4979252900651945,2.5456498965450614,11.006889473870974,-17.254765254685456
4.030481709077644,4.969745554815861,5.523381789030645,2.373102243998207,11.144891909304459,-18.74070927691075
4.080179164625802,5.081194473908906,5.547112811470627,2.1856951512290994,11.33265581667992,-20.274781861125636
4.130991109364891,5.194521032075705,5.568969762982918,1.982947332617843,11.58600652036109,-21.860463043142524
4.182936319685648,5.310381097279316,5.588799236309097,1.7643427021864178,11.923063668275969,-23.503904094076837
4.236040130658441,5.4296117339620755,5.606442663330961,1.5293036612456494,12.364551682889479,-25.214635820893115
4.290336247998062,5.5532572507909705,5.621735699943418,1.2771573030367183,12.934183243757808,-27.006333036843508
4.345868820505972,5.682599083228548,5.634507272973785,1.007093972668283,13.65911197267886,-28.897590541586812
4.402694811338257,5.819190202955337,5.644578212700468,0.7181180672524149,14.57041714461006,-30.912611628895803
4.4608867133678105,5.964894374401437,5.651759393372992,0.40899195096345686,15.703510114801334,-33.08159844850008
4.520535657111825,6.12192947554945,5.655849312882626,0.07817596647845604,17.098198916160705,-35.440406419853545
4.581754951867319,6.292911464711057,5.656631072547411,-0.27622809772007945,18.797833727710266,-38.028567400900236
4.64468406651443,6.48088980198816,5.6538687915702095,-0.6565137717290819,20.846323148607688,-40.88387379855052
4.709492964534312,6.689353033474236,5.647303653852918,-1.065352509714587,23.28055613073095,-44.02992195725643
4.776386494869055,6.922158594781546,5.636650128755773,-1.5056517292871514,26.113345131026144,-47.449583627241545
4.84560808081687,7.1832920460918075,5.6215936114629015,-1.9801475655595668,29.29761025384516,-51.03119691903325
4.917441001277788,7.476268148630259,5.6017921358073055,-2.4904595347498995,32.655569783543,-54.46461531698264
4.9922036827640905,7.80282384646569,5.576887540459807,-3.035105687919726,35.749658386660236,-57.054840600129005
5.070231921228747,8.160320430332291,5.54653648358061,-3.6056540939210158,37.680534942599,-57.434558892804645
5.15183512553207,8.53712577975828,5.5104799426414,-4.179999682849062,36.87596981946156,-53.27071313568845
5.237206383329653,8.905885477952896,5.468679945812909,-4.712706814205947,31.188078326466282,-41.423656947239714
5.3262652381091815,9.217766261217559,5.421552877670849,-5.126943383678344,18.994274706087914,-19.55490248687329
5.418442900721357,9.407709008278438,5.370283443834065,-5.322492408547077,1.5455000424289298,10.471554532574608
5.512519990804141,9.423164008702727,5.317058519748595,-5.217776863221331,-15.862054446728392,40.86826906058111
5.606751630891169,9.264543464235443,5.264880751116381,-4.809094172615519,-27.37578664575588,62.908600136993876
5.699397065533523,8.990785597777885,5.216789809390226,-4.18000817124558,-31.37697845510531,73.88727213408207
5.7893049215113015,8.677015813226832,5.1749897276777705,-3.4411354499047597,-30.14753381083952,76.80301321195623
5.87607507964357,8.375540475118438,5.140578373178723,-2.6731053177851973,-26.579073703451446,75.69088102874059
5.959830484394755,8.109749738083924,5.113847320000871,-1.9161965074977914,-22.522277804929757,73.18848163765813
6.040927981775594,7.884526960034626,5.094685354925893,-1.1843116911212102,-18.84163801106853,70.54028386425689
6.11977325137594,7.696110579923941,5.082842238014681,-0.47890885247864123,-15.854386211862645,68.19098116715634
6.196734357175179,7.537566717805315,5.078053149489895,0.20300095919292216,-13.636178284855692,66.21575118106595
6.272110024353233,7.401204934956758,5.080083159081824,0.8651584710035817,-12.17211393812921,64.54112969193238
6.346122073702801,7.279483795575466,5.08873474379186,1.5105697679229055,-11.420138857555267,63.044600408667705
6.418916911658555,7.165282406999913,5.103840441471089,2.141015772009583,-11.333790277077517,61.597211010972345
6.490569735728554,7.051944504229138,5.125250599191185,2.756987882119306,-11.867747158009138,60.08178601126738
6.561089180770845,6.933267032649047,5.152820478012378,3.35780574223198,-12.976716529797393,58.40126172660563
6.630421851097336,6.803499867351073,5.186398535434698,3.9418183594980363,-14.612252815255937,56.48313994401004
6.698456849770847,6.657377339198514,5.2258167190296785,4.506649758938137,-16.719557245413082,54.28227888335662
6.765030623162832,6.490181766744383,5.27088321661906,5.049472547771703,-19.23522286226296,51.78262895191124
6.829932440830276,6.2978295381217535,5.321377942096777,5.567298837290815,-22.086404644174976,48.99788753358476
6.892910736211493,6.076965491680004,5.377050930469685,6.057277712626663,-25.191630484724836,45.97086939560401
6.953680391128294,5.825049186832755,5.437623707595952,6.516986406582703,-28.463275334831142,42.77143476871616
7.011930882996621,5.540416433484444,5.502793571661779,6.944700754269864,-31.811543477889153,39.49297458887395
7.067335047331466,5.222300998705553,5.572240579204477,7.339630500158604,-35.149632851618684,36.24766005320704
7.119558057318521,4.870804670189366,5.645636884206064,7.702107100690674,-38.39960311860725,33.16087796812365
7.1682661040204145,4.486808639003294,5.72265795521297,8.033715880371911,-41.498359671903444,30.365454475656392
7.213134190410448,4.071825042284259,5.802995114016689,8.337370425128475,-44.403123560451576,27.9963757730956
7.25385244083329,3.6277938066797435,5.886368818267973,8.61733418285943,-47.09579286542117,26.186701390691454
7.290130378900088,3.156835878025532,5.972542160096568,8.879201196766346,-49.58569069311185,25.065186813130936
7.321698737680343,2.6609789710944134,6.061334172064231,9.129853064897654,-51.91025667872719,24.755724579409947
7.348308527391287,2.1418764043071414,6.152632702713207,9.377410310691754,-54.13309808751992,25.37794705803743
7.369727291434359,1.6005454234319423,6.246406805820125,9.631189781272129,-56.33813825644974,27.04689087722414
7.385732745668678,1.0371640408674447,6.342718703632846,9.90165869004437,-58.616733945255035,29.866730341313687
7.3961043860773525,0.45099670141489434,6.441735290533289,10.200325993457506,-61.040284743208886,33.90750707311746
7.400614353091502,-0.1594061460171945,6.5437385504678645,10.53940106418868,-63.60155127099258,39.140995073278894
7.39902029163133,-0.7954216587271203,6.649132561109751,10.93081101492147,-66.08983076113611,45.28669568998984
7.391066075044058,-1.4563199663384814,6.758440671258966,11.383677971821369,-67.83743809739094,51.479251126841866
7.376502875380674,-2.134694347312391,6.87227745097718,11.898470483089788,-67.26574458861151,55.651091662511604
7.35515593190755,-2.807351793198506,6.991262155808077,12.454981399714905,-61.32081322600973,53.73679233155153
7.327082413975565,-3.4205599254586034,7.115811969805226,12.992349323030421,-45.64358134353242,39.83319962558743
7.292876814720978,-3.876995738893928,7.245735463035531,13.390681319286296,-17.67931645297565,10.325615026873328
7.254106857332039,-4.053788903423684,7.3796422762283935,13.493937469555028,17.04390976765944,-27.68535015637567
7.213568968297802,-3.88334980574709,7.514581650923944,13.217083967991272,45.199827512808554,-56.87960243832739
7.174735470240331,-3.431351530619004,7.646752490603856,12.648287943607997,58.670600931760596,-67.19899755515013
7.1404219549341414,-2.8446455213013984,7.773235370039936,11.976297968056496,60.562174185611696,-63.38913737096078
7.111975499721128,-2.239023779445281,7.892998349720501,11.342406594346889,57.223050067481395,-53.96134127501982
7.089585261926675,-1.6667932787704673,8.00642241566397,10.80279318159669,52.58478098452003,-43.880442308467735
7.07291732913897,-1.140945468925267,8.114450347479936,10.363988758512013,48.218598237481146,-34.93854276741098
7.061507874449717,-0.6587594865504555,8.218090235065056,10.014603330837904,44.556429085184796,-27.48744043540746
7.054920279584212,-0.2131951956986075,8.318236268373434,9.73972892648383,41.610699189419236,-21.399860550110496
7.052788327627225,0.20291179619558486,8.415633557638273,9.525730320982724,39.27029693997819,-16.442347285640327
7.0548174455891814,0.5956147655953667,8.5108908608481,9.36130684812632,37.404821847102525,-12.394666166009127
7.060773593245135,0.969662984066392,8.604503929329363,9.23736018646623,35.896312417485035,-9.078413538824714
7.070470223085799,1.3286261082412423,8.696877531194025,9.146576051077982,34.645890821698806,-6.356794865796747
7.0837564841682115,1.6750850164582303,8.788343291704804,9.083008102420015,33.57263798877532,-4.126976065800049
7.100507334332794,2.0108113963459835,8.879173372729003,9.041738341762015,32.610707226793316,-2.3118176786315097
7.120615448296253,2.336918468613917,8.969590756146623,9.0186201649757,31.70660403034143,-0.8528276557721377
7.143984632982392,2.6539845089173313,9.05977695779638,9.010091888417978,30.81712264148931,0.2954197750458975
7.170524478071566,2.9621557353322245,9.14987787668056,9.013046086168437,29.90794381306031,1.169584396998078
7.200146035424888,3.2612351734628278,9.240008337542244,9.024741930138418,28.952749276339635,1.8008228197128535
7.2327583871595165,3.550762666226224,9.330255756843629,9.042750158335547,27.932676250093724,2.217210998742187
7.268266013821779,3.8300894287271614,9.420683258426985,9.064922268322968,26.83594299682197,2.4454641549360288
7.30656690810905,4.098448858695381,9.511332481110214,9.089376909872328,25.657499077606904,2.5120474764979557
7.347551396696004,4.35502384947145,9.602226250208938,9.114497384637307,24.398584764231103,2.44374818018188
7.391101635190719,4.599009697113761,9.69337122405531,9.138934866439126,23.066121208665436,2.2677762390807032
7.437091732161856,4.8296709092004155,9.784760572719701,9.161612628829932,21.671894581379156,2.0114717170125864
7.4853884412538605,5.0463898550142074,9.876376699008,9.181727346000057,20.23153998229736,1.7017137713827444
7.535852339804003,5.248705254837181,9.968193972468,9.198744483713885,18.763369551046978,1.3641422032144643
7.588339392352375,5.4363389503476505,10.06018141730514,9.212385905746029,17.287118568338972,1.0223102420197778
7.642702781855851,5.60921013603104,10.1523052763626,9.222609008166227,15.82269929743976,0.6968828267814903
7.698794883216161,5.767437129005438,10.244531366444264,9.229577836434043,14.389053093505034,0.40497709715080954
7.756469254506215,5.911327659940488,10.336827144808604,9.23362760740555,13.003178070506868,0.1597136059265717
7.81558253110562,6.041359440645556,10.42916342088266,9.235224743464816,11.679386126936809,-0.029987171862917696
7.875996125512075,6.158153301914925,10.521515668317308,9.234924871746186,10.428814707435583,-0.15936223645571213
7.937577658531224,6.26244144898928,10.61386491703477,9.233331249381628,9.259190798506541,-0.2275449162658143
8.000202073021118,6.355033356974346,10.706198229528585,9.23105580021897,8.174821729966704,-0.23713215341570984
8.063752406590861,6.436781574274013,10.798508787530775,9.228684478684812,7.176771967816441,-0.19363650518393827
8.128120222333601,6.508549293952178,10.890795632317623,9.226748113632972,6.263177869074528,-0.10487920129849206
8.193205715273123,6.571181072642923,10.983063113453953,9.225699321619986,5.429652360707813,0.019626314805299427
8.258917525999552,6.625477596250001,11.075320106670153,9.22589558476804,4.669736776139504,0.1692619518602476
8.325172301962052,6.672174964011396,11.167579062517834,9.227588204286642,3.9753654004062597,0.33283764065920457
8.391894051602167,6.711928618015459,11.2598549445607,9.230916580693235,3.3373176084624308,0.49905478021627675
8.459013337782322,6.745301794100083,11.352164110367633,9.235907128495397,2.745641295966105,0.6568957462408673
8.526466355723322,6.772758207059744,11.444523181652587,9.242476085957806,2.1900386489807335,0.7959417151838529
8.59419393779392,6.794658593549552,11.536947942512164,9.250435503109644,1.6602107600830203,0.9066253713419736
8.662140523729414,6.811260701150382,11.62945229754326,9.259501756823063,1.146161157595339,0.9804270892607471
8.730253130740918,6.822722312726335,11.72204731511149,9.26930602771567,0.6384602133414415,1.0100234620933883
8.79848035386818,6.82910691485975,11.814740375388647,9.279406262336604,0.12847300336970963,0.9893961583176959
8.866771423016779,6.830391644893447,11.907534438012013,9.289300223919781,-0.39144707862705214,0.9139075598809022
8.935075339465714,6.826477174107176,12.00042744025121,9.29843929951859,-0.9277974340758991,0.7803478896967441
9.003340111206786,6.817199199766417,12.093411833246396,9.306242778415557,-1.4857975394746175,0.586956885430352
9.07151210320445,6.802341224371671,12.186474261030552,9.31211234726986,-2.069292733468169,0.33342171845694607
9.139535515448166,6.781648297036989,12.279595384503251,9.31544656445443,-2.6806915156566764,0.02085189354267606
9.207351998418536,6.754841381880422,12.372749850147795,9.315655083389856,-3.3209376913762187,-0.3482686802544661
9.27490041223734,6.7216320049666605,12.465906400981693,9.31217239658731,-3.989518651171774,-0.7701524176171543
9.342116732287007,6.681736818454943,12.559028124947567,9.30447087241114,-4.684510661223074,-1.2398014004495619
9.408934100471557,6.634891711842712,12.652072833671678,9.292072858406643,-5.402661304449839,-1.751122771094623
9.475283017589984,6.580865098798214,12.744993562255745,9.274561630695697,-6.139508215294345,-2.2970650816935847
9.541091668577966,6.519470016645271,12.837739178562702,9.251590979878761,-6.889532067396102,-2.869773898773243
9.606286368744419,6.45057469597131,12.93025508836149,9.222893240891029,-7.646340476815937,-3.4607643175863454
9.670792115704131,6.3741112912031515,13.0224840207704,9.188285597715165,-8.402878146314938,-4.061107377884147
9.734533228616163,6.290082509740002,13.114366876747551,9.147674523936324,-9.151657270200179,-4.661626696089274
9.797434053713562,6.198565937038,13.205843621986915,9.101058256975431,-9.885001020588124,-5.253100942499517
9.859419713083943,6.099715926832119,13.29685420455667,9.048527247550435,-10.595291930366226,-5.826467116094205
9.920416872352265,5.993763007528457,13.387339477032175,8.990262576389494,-11.27521627260416,-6.373018951393692
9.980354502427549,5.881010844802415,13.477242102796069,8.926532386875557,-11.917995213905199,-6.884594310624066
10.039164610875574,5.7618308926633635,13.566507426664824,8.857686443769317,-12.517593686974983,-7.353745172756911
10.096782919802207,5.636654955793613,13.655084291102517,8.784148992041748,-13.068898656793058,-7.773883936452409
