th1 (rad),w1 (rad/s),th2 (rad),w2 (rad/s),a1 (rad/s^2),a2 (rad/s^2)
4.086296145072212,1.6272028568213928,3.9851894168584554,2.1911123940499087,7.769117851453709,-0.1412058351323632
4.102568173640426,1.7048940353359299,4.007100540798954,2.189700335698585,7.8350763378297135,-0.060366661961379235
4.119617113993786,1.783244798714227,4.02899754415594,2.1890966690789715,7.903077533458022,0.016392733382142005
4.137449561980928,1.8622755740488073,4.05088851084673,2.189260596412793,7.972222725784643,0.09035040691116211
4.156072317721415,1.9419978013066537,4.072781116810858,2.1901641004819044,8.04146182249327,0.16300603167518402
4.1754922957344816,2.0224124195315865,4.094682757815677,2.1917941607986564,8.109591529236075,0.23608527895993675
4.195716419929798,2.1035083348239474,4.116600699423663,2.1941550135882557,8.175253706782293,0.3115433636589929
4.216751503278037,2.1852608718917703,4.138542249559546,2.1972704472248457,8.236934394436709,0.3915667927887221
4.238604111996955,2.2676302158361374,4.160514954031794,2.201186115152733,8.29296410284288,0.4785721521113109
4.261280414155316,2.350559856864566,4.182526815183321,2.205971836673846,8.341520092537841,0.5752005679815069
4.284786012723962,2.4339750577899446,4.204586533550059,2.211723842353661,8.380631457800368,0.6843063034039469
4.309125763301862,2.5177813723679483,4.226703771973596,2.2185669053877004,8.408187917501323,0.808937809017128
4.334303577025541,2.6018632515429614,4.2488894410274725,2.2266562834778716,8.42195326072528,0.9523094784916787
4.360322209540971,2.6860827841502144,4.271156003862251,2.2361793782627886,8.419584385864319,1.1177623874810227
4.387183037382473,2.7702786280088576,4.2935177976448795,2.2473570021375986,8.398656785805032,1.3087124645488144
4.414885823662562,2.854265195866908,4.315991367666255,2.260444126783087,8.35669714621565,1.5285848915167832
4.443428475621231,2.937832167329064,4.338595808934086,2.2757299756982547,8.291223419252828,1.7807340950197321
4.472806797294522,3.0207444015215925,4.361353108691068,2.293537316648452,8.199792299785349,2.0683494935764877
4.503014241309738,3.102742324519446,4.384288481857553,2.314220811584217,8.080053468360568,2.3943482051159926
4.534041664554932,3.183542859203052,4.407430689973395,2.338164293635377,7.9298092984687925,2.761257164745812
4.5658770931469626,3.26284095218774,4.430812332909748,2.365776865282835,7.747078005531191,3.171088474503099
4.59850550266884,3.340311732243052,4.454470101562577,2.397487750027866,7.5301575206721765,3.6252131807961665
4.631908619991271,3.4156133074497737,4.478444979062855,2.4337398818358276,7.2776868088603965,4.124239881570012
4.666064753065768,3.4883901755383775,4.502782377881213,2.4749822806515276,6.988701039154387,4.667905404338894
4.700948654821152,3.558277185929921,4.5275322006877285,2.5216613346949166,6.66267707275992,5.254985065678992
4.736531426680451,3.6249039566575205,4.552748814034678,2.5742111853517065,6.299566253495684,5.883229554671327
4.772780466247027,3.6878996191924776,4.578490925888195,2.6330434808984196,5.899812502392527,6.549334185453218
4.809659462438952,3.746897744216403,4.604821360697179,2.698536822752952,5.46435519479272,7.248944158130523
4.847128439881116,3.8015412961643302,4.631806728924708,2.771026264334257,4.994618109325226,7.976696704968957
4.885143852842759,3.8514874772575824,4.659516991568051,2.8507932313839466,4.4924876795232604,8.72629785630507
4.923658727615335,3.8964123540528153,4.6880249238818905,2.938056209946997,3.960285595214588,9.490628400993108
4.962622851155863,3.9360152100049612,4.71740548598136,3.032962493956928,3.400742228664541,10.2618708266884
5.001983003255912,3.970022632291607,4.74773511092093,3.135581202223812,2.816978177725802,11.031646943865024
5.041683229578828,3.998192414068865,4.779090922943168,3.2458976716624623,2.212501286917937,11.791154747662425
5.081665153719516,4.020317426938044,4.811549899659793,3.3638092191390867,1.5912257967369432,12.531292924285546
5.121868327988897,4.036229684905414,4.845187991851184,3.4891221483819423,0.957518854696216,13.242762183058362
5.16223062483795,4.045804873452376,4.880079213335004,3.621549770212526,0.3162776449676934,13.916134100907174
5.202688673572474,4.048967649902052,4.916294711037129,3.760711111221598,-0.3269619740908145,14.541880175863225
5.243178350071495,4.0456980301611445,4.953901822149345,3.90612991298023,-0.9658870616673146,15.110356123949932
5.283635330373106,4.036039159544472,4.992963121279147,4.057233474219729,-1.5932439982974336,15.611739078535935
5.323995721968551,4.020106719561497,5.033535456021345,4.213350865005089,-2.200657444110065,16.03591842212354
5.364196789164166,3.998100145120396,5.0756689646713955,4.373710049226324,-2.7784433162341733,16.372344891613185
5.404177790615369,3.9703157119580545,5.119406065163659,4.537433498142456,-3.3154319281987803,16.60984797132786
5.44388094773495,3.937161392676067,5.164780400145084,4.703531977855735,-3.7988235514209134,16.736439208698428
5.483252561661711,3.899173157161858,5.211815719923641,4.870896369942719,-4.214106666916394,16.73912975004669
5.52224429323333,3.857032090492694,5.260524683623069,5.0382876674431865,-4.545079264152902,16.603804608053444
5.560814614138256,3.811581297851165,5.3109075602975,5.204325713523721,-4.774025254934053,16.315213661507915
5.598930427116768,3.7638410453018243,5.362950817432737,5.3674778501388,-4.88210971724543,15.85715832538592
5.636568837569786,3.71501994812937,5.416625595934125,5.526049433392659,-4.850064617368292,15.21296884495642
5.67371903705108,3.666519301955687,5.471886090268051,5.6781791218422235,-4.659234579252279,14.366372371928122
5.710384230070637,3.6199269561631646,5.528667881486474,5.8218428455615046,-4.293031108088552,13.302834657797266
5.746583499632268,3.576996645082279,5.586886309942089,5.9548711921394775,-3.7387929341311588,12.011404342471458
5.782353466083091,3.5396087157409672,5.646435021863484,6.074985235564192,-2.989961832494029,10.486986997684095
5.817749553240501,3.5097090974160268,5.707184874219125,6.179855105541033,-2.0483590315858042,8.732826538676354
5.852846644214661,3.4892255071001688,5.768983425274536,6.267183370927796,-0.9262073562710061,6.762797881117377
5.8877388992856625,3.4799634335374585,5.8316552589838135,6.33481134973897,0.3525668146931894,4.602971539649119
5.922538533621037,3.4834891016843903,5.895003372481203,6.380841065135462,1.7522363748608718,2.2918776189324035
5.957373424637882,3.501011465432999,5.958811783132558,6.403759841324786,3.2267335820679595,-0.12095289524414485
5.992383539292212,3.5332788012536787,6.0228493815458055,6.402550312372345,4.722722569954184,-2.5782388510485363
6.0277163273047485,3.5805060269532203,6.086874884669529,6.376767923861859,6.183939424620195,-5.019584138052704
6.063521387574281,3.642345421199422,6.150642563908147,6.326572082481332,7.556087860850357,-7.386658404853579
6.099944841786275,3.7179062998079258,6.213908284732961,6.252705498432796,8.791396785194726,-9.627886079680712
6.137123904784354,3.805820267659873,6.276435339717288,6.156426637635989,9.85203545060708,-11.701741832514568
6.1751821074609525,3.904340622165944,6.337999606093648,6.039409219310843,10.711907506189647,-13.578166455695023
6.214225513682612,4.01145969722784,6.398393698286757,5.903627554753893,11.356769578161233,-15.238135040130928
6.254340110654891,4.125027393009453,6.457429973834296,5.751246204352584,11.78298185306253,-16.67182865610972
6.295590384584985,4.242857211540078,6.514942435877822,5.584527917791487,11.995393981680673,-17.87606099416394
6.3380189567003855,4.362811151356884,6.570787715055737,5.405767307849848,12.004886654364283,-18.85158892627834
6.3816470682139546,4.482860017900527,6.6248453881342355,5.217251418587065,11.825982876489022,-19.60077014833173
6.42647566839296,4.6011198466654175,6.677017902320106,5.021243717103747,11.474789999524384,-20.12582227223662
6.472486866859613,4.7158677466606616,6.727230339491143,4.819985494381381,10.967394152225596,-20.427760146104074
6.51964554432622,4.825541688182917,6.775430194434957,4.615707892920341,10.318732385347428,-20.50597448705623
6.567900961208049,4.928729012036391,6.821587273364161,4.410648148049779,9.541917815559042,-20.358364333106543
6.617188251328413,5.0241481901919816,6.865693754844658,4.207064504718713,8.647977727974881,-19.98192991618717
6.667429733230333,5.11062796747173,6.907764399891845,4.007245205556841,7.645967614971734,-19.373748164227205
6.71853601290505,5.187087643621448,6.947836851947414,3.813507723914569,6.543430146961544,-18.532269207830012
6.770406889341264,5.252521945091063,6.985971929186559,3.628185031836269,5.347165029675372,-17.45887277137387
6.822932108792175,5.305993595387816,7.022253779504922,3.4535963041225304,4.0642556582254485,-16.15959766194891
6.875992044746053,5.3466361519700705,7.056789742546147,3.2920003275030414,2.7032587125233816,-14.646902694396239
6.929458406265754,5.373668739095304,7.089709745821178,3.145531300559079,1.2754079170264645,-12.941240953173997
6.983195093656707,5.386422818265569,7.121165058826769,3.016118891027339,-0.20437282372264162,-11.07215294245972
7.0370593218393624,5.384379090028342,7.1513262477370425,2.9053973616027418,-1.7168851761671382,-9.07854349017971
7.090903112739646,5.36721023826667,7.18038022135307,2.8146119267009446,-3.238722168904319,-7.0078438085078885
7.1445752151223125,5.334823016577627,7.208526340620079,2.7445334886158657,-4.743116909205496,-4.913903498640094
7.1979234452880885,5.287391847485573,7.235971675506238,2.6953944536294645,-6.201550117434244,-2.8537020895480585
7.250797363762945,5.22537634631123,7.262925620042532,2.666857432733984,-7.585902318223888,-0.8832605264375609
7.303051127226057,5.1495173231289915,7.289594194369872,2.6580248274696086,-8.87077637108147,0.9466261343025304
7.354546300457347,5.060809559418177,7.316174442644568,2.6674910888126337,-10.035550507709377,2.594120786580579
7.405154396051529,4.960454054341083,7.342849353532695,2.6934322966784396,-11.065783859087615,4.028931553253456
7.454758936594939,4.849796215750207,7.3697836764994795,2.7337216122109744,-11.953765675825016,5.233415810629352
7.503256898752442,4.730258558991957,7.397120892621589,2.786055770317268,-12.698211958588336,6.20220189638956
7.550559484342362,4.6032764394060735,7.424981450324762,2.8480777892811635,-13.30329371277038,6.940621004918419
7.596592248736422,4.47024350227837,7.453462228217574,2.9174839993303476,-13.777278682851215,7.462405578038772
7.641294683759206,4.332470715449857,7.482637068210877,2.9921080551107355,-14.131073774284996,7.787129464492008
7.684619390913705,4.191159977707008,7.512558148761984,3.0699793497556556,-14.37689328336208,7.937775315815074
7.726530990690775,4.047391044873387,7.543257942259541,3.149357102913806,-14.527187143818267,7.938674784325702
7.767004901139509,3.9021191734352043,7.574751513288679,3.228743850757063,-14.593876973735824,7.813929200985152
7.806026092873861,3.756180403697846,7.60703895179625,3.3068831427669148,-14.587884505070782,7.586313233714439
7.843587896910839,3.610301558647138,7.640107783223919,3.382746275104059,-14.518901483377991,7.2766005013765325
7.879690912497311,3.4651125438133583,7.67393524597496,3.4555122801178246,-14.39533779648712,6.903222863235917
7.9143420379354446,3.321159165848487,7.708490368776138,3.524544508750184,-14.224387510045872,6.482172860498975
7.947553629593929,3.1789152907480283,7.74373581386364,3.589366237355174,-14.012163146980875,6.027070311483019
7.979342782501409,3.0387936592782196,7.779629476237192,3.649636940470004,-13.76386150084074,5.549330868029111
8.009730719094192,2.9011550442698124,7.816125845641892,3.705130249150295,-13.48393632143373,5.058391193959338
8.03874226953689,2.766315681055475,7.853177148133395,3.7557141610898883,-13.176262909196485,4.56195973615997
8.066405426347444,2.6345530519635103,7.890734289744294,3.801333758451488,-12.844286668238237,4.0662729782120035
8.092750956867079,2.506110185281128,7.928747627328809,3.8419964882336077,-12.491152245875202,3.576344711041618
8.11781205871989,2.381198662822376,7.967167592211145,3.8777599353440237,-12.119812511060028,3.0962007672085003
8.141624045348113,2.260000537711776,8.005945191564585,3.9087219430161086,-11.733117818706372,2.629094505839827
8.164224050725231,2.142669359524712,8.045032410994747,3.9350128880745068,-11.333886250672457,2.17769973653188
8.185650744320478,2.0293304970179875,8.084382539875492,3.9567898854398256,-10.924955228064436,1.744278287364437
8.205944049290657,1.9200809447373433,8.12395043872989,3.97423266831347,-10.509214398857933,1.330819526252169
8.22514485873803,1.814988800748764,8.163692765413025,3.9875408635759917,-10.089619306261945,0.9391492319897633
8.243294746745518,1.7140926076861445,8.203568174048785,3.9969323558958894,-9.669185263984911,0.5710056005110942
8.260435672822378,1.6174007550462954,8.243537497607743,4.002642411901,-9.250961259590651,0.2280810888343587
8.276609680372841,1.524891142450389,8.283563921726753,4.004923222789344,-8.837984637157067,-0.08796965295189628
8.291858591797345,1.4365112960788184,8.323613153954646,4.004043526259825,-8.433218719611826,-0.3755533829182401
8.306223704758134,1.3521791088827002,8.363653589217245,4.000287992430643,-8.039477237435118,-0.6331885332265701
8.319745495846961,1.271784336508349,8.403656469141552,3.993956107098377,-7.65934114184741,-0.8595747905366405
8.332463339212044,1.195190925089875,8.443596030212536,3.985360359193011,-7.295074743554081,-1.0536726248524775
8.344415248462942,1.122240177654334,8.483449633804465,3.974823632944486,-6.9485487940486,-1.2147822968193351
8.355637650239485,1.052754689713848,8.52319787013391,3.9626758099762927,-6.621177879043755,-1.3426119993322791
8.366165197136624,0.9865429109234104,8.562824628233672,3.94924968998297,-6.313878260078026,-1.4373262382283205
8.376030626245859,0.9234041283226302,8.602317125133501,3.9348764276006865,-6.02705022159281,-1.499568154610438
8.385264667529086,0.8631336261067021,8.641665889409508,3.919880746054582,-5.7605863760888,-1.530452826574019
8.393896003790152,0.8055277623458141,8.680864696870053,3.904576217788842,-5.513904672203185,-1.531532108872931
8.40195128141361,0.7503887156237823,8.719910459047941,3.889260896700113,-5.286002464956656,-1.5047347156244908
8.409455168569847,0.6975286909742158,8.758803068014943,3.874213549543868,-5.07552627623017,-1.4522875819896526
8.41643045547959,0.6467734282119141,8.797545203510381,3.8596906737239713,-4.880850974055081,-1.376625815086629
8.422898189761709,0.5979649184713632,8.836142110247621,3.845924415573105,-4.700162038976245,-1.2802987429813966
8.428877838946422,0.5509632980816008,8.874601354403353,3.833121428143291,-4.531535230384979,-1.1658788596898078
8.434387471927238,0.5056479457777511,8.912932568684786,3.8214626395463926,-4.3730090945299045,-1.035879123913446
8.439443951385016,0.461917854832452,8.95114719508025,3.8111038483072583,-4.222647122768443,-0.8926824140211497
8.44406312993334,0.4196913836047676,8.989258233563323,3.802177024167047,-4.078587752601378,-0.7384852541322257
8.448260043769388,0.37890550607875384,9.027280003804993,3.794792171625725,-3.9390816403355267,-0.5752564166803043
8.452049098830175,0.33951468967539855,9.065227925521251,3.7890396074589217,-3.8025166245415747,-0.4047098008558553
8.455444245726929,0.3014895234299828,9.10311832159584,3.784992509450363,-3.6674315065407925,-0.22829013106507168
8.458459140961228,0.2648152083645749,9.140968246690344,3.7827096081397125,-3.5325202072188104,-0.04716950299094457
8.461107293044874,0.2294900062923868,9.17879534277174,3.782237913109803,-3.396628057091511,0.13774742199852993
8.463402193107799,0.1955237257214717,9.21661772190284,3.7836153873297884,-3.2587419910424402,0.32581177647772813
8.465357430365014,0.1629363058110473,9.254453875776138,3.7868735050945657,-3.117976304849218,0.5166144505020175
8.466986793423125,0.1317565427625551,9.292322610827084,3.7920396495995856,-2.9735554364821164,0.7099674616385498
8.46830435885075,0.10202098839773394,9.33024300732308,3.7991393242159712,-2.8247950011116827,0.9058842410791109
8.469324568734727,0.07377303838661711,9.36823440056524,3.808198166626762,-2.6710820647162015,1.104560042991324
8.470062299118593,0.0470622177394551,9.406316382231509,3.8192437670566752,-2.5118554077413116,1.3063533968040733
8.470532921295987,0.021943663662041982,9.444508819902076,3.832307301024716,-2.34658632028358,1.5117692642243996
8.470752357932607,-0.0015221995407938178,9.482831892912323,3.84742499366696,-2.1747602906335315,1.721444341481111
8.470737135937199,-0.02326980244712913,9.521306142848992,3.864639437081771,-1.995859802369043,1.9361347641891942
8.470504437912728,-0.043228400470819564,9.559952537219809,3.8840007847236633,-1.8093483414135836,2.1567063252596417
8.47007215390802,-0.0613218838849554,9.598792545067045,3.90556784797626,-1.6146556318548646,2.3841272010461996
8.469458935069172,-0.07746844020350405,9.637848223546808,3.929409119986722,-1.411164065465822,2.619463091652498
8.468684250667136,-0.09158008085816227,9.677142314746675,3.955603750903247,-1.1981962623865308,2.8638746114859597
8.467768449858555,-0.10356204348202758,9.716698352255708,3.9842424970181067,-0.97500369742711,3.1186167087739087
8.466732829423735,-0.11331208045629867,9.75654077722589,4.015428664105846,-0.7407563469599996,3.3850398405659963
8.465599708619173,-0.12071964392589866,9.796695063866949,4.049279062511506,-0.4945333556531258,3.6645925750477435
8.464392512179915,-0.1256649774824299,9.837187854492063,4.085924988261983,-0.23531479219245785,3.9588252274537465
8.46313586240509,-0.1280181254043545,9.878047104374684,4.12551324053652,0.03802533758858991,4.269394050137443
8.461855681151047,-0.1276378720284686,9.919302236780048,4.168207181037895,0.32672451702359795,4.598065380497371
8.460579302430762,-0.12437062685823262,9.960984308590428,4.2141878348428685,0.6321351020972458,4.946718989280867
8.45933559616218,-0.11804927583726016,10.003126186938857,4.2636550247356775,0.9557249439078354,5.31734964994544
8.458155103403808,-0.10849202639818181,10.045762737186214,4.316828521235132,1.29907422257431,5.71206564672509
8.457070183139827,-0.09550128417243871,10.088931022398565,4.373949177702382,1.6638670605149846,6.133082528856705
8.456115170298103,-0.07886261356728887,10.132670514175588,4.435280002990949,2.051875955396269,6.582709868298404
8.45532654416243,-0.058343854013326174,10.177023314205497,4.5011071016739335,2.4649363873567314,7.063328047229357
8.454743105622297,-0.033694490139758865,10.222034385222237,4.571740382146227,2.904908068626879,7.577351139279037
8.4544061607209,-0.0046454094534900715,10.267751789043698,4.647513893539017,3.373618166005645,8.127170694571676
8.454359706626365,0.02909077220656638,10.314226927979089,4.728785600484734,3.872780381518152,8.715073624433028
8.45465061434843,0.0678185760217479,10.361514783983937,4.815936336729065,4.4038819666200215,9.343125334007754
8.455328800108648,0.11185739568794811,10.409674147351227,4.9093675900691425,4.968028522673152,10.013006703552017
8.456447374065528,0.16153768091467963,10.458767823251918,5.009497657104663,5.56573378694557,10.725790432959148
8.458062750874674,0.21719501878413533,10.508862799822964,5.116755561434254,6.196638566862664,11.481638667101718
8.460234701062516,0.27916140445276194,10.560030355437307,5.231571948105271,6.8591397409818295,12.279399874501763
8.463026315107044,0.34775280186258023,10.61234607491836,5.354365946850289,7.549907196244029,13.116079068501001
8.46650384312567,0.4232518738250205,10.665889734386862,5.4855267375353,8.263264503955554,13.986152473058135
8.47073636186392,0.5058845188645761,10.720745001762216,5.625388262265881,8.990409450682401,14.880697169649029
8.475795207052567,0.5957886133714001,10.776998884384875,5.774195233962371,9.718455559789643,15.78631070392154
8.481753093186281,0.6929731689692965,10.8347408367245,5.932058341001587,10.42928909737006,16.683809192533342
8.488682824875974,0.797266059942997,10.894061420134515,6.09889643292692,11.098263059019823,17.54672125898106
8.496655485475404,0.9082486905331952,10.955050384463783,6.274363645516731,11.692797385825548,18.339647470641253
