th1 (rad),w1 (rad/s),th2 (rad),w2 (rad/s)
0.20812170192300553,1.3761357199936757,2.7131875418234155,3.106194716270605
0.2218830591229423,1.3577086161056067,2.7442494889861218,3.0394085053195528
0.23546014528399836,1.3359342023186394,2.774643574039317,2.973054916725829
0.24881948730718476,1.310997369947938,2.8043741232065753,2.907235505615136
0.26192946100666414,1.2830809326068313,2.8334464782627267,2.842047021925523
0.2747602703327325,1.2523647366580053,2.861866948481982,2.7775806075020593
0.28728391769931255,1.2190249223966148,2.8896427545570025,2.7139212218847613
0.2994741669232787,1.1832333329030476,2.91678196677585,2.6511472784788577
0.3113065002523092,1.1451570643467355,2.9432934395606383,2.589330471541066
0.32275807089577657,1.104958149220987,2.969186744276049,2.5285357739615804
0.33380765238798643,1.0627933624408996,2.994472102015665,2.468821586028601
0.34443558601239543,1.018814139326718,3.0191603178759507,2.410240016083943
0.3546237274056626,0.9731665941037891,3.0432627180367904,2.3528372750714963
0.36435539334670053,0.9259916275604935,3.0667910907875053,2.2966541683124864
0.3736153096223055,0.877425112808049,3.08975763247063,2.241726669294715
0.382389560750386,0.8275981485827835,3.1121748991635774,2.1880865617361565
0.3906655422362138,0.7766373701370809,3.134055764780939,2.135762137592716
0.3984319159375846,0.7246653084076955,3.1554133861568663,2.084778939958477
0.40567856902166155,0.6718007887704008,3.176261175556451,2.035160540902395
0.41239657690936554,0.6181593612409496,3.196612780965475,1.986929345159661
0.41857817052177504,0.5638537544278528,3.2164820744170717,1.940107411221841
0.42421670806605355,0.5089943458559927,3.23588314852929,1.894717281730476
0.4293066515246135,0.4536896414435075,3.254830321346595,1.8507828151656198
0.43384354793904856,0.3980467569172299,3.273338149498251,1.808330010633165
0.43782401550822087,0.34217189379066604,3.2914214496045826,1.7673878170993025
0.4412457344461275,0.28617080220605257,3.3090953277755757,1.7279889177110428
0.44410744246818806,0.2301492224679698,3.326375216952686,1.6901704789002454
0.44640893469286774,0.1742132964866592,3.3432769217416887,1.653974852825793
0.4481510676577343,0.11846993962829844,3.3598166702699466,1.6194502204054082
0.4493357670540173,0.06302716266882064,3.3760111724740005,1.5866511607779272
0.4499660386807055,0.007994332708204412,3.3918776840817797,1.5556391315849534
0.45004598200778756,-0.046517638925833986,3.4074340753976293,1.5264828430492225
0.4495808056185292,-0.10039619451077669,3.4226989038281217,1.49925850755375
0.44857684367342143,-0.1535271268341885,3.4376914889036594,1.4740499454062994
0.4470415724050795,-0.20579468888544372,3.4524319883577226,1.4509485268406794
0.4449836255162251,-0.25708183010410096,3.4669414736261293,1.4300529302086558
0.4424128072151841,-0.3072705725805624,3.481242002928216,1.4114686969160117
0.43934010148937847,-0.3562425396900973,3.495356689897376,1.3953075651239686
0.4357776760924775,-0.40387964807226506,3.5093097655486156,1.3816865667443579
0.43173887961175483,-0.45006497153317904,3.5231266312160594,1.370726875966027
0.427238229896423,-0.4946837822477896,3.53683389997572,1.3625524026009768
0.4222913920739451,-0.5376247704943277,3.5504594240017298,1.357288130032821
0.41691514436900184,-0.578781439017436,3.564032305302058,1.3550582055301528
0.4111273299788275,-0.6180536619920728,3.5775828873573596,1.3559838001161488
0.40494679335890676,-0.6553493915118739,3.5911427253585213,1.3601807659233207
0.39839329944378804,-0.690586486697117,3.6047445330177545,1.3677571307443184
0.3914874345768169,-0.7236946321458639,3.6184221043251976,1.3788104819091258
0.38425048825535824,-0.754617303878308,3.6322102091442887,1.393425304115704
0.37670431521657516,-0.783313732597765,3.646144462185446,1.4116703477026986
0.36887117789059753,-0.8097608065630952,3.660261165662473,1.433596114231581
0.36077356982496656,-0.8339548502706694,3.674597126804789,1.4592325541958366
0.35243402132225987,-0.8559132111618547,3.689189452346747,1.488587076212795
0.3438748892106413,-0.8756755853841904,3.7040753231088748,1.5216429672407619
0.3351181333567994,-0.8933050158512383,3.7192917527812823,1.5583583184093397
0.32618508319828704,-0.9088885019303449,3.7348753359653757,1.5986655404254035
0.3170961981789836,-0.922537170273232,3.7508619913696295,1.6424715360676703
0.3078708264762513,-0.9343859705227872,3.767286706730306,1.6896585753264037
0.2985269667710234,-0.9445928774562533,3.7841832924835703,1.7400858921279312
0.2890810379964609,-0.9533376017608789,3.8015841514048496,1.7935919916858543
0.2795476619788521,-0.9608198339341176,3.8195200713217083,1.8499976261912217
0.26993946363951093,-0.9672570683334517,3.8380200475836204,1.9091093659766942
0.26026689295617644,-0.9728820755955381,3.8571111412433874,1.970723665786748
0.25053807220022106,-0.9779401099307902,3.876818377901255,2.0346313035777746
0.24075867110091315,-0.9826859517863867,3.8971646909370325,2.1006220542288725
0.2309318115830493,-0.9873808950086806,3.9181709114793213,2.16848945396498
0.2210580026329625,-0.9922897903456697,3.9398558060189712,2.238035513748698
0.2111351047295058,-0.9976782538735862,3.9622361611564583,2.3090752511604826
0.20115832219076996,-1.0038101402149622,3.985326913668063,2.381440929375721
0.19112022078862034,-1.010945367223281,4.0091413229618205,2.454985917155481
0.18101076711638753,-1.0193381624818052,4.033691182133375,2.529588113276908
0.17081738549156947,-1.029235784039094,4.0589870632661444,2.60515291035926
0.16052502765117854,-1.0408777498484125,4.085038592369737,2.681615704504235
0.15011625015269442,-1.0544955938371878,4.111854749414779,2.758943986786791
0.13957129421432254,-1.0703131526108567,4.1394441892826475,2.8371390790972884
0.12886816268821397,-1.0885473763886808,4.16781558007362,2.916237599395308
0.11798268892432716,-1.1094096514439657,4.196977956067573,2.9963127599076547
0.1068885924098875,-1.1331076193388527,4.22694108366665,3.0774756165290427
0.09555751621649898,-1.1598474806163543,4.25771583983194,3.159876399440002
0.08395904141033544,-1.1898367771759863,4.28931460382634,3.2437060648438076
0.07206067363857557,-1.2232876580513876,4.321751664474778,3.3291982170531975
0.059827797058061696,-1.260420647430736,4.35504364664531,3.416631560338585
0.04722359058375433,-1.3014689512178808,4.389209962248696,3.5063330523882827
0.03420890107157552,-1.3466833589246743,4.424273292772579,3.5986819472193026
0.02074206748232878,-1.3963378208372355,4.460260112244772,3.6941149359442824
0.006778689273956426,-1.4507358055784088,4.497201261604214,3.7931326194718955
-0.007728668781827661,-1.5102175691468058,4.535132587798933,3.896307577575307
-0.022830844473295718,-1.5751684907132055,4.574095663574686,4.004294331613045
-0.03858252938042778,-1.6460286478471504,4.614138606890816,4.117841528011176
-0.05504281585889928,-1.7233038046369962,4.655317022170928,4.237806684681823
-0.07227585390526925,-1.8075779517664463,4.6976950890177465,4.365173819554277
-0.09035163342293372,-1.899527433242208,4.741346827213289,4.501074174535273
-0.1093469077553558,-1.9999364556346468,4.786357568958642,4.646809974863416
-0.12934627231170226,-2.1097132833637913,4.832825668707276,4.8038805645694485
-0.15044340514534016,-2.2299054586660265,4.88086447435297,4.974009038715203
-0.17274245973200042,-2.361710545342734,4.930604564740122,5.159165105827101
-0.19635956518542777,-2.506475447200338,4.982196215798393,5.361575353501982
-0.22142431965743115,-2.6656709708461124,5.0358119693334125,5.583703527573566
-0.24808102936589227,-2.8408166576346128,5.091649004609148,5.828167627952832
-0.2764891959422384,-3.033310110571655,5.1499306808886764,6.097532114756587
-0.306822297047955,-3.2440793233521457,5.210906002036242,6.3938641240182825
-0.33926309028147644,-3.4729198592397097,5.274844643276425,6.717863509796855
-0.37399228887387354,-3.7173041141357164,5.342023278374393,7.06727096070611
-0.4111653300152307,-3.970401603185803,5.412695987981454,7.434186172765662
-0.4508693460470887,-4.218196045475593,5.487037849709111,7.8011213344817465
-0.49305130650184464,-4.436348520768119,5.565049063053928,8.13665858517316
-0.5374147917095259,-4.58939180251639,5.64641564890566,8.394249921679725
-0.5833087097346898,-4.637251665778982,5.730358148122457,8.521036907210284
-0.6296812263924797,-4.552132250963757,5.81556851719456,8.480862608758299
-0.6752025489021173,-4.336857655872887,5.900377143282143,8.2791473843077
-0.7185711254608461,-4.025757497684268,5.98316861712522,7.963642817017861
-0.7588287004376888,-3.6648616580234514,6.0628050452953985,7.596992353839757
-0.7954773170179233,-3.2914855342934892,6.138774968833796,7.228993952701571
-0.8283921723608583,-2.9274815766243507,6.211064908360812,6.887897447475843
-0.8576669881271017,-2.5823676562236555,6.27994388283557,6.585113870109889
-0.8834906646893383,-2.2584898413448102,6.345795021536669,6.322462219991525
-0.9060755631027865,-1.954786089445291,6.409019643736585,6.097334645370096
-0.9256234239972394,-1.6688907377537276,6.469992990190286,5.905522940476544
-0.9423123313747767,-1.3981563538396797,6.529048219595051,5.742549806486708
-0.9562938949131734,-1.1400968766097397,6.586473717659918,5.604215046888325
-0.9676948636792708,-0.8925508026333636,6.642515868128801,5.486770332031077
-0.9766203717056045,-0.6537183130788748,6.697383571449112,5.386932421132349
-0.9831575548363932,-0.42214631930402613,6.751252895660436,5.301834119091101
-0.9873790180294335,-0.19669532477716173,6.8042712368513465,5.228957585057996
-0.9893459712772051,0.023497207638895512,6.856560812701926,5.166068848219535
-0.9891109992008161,0.23905123955370586,6.908221501184122,5.111160640230434
-0.9867204868052791,0.45037459006417413,6.959333107586426,5.06240549417209
-0.9822167409046374,0.6576894492316406,7.0099571625281465,5.018118926982329
-0.975639846412321,0.8610556629503903,7.06013835179797,4.976731742145178
-0.9670292897828171,1.060391647578771,7.109905669219422,4.9367702846128925
-0.9564253733070294,1.2554937400007857,7.159273372065551,4.896843495284502
-0.9438704359070215,1.4460546424835252,7.208241807018395,4.855635691292636
-0.9294098894821862,1.6316814409022797,7.256798163931322,4.811904077725739
-0.9130930750731634,1.811913488340913,7.3049172047085795,4.764480057014409
-0.8949739401897543,1.9862402694292483,7.352562005278724,4.712273445042112
-0.8751115374954618,2.1541192044481146,7.399684739729145,4.6542787376204675
-0.8535703454509806,2.314993224269368,7.44622752710535,4.589582609129116
-0.830420413208287,2.468307853881585,7.492123353196641,4.517371877392933
-0.8057373346694712,2.613527487577616,7.5372970719705705,4.4369412422614145
-0.779602059793695,2.750150523760224,7.5816664843931845,4.347700202097859
-0.7521005545560928,2.8777230490123786,7.625143486414163,4.24917866959839
-0.723323324065969,2.9958508131486115,7.667635273110147,4.141030938618845
-0.6933648159344828,3.1042093099389305,7.709045582496335,4.023037786413723
-0.6623227228350935,3.202551860816768,7.749275960360473,3.895106619133953
-0.6302972042269258,3.290715679752099,7.788227026551812,3.757269671869995
-0.5973900474294048,3.3686259667809164,7.825799723270512,3.6096803502861077
-0.5637037877615957,3.4362981286543435,7.861896526773373,3.4526078457522678
-0.5293408064750522,3.4938382548424096,7.896422605230896,3.2864301716371456
-0.49440242392662814,3.5414419869180125,7.929286906947268,3.111625761482895
-0.458988004057448,3.57939191389558,7.960403164562097,2.9287637498901766
-0.4231940849184922,3.608053612512757,7.9896908020609985,2.7384930353295767
-0.3871135487933646,3.6278704376851283,8.017075732414295,2.5415302113627223
-0.35083484441651336,3.6393571616726157,8.042491034527922,2.3386464569030676
-0.3144412727997872,3.643092566016219,8.065877499096953,2.1306535010945784
-0.27801034713962497,3.6397111101551483,8.087184034107898,1.9183888232480795
-0.2416132360380735,3.629893833570075,8.106367922340379,1.7027003074921512
-0.20531429770237275,3.614358689992023,8.123394925415301,1.4844306361307897
-0.16917071080245252,3.593850556113568,8.138239231776609,1.2644017638994662
-0.13323220524131685,3.569131195800337,8.150883249415603,1.0433998561356483
-0.09754089328331347,3.540969486899547,8.16131724797696,0.8221610881261219
-0.062131198414318,3.5101322259437744,8.169538858858221,0.6013586850207285
-0.027029876154880256,3.4773758135309385,8.175552445708428,0.3815915307605847
0.007743881980429128,3.4434390901180505,8.179368361016033,0.16337459417643727
0.042178272881609635,3.4090375414346212,8.181002106957799,-0.05286868158918015
0.07626864829595585,3.3748590299200005,8.180473420141906,-0.2668119936903195
0.11001723859515586,3.341561139919592,8.177805300205003,-0.47822987947388684
0.14343284999435177,3.3097701563080975,8.173023001410264,-0.6869996867901746
0.17653055155743275,3.2800816342462644,8.166153004542362,-0.8931020851423114
0.2093313678998954,3.253062465639352,8.15722198369094,-1.0966204488047087
0.24186199255628893,3.229254306935574,8.146255779202892,-1.2977394755916332
0.2741545356256447,3.209178201899788,8.133278384446976,-1.4967434075330104
0.30624631764464255,3.193340207715846,8.118310950371646,-1.694014190901743
0.338179719721801,3.1822378056741774,8.101370808462628,-1.8900298498978223
0.37000209777854276,3.1763668370687403,8.082470509963649,-2.0853632437390712
0.40176576614923015,3.176228633151122,8.061616877526259,-2.280681216052568
0.4335280524807414,3.1823368784647843,8.038810065365732,-2.4767439003463316
0.46535142126538925,3.1952235186974387,8.014042626362269,-2.6744035669474457
0.49730365645236363,3.2154426334704915,7.987298590692794,-2.874601802710294
0.5294580827870685,3.2435705408792894,7.958552572665691,-3.0783628703267913
0.5618937881958614,3.2801993272918932,7.927768943962423,-3.286779584317412
0.5946957814687803,3.3259192628183722,7.894901148119249,-3.5009856329653015
0.6279549740969641,3.3812828181210386,7.859891291789596,-3.722104478113917
0.6617678022781744,3.44673877050408,7.822670247008457,-3.951159114396637
0.6962351899832152,3.5225186680883684,7.78315865586449,-4.188918340245857
0.7314603766640989,3.6084495208745104,7.741269472462031,-4.435643483616041
0.767544871872844,3.703657192957802,7.696913037625871,-4.690686317977655
0.804581443802422,3.806119742238643,7.650006174446094,-4.951881271510919
0.8426426412248085,3.9120433264107355,7.600487361730985,-5.214692918474898
0.8817630744889158,4.01509674785505,7.548340432546236,-5.471166838099645
0.9219140419674663,4.105704631785273,7.49362876416524,-5.708958378016791
0.9629710882853191,4.1708972106661095,7.436539180385072,-5.911126645514143
1.00468006039198,4.195532717550199,7.377427913929931,-6.057821666854073
1.046635387567482,4.165586189666621,7.31684969726139,-6.130820285423715
1.0882912494641483,4.072982683189097,7.2555414944071535,-6.120173503710451
1.1290210762960393,3.9194500724240697,7.194339759370049,-6.029451025517882
1.16821557702028,3.7163667803580367,7.1340452491148705,-5.875404492430336
1.2053792448238603,3.4803513366419203,7.075291204190567,-5.681756650179527
1.2401827581902796,3.2277252925496636,7.018473637688771,-5.471512326167577
1.2724600111157762,2.971021241285318,6.963758514427096,-5.2621824309067815
1.3021702235286294,2.7181922681492012,6.9111366901180284,-5.064779608901321
1.3293521462101214,2.4734190627176176,6.860488894029015,-4.885011984674695
1.3540863368372975,2.238332785674891,6.811638774182269,-4.725022797859054
1.3764696646940464,2.0130558976728024,6.764388546203678,-4.584852459350936
1.3966002236707744,1.7969173234041231,6.718540021610169,-4.4634336670790375
1.4145693969048156,1.5888901186413396,6.6739056849393785,-4.359193975579544
1.430458298091229,1.387839452248865,6.630313745183583,-4.27039205737211
1.4443366926137178,1.1926540791820146,6.587609824609863,-4.1952913687802775
1.4562632334055379,1.0023106588750774,6.54565691092206,-4.132240648357301
1.4662863399942887,0.8159011380921238,6.504334504438487,-4.079703534388767
1.47444535137521,0.6326407374844232,6.463537469094599,-4.036261750659585
1.4807717587500542,0.45186636737867897,6.423174851588003,-4.000605532809148
1.485290422423841,0.27303080943727176,6.383168796259912,-3.9715187416885684
1.4880207305182138,0.09569545425740938,6.343453608843026,-3.947862610009527
1.4889776850607879,-0.08047703564994374,6.303974982742931,-3.9285601401359083
1.4881729147042884,-0.25572954932607345,6.264689381341571,-3.9125821290090563
1.4856156192110277,-0.4302166714690147,6.225563560051481,-3.898935246826184
1.4813134524963376,-0.604010203512534,6.186574207583219,-3.8866523161244055
1.4752733504612123,-0.7771042286240611,6.147707684421976,-3.874784802090559
1.4675023081749716,-0.9494199357112764,6.10895983640107,-3.862397463192423
1.458008108817859,-1.1208104300510002,6.070335861769146,-3.8485650846517165
1.4468000045173488,-1.2910657495501088,6.031850210922629,-3.8323712044122678
1.4338893470218477,-1.4599182836710818,5.993526498878507,-3.812908730628929
1.4192901641851368,-1.6270487609162798,5.955397411572218,-3.7892823356266114
1.403019676575974,-1.7920929329564323,5.917504588215952,-3.7606124915071026
1.3850987472464096,-1.954649040804793,5.87989846330088,-3.726040986967705
1.3655522568383616,-2.1142861025185113,5.8426380534312035,-3.6847377345798367
1.3444093958131764,-2.270553014472823,5.805790676085405,-3.6359086446323476
1.321703865668448,-2.4229884111372413,5.7694315896390815,-3.5788043078635874
1.2974739815570757,-2.571131183347015,5.733643546560446,-3.512729197152708
1.2717626697236055,-2.714531514041349,5.6985162545889185,-3.437051069386926
1.244617354583192,-2.852762254783064,5.664145743895049,-3.3512102246805173
1.2160897320353614,-2.9854304371473077,5.630633641648244,-3.2547282618066253
1.1862354276638882,-3.112188690939493,5.598086359030178,-3.1472159566322673
1.1551135407544932,-3.232746326554994,5.566614199463856,-3.0283798848778387
1.1227860774889433,-3.346879831922524,5.5363304006150775,-2.8980274121673046
1.089317279169718,-3.4544425358558484,5.507350126493405,-2.75606968406676
1.0547728538111596,-3.555373200170083,5.479789429652738,-2.6025222682412754
1.0192191218094588,-3.649703324042777,5.453764206970325,-2.437503132193349
0.9827220885690311,-3.7375629777435058,5.429389175648391,-2.261227685698328
0.9453464587915961,-3.8191850311288946,5.406776898791408,-2.074000678967668
0.9071546084803072,-3.8949077069733415,5.386036892001732,-1.8762048262989532
0.8682055314105738,-3.965175471051835,5.367274843738742,-1.6682861186956321
0.8285537767000555,-4.030538369037863,5.350591982551785,-1.4507358927179554
0.7882483930096769,-4.09165003174914,5.336084623624606,-1.224069828324673
0.7473318926921855,-4.149264689865226,5.323843925341359,-0.9888041444049918
0.7058392457935332,-4.204233659819233,5.313955883897309,-0.7454293341498817
0.6637969091953408,-4.257501875690887,5.30650159055581,-0.49438182088532545
0.621221890438432,-4.310105138563529,5.301557772346957,-0.23601390923649734
0.5781208390527968,-4.363168825635513,5.299197633254592,0.02943764613154226
0.5344891507964417,-4.4179088360007555,5.299492009715908,0.3018842233562174
0.4903100624364341,-4.475635533972072,5.30251085194947,0.5814189426611065
0.4455537070967134,-4.537761358711197,5.308325041376081,0.8683512468092172
0.4001760935096014,-4.605812550699605,5.317008553844174,1.1632423387470165
0.35411796800260537,-4.681445000553751,5.328640977231644,1.4669410069440856
0.30730351799706784,-4.766463353923386,5.343310387301085,1.7806184089367996
0.259638884457834,-4.862840817583794,5.361116571390453,2.1057982486649816
0.21101047628199607,-4.972733856412816,5.382174553877103,2.444374406047144
0.1612831377178679,-5.098479727601483,5.406618297937575,2.798599460437185
0.11029834044185306,-5.242552926691962,5.434604292541946,3.1710110007442625
0.05787281117493344,-5.4074343884225335,5.466314402549389,3.5642315306692067
0.0037984672907081032,-5.595306839911774,5.501956717856081,3.980521209146001
-0.05215460110840964,-5.807420260152441,5.541761929947541,4.420865617263561
-0.11022880370993404,-6.042866465311577,5.585970586120177,4.883234363961875
-0.17065746836304982,-6.29639215337216,5.634802929759796,5.359494295027404
