th1 (rad),w1 (rad/s),th2 (rad),w2 (rad/s),a1 (rad/s^2),a2 (rad/s^2)
6.072585494276992,1.930401803975155,0.4541337426355404,0.9771845991357301,7.156310195859714,-12.230359723104069
6.091889512316744,2.001964905933752,0.4639055886268977,0.8548810019046894,6.990013505720255,-12.369579620678117
6.111909161376081,2.0718650409909545,0.4724543986459446,0.7311852056979082,6.829331823477502,-12.498605059751172
6.132627811785991,2.1401583592257296,0.47976625070292367,0.6061991551003965,6.673170479946112,-12.613880853229478
6.154029395378248,2.206890064025191,0.4858282422539276,0.4800603465681017,6.519863452775905,-12.711266853558882
6.1760982960185,2.27208869855295,0.49062884571960863,0.35294767803251287,6.367056558390992,-12.785890251711646
6.198819183004029,2.33575926413686,0.49415832249993374,0.2250887755153964,6.211575043274767,-12.831974223167528
6.222176775645398,2.3978750145696077,0.4964092102550877,0.09676903328372113,6.0492790186261685,-12.842648240422847
6.246155525791094,2.4583678047558695,0.49737690058792494,-0.03165744912050733,5.8749142149823435,-12.809751238116661
6.2707392038386525,2.517116946905693,0.49706032609671985,-0.15975496150167395,5.681971753595059,-12.723647735131124
6.295910373307709,2.5739366644416437,0.4954627764817031,-0.28699143885298517,5.462579589976166,-12.573089731802819
6.321649739952126,2.6285624603414055,0.49259286209317327,-0.4127223361710134,5.207460252036673,-12.34517404279796
6.34793536455554,2.680637062861772,0.48846563873146315,-0.536174076598993,4.9060039780184095,-12.025464937546396
6.374741735184158,2.729697102641956,0.4831038979654732,-0.6564287259744569,4.54652132967542,-11.598372598252947
6.402038706210578,2.77516231593871,0.47653961070572864,-0.7724124519569864,4.116750227981364,-11.04789241343508
6.429790329369966,2.8163298182185237,0.46881548618615876,-0.8828913760913372,3.6046910394376135,-10.358807016335025
6.4579536275521505,2.8523767286129,0.4599865724252454,-0.9864794462546874,2.9998181874078838,-9.518415820716179
6.486477394838279,2.8823749104869787,0.4501217779626985,-1.0816636044618493,2.294654905635267,-8.518767575513971
6.515301143943149,2.905321459543331,0.43930514191808,-1.166851280216989,1.4865914845324781,-7.35921963204391
6.544354358538582,2.920187374388656,0.4276366291159101,-1.2404434765374281,0.5796850116598716,-6.048945565719741
6.573556232282469,2.9259842245052545,0.4152321943505358,-1.3009329321946255,-0.4139636955438173,-4.6088123511286865
6.602816074527522,2.9218445875498165,0.40222286502858956,-1.3470210557059124,-1.4737356698810453,-3.07194464961244
6.63203452040302,2.907107230851006,0.38875265447153046,-1.3777405022020368,-2.571331568912288,-1.482398167657895
6.661105592711531,2.8813939151618833,0.3749752494495101,-1.3925644838786158,-3.6730714548867867,0.10826136509836347
6.68991953186315,2.8446632006130153,0.36104960461072394,-1.3914818702276321,-4.743399345478772,1.6460942662638216
6.7183661638692795,2.7972292071582276,0.3471347859084476,-1.3750209275649938,-5.748926592724143,3.0806757721655504
6.746338455940862,2.739739941230986,0.33338457663279764,-1.3442141698433383,-6.662127934271645,4.370463364441985
6.773735855353172,2.6731186618882696,0.31994243493436425,-1.3005095361989185,-7.463894205034635,5.486500027456293
6.8004670419720545,2.5984797198379233,0.30693733957237507,-1.2456445359243555,-8.144513123724561,6.413838833593449
6.826451839170434,2.5170345886006777,0.2944808942131315,-1.181506147588421,-8.70312173181143,7.1507517478874
6.851622185056441,2.4300033712825635,0.28266583273724727,-1.109998630109547,-9.146048237899178,7.706323046054819
6.875922218769267,2.3385428889035715,0.2715658464361518,-1.032935399648999,-9.484619254864286,8.097256427026592
6.899307647658302,2.2436966963549287,0.2612364924396618,-0.951962835378733,-9.732956868614682,8.344652967704784
6.9217446146218515,2.146367127668782,0.25171686408587446,-0.8685163057016853,-9.90611680582679,8.471270008739339
6.94320828589854,2.047305959610514,0.2430317010288576,-0.7838036056142919,-10.018724171914121,8.49949175942096
6.963681345494645,1.9471187178913727,0.23519366497271468,-0.6988086880200822,-10.084111863849742,8.450024266771962
6.983152532673558,1.8462775992528753,0.22820557809251385,-0.6143084453523626,-10.11387983155084,8.34120103775173
7.001615308666087,1.745138800937367,0.22206249363899022,-0.5308964349748453,-10.117762096274319,8.188739009662148
7.01906669667546,1.6439611799746237,0.21675352928924177,-0.4490090448782238,-10.103692815646314,8.005789399640165
7.035506308475206,1.5429242518181605,0.21226343884045953,-0.3689511508818222,-10.07798384160967,7.803157318134584
7.050935550993388,1.4421444134020638,0.20857392733164132,-0.29091957770047633,-10.045551309504527,7.58959947250501
7.0653569951274084,1.3416889003070185,0.20566473155463655,-0.21502358297542623,-10.010151086862216,7.372141053121371
7.078773884130479,1.2415873894383964,0.20351449572488228,-0.1413021724442125,-9.974599964571603,7.15637737447057
7.091189758024863,1.1418413897926805,0.20210147400044015,-0.0697383986995068,-9.94097124040354,6.946742863101792
7.10260817192279,1.042431677388645,0.2014040900134451,-0.0002709700684888766,-9.910760782679244,6.746740842449193
7.1130324886966765,0.9433240695618527,0.2014013803127602,0.06719643835600306,-9.885023949775062,6.55913390827154
7.122465729392295,0.844473830064102,0.20207334469632024,0.13278777743871845,-9.864485922394358,6.386097990065934
7.130910467692936,0.7458289708401584,0.2034012224707074,0.19664875733937778,-9.849628874776867,6.229344583564829
7.138368757401338,0.6473326820923897,0.20536771004410118,0.2589422031750261,-9.84075951991068,6.090215907401759
7.144842084222262,0.5489250868932829,0.20795713207585143,0.31984436224904367,-9.838060269315648,5.969757398375977
7.150331335091194,0.45054448420012644,0.21115557569834187,0.3795419362328034,-9.841626766748444,5.868771330125679
7.154836779933196,0.352128216532642,0.2149509950606699,0.4382296495340602,-9.851494009692928,5.78785460024296
7.1583580620985225,0.2536132764357127,0.2193332915560105,0.49610819553648977,-9.867652725235903,5.727422975286817
7.1608941948628795,0.15493674918335365,0.2242943735113754,0.553382425289358,-9.890057144005635,5.687723353228517
7.162443562354713,0.056036177743297305,0.229828197764269,0.6102596588216431,-9.91862482246352,5.668834909270927
7.163003924132146,-0.0431500704813379,0.23593079435248543,0.6669480079143524,-9.953228694099474,5.670659327804201
7.162572423427332,-0.14268235742233265,0.24260027443162896,0.7236546011923944,-9.993681073368533,5.69289967721968
7.161145599853109,-0.24261916815601797,0.2498368204435529,0.7805835979645912,-10.039708881683616,5.73502684137798
7.158719408171549,-0.34301625697285415,0.25764265642319883,0.837933866378371,-10.090918905433695,5.796231772842249
7.1552892456018204,-0.4439254460271911,0.26602199508698254,0.8958961841067935,-10.146751433410898,5.875361181747867
7.150849991141548,-0.5453929603613,0.27498095692805047,0.9546497959242721,-10.206420172158097,5.97083364541334
7.1453960615379355,-0.647457162082881,0.2845274548872932,1.0143581323784054,-10.268835945128794,6.080532578969207
7.138921489917107,-0.7501455215341689,0.29467103621107726,1.0751634581680976,-10.332511428618883,6.2016721661319165
7.131420034701765,-0.8534706358203578,0.30542267079275826,1.1371801798294168,-10.395444210660495,6.330632421309558
7.122885328343561,-0.9574250779269627,0.3167944725910524,1.2004865040425123,-10.454976018113896,6.462760381663906
7.113311077564291,-1.0619748381081018,0.32879933763147756,1.2651141078591515,-10.507627412156378,6.592136538326227
7.1026913291832106,-1.1670511122296656,0.34145047871006906,1.3310354732424137,-10.548910142227685,6.711309777597958
7.0910208180609136,-1.2725402136519426,0.3547608334424932,1.3981485710183932,-10.573124404012887,6.811011356312201
7.078295415924394,-1.3782714576920714,0.36874231915267713,1.466258684581515,-10.573156361857835,6.8798700530548125
7.064512701347473,-1.4840030213106497,0.3834049059984923,1.5350573851120632,-10.540303378379505,6.904167912844518
7.049672671134367,-1.5894060550944447,0.39875547984961296,1.6040990642405084,-10.464170991390041,6.86769972082181
7.033778610583423,-1.694047765008345,0.41479647049201807,1.6727760614487266,-10.332706234971871,6.751828721034085
7.016838132933339,-1.7973748273580636,0.43152423110650534,1.7402943486590674,-10.132453538264112,6.535862064777331
6.9988643846597585,-1.8986993627407047,0.448927174593096,1.8056529693068408,-9.849135329066538,6.1978923572232985
6.9798773910323515,-1.99719071603137,0.4669837042861644,1.8676318928790738,-9.468657412317187,5.716249147184971
6.959905483872038,-2.091877290154542,0.48566002321495516,1.9247943843509236,-8.978601806668225,5.071651571442234
6.938986710970492,-2.181663308221224,0.5049079670584644,1.975510900065346,-8.370178807711296,4.250024670601759
6.91717007788828,-2.265365096298337,0.5246630760591179,2.0180111467713635,-7.640457609392394,3.245725511955947
6.894516426925297,-2.3417696723922607,0.5448431875268315,2.050468401890923,-6.794500308283363,2.064648315310394
6.871098730201375,-2.409714675475094,0.5653478715457407,2.071114885044027,-5.846849856841949,0.7264281266118963
6.847001583446624,-2.4681831740435136,0.586059020396181,2.078379166310146,-4.82176978153602,-0.7351164647965178
6.822319751706189,-2.516400871858874,0.6068428120592825,2.0710280016621807,-3.751801185085171,-2.2739287235631878
6.7971557429876,-2.5539188837097258,0.6275530920759043,2.048288714426549,-2.674613194461166,-3.8360971451234223
6.771616554150503,-2.5806650156543376,0.6480359792201698,2.009927742975315,-1.6286617831682286,-5.365964618567371
6.74580990399396,-2.59695163348602,0.6681352566499229,1.956268096789641,-0.6486072353095164,-6.812630357429548
6.7198403876591,-2.603437705839115,0.6876979376178193,1.8881417932153457,0.2384518458450166,-8.135349722458509
6.693806010600709,-2.601053187380665,0.7065793555499728,1.8067882959907606,1.015156039394821,-9.306730304091191
6.6677954787269025,-2.590901626986717,0.7246472385098803,1.7137209929498487,1.6742371976124786,-10.313370694645766
6.641886462457036,-2.574159255010592,0.7417844484393789,1.610587286003391,2.2173349837397596,-11.154330411150235
6.61614486990693,-2.5519859051731943,0.7578903212994128,1.4990439818918886,2.652879998950387,-11.838264146484532
6.590625010855198,-2.5254571051836905,0.7728807611183317,1.3806613404270434,2.993687432064501,-12.380119624615983
6.5653704398033605,-2.4955202308630455,0.7866873745226022,1.2568601441808835,3.2547528375654906,-12.798090730605661
6.54041523749473,-2.4629727024873906,0.799255975964411,1.1288792368748268,3.45151900594965,-13.111208915555482
6.515785510469856,-2.428457512427894,0.8105447683331592,0.997767147719272,3.5986868163258543,-13.337682104785241
6.491500935345577,-2.3924706442646357,0.820522439810352,0.8643903266714196,3.709516416671558,-13.493912406043679
6.467576228902931,-2.35537548009792,0.8291663430770662,0.7294512026109827,3.795507807099403,-13.594042267809954
6.444022474101952,-2.3174204020269262,0.836460855103176,0.5935107799328831,3.8663413564688875,-13.64986518677419
6.420848270081683,-2.2787569884622374,0.8423959629025048,0.45701212806514124,3.9299760072141376,-13.670959791090583
6.39806070019706,-2.239457228390096,0.8469660841831562,0.3203025301542354,3.9928289116628664,-13.664941442961894
6.37566612791316,-2.1995289392734674,0.8501691094846986,0.18365311572461643,4.05998532883981,-13.637759875987866
6.353670838520425,-2.1589290859850694,0.8520056406419447,0.04727551696473775,4.135407729060286,-13.593999063251179
6.332081547660574,-2.1175750086944665,0.8524783958115921,-0.08866447366777405,4.222127442866183,-13.537155366444365
6.310905797573629,-2.075353734265805,0.8515917510749144,-0.2240360273322177,4.322411615760417,-13.469883054072806
6.290152260230971,-2.0321296181082005,0.8493513908015922,-0.3587348578729458,4.437903916086609,-13.394204166992767
6.269830964049889,-1.9877505789473344,0.8457640422228627,-0.49267689954287347,4.569740558763308,-13.311684056461717
6.249953458260415,-1.9420531733597013,0.840837273227434,-0.6257937401074907,4.718644677149113,-13.22357599837286
6.230532926526818,-1.8948667265882102,0.834579335826359,-0.7580295000912193,4.885002558035066,-13.130939008763894
6.211584259260936,-1.8460167010078596,0.8269990408254468,-0.8893388901788583,5.068925187047752,-13.034732955410684
6.193124092250857,-1.795327449137382,0.8181056519236583,-1.019686219732965,5.270298205643097,-12.935894656864058
6.175170817759483,-1.7426244670809512,0.8079087897263286,-1.1490451663016057,5.488822916029575,-12.835398106455113
6.1577445730886735,-1.6877362379206555,0.7964183380633125,-1.2773991473661568,5.72405047369927,-12.734301376048132
6.140867210709467,-1.630495733183663,0.783644346589651,-1.4047421611266382,5.975410920571929,-12.63378220075517
6.12456225337763,-1.5707416239779437,0.7695969249783846,-1.53107998313419,6.2422382497663875,-12.535163740949816
6.108854837137851,-1.5083192414802797,0.7542861251470427,-1.656431620543688,6.5237922543276685,-12.439931557878209
6.093771644723048,-1.443081318937003,0.7377218089416059,-1.7808309361224701,6.819277485624453,-12.349742405393679
6.079340831533678,-1.3748885440807586,0.7199134995803812,-1.904328360176407,7.1278592144896615,-12.266425003755574
6.06559194609287,-1.303609951935862,0.7008702159786171,-2.026992610213963,7.448675825306164,-12.191972483619356
6.052555846573512,-1.2291231936828002,0.6806002898764775,-2.148912335050156,7.780846549040786,-12.128525620570269
6.040264614636683,-1.1513147281923923,0.6591111665259759,-2.270197591255859,8.123472815713223,-12.078345261097109
6.028751467354759,-1.0700800000352602,0.6364091906134173,-2.39098104386683,8.475630728142615,-12.043771391014504
6.018050667354406,-0.985323692753834,0.6124993801747489,-2.5114187577769753,8.836351159852617,-12.02716501614993
6.0081974304268675,-0.8969601811553078,0.5873851925969792,-2.6316904079384744,9.204582674564755,-12.030827284208804
5.9992278286153145,-0.8049143544096603,0.5610682885175945,-2.7519986807805625,9.579130745312673,-12.05688791611228
5.991178685071218,-0.7091230469565336,0.5335483017097888,-2.8725675599416856,9.958564490982752,-12.107151844225909
5.984087454601653,-0.6095374020467061,0.504822626110372,-2.9936390783839446,10.341079212574751,-12.182888766677056
5.977992080581186,-0.5061266099209586,0.4748862353265325,-3.115467966050715,10.724299291895228,-12.284544940177925
5.972930814481976,-0.3988836170020063,0.44373155566602535,-3.2383134154524944,11.105001504432622,-12.411349893000049
5.968941978311956,-0.2878336019576801,0.4113484215115004,-3.3624269143824947,11.478733746003565,-12.560783124991625
5.966063642292379,-0.17304626449764443,0.3777241523676755,-3.488034745632411,11.839299386497258,-12.727858295883838
5.964333179647403,-0.05465327063267185,0.34284380491135136,-3.6153133285912493,12.178074847493804,-12.904177395448201
5.963786646941076,0.06712747784226619,0.30669067162543884,-3.7443551025457316,12.483131461748723,-13.076710194175106
5.964457921719498,0.19195879245975342,0.2692471205999815,-3.8751222044874827,12.738149508361639,-13.226274833914639
5.966377509644096,0.31934028754336985,0.2304958985551067,-4.007384952826629,12.921154996678002,-13.325750903812278
5.96957091251953,0.4485518375101499,0.1904220490268404,-4.140642461864752,13.003197409308244,-13.338173344589814
5.974056430894632,0.5785838116032324,0.14901562440819288,-4.27402419531065,12.947243870459653,-13.215068785754111
5.979842269010664,0.7080562503078289,0.10627538245508639,-4.406174883168191,12.70781331546856,-12.895736350617511
5.986922831513742,0.8351343834625146,0.06221363362340448,-4.535132246674366,12.23220474899368,-12.308633713590908
5.995274175348367,0.9574564309524514,0.016862311156660814,-4.658218583810275,11.464494531103611,-11.376483172861537
6.004848739657891,1.0721013762634874,-0.029719874681441938,-4.771983415538891,10.353536827065803,-10.02681792247143
6.015569753420526,1.1756367445341456,-0.07743970883683085,-4.872251594763605,8.86554885437244,-8.208825756124853
6.027326120865868,1.26429223307787,-0.1261622247844669,-4.954339852324853,7.000009611334545,-5.914836383484946
6.039969043196646,1.3342923291912157,-0.17570562330771544,-5.013488216159703,4.804570627035928,-3.200657454236572
6.053311966488558,1.3823380354615749,-0.22584050546931247,-5.045494790702069,2.381820248254366,-0.19503612648449836
6.067135346843174,1.4061562379441186,-0.27629545337633316,-5.0474451519669135,-0.1191435917858291,2.9113534834017636
6.081196909222616,1.4049648020262604,-0.3267699048960023,-5.018331617132896,-2.5280015023247735,5.899675035158115
6.095246557242878,1.3796847870030127,-0.3769532210673312,-4.959334866781314,-4.688040350757251,8.569477303872201
6.109043405112908,1.3328043834954402,-0.4265465697351444,-4.873640093742592,-6.4868718843138,10.77949812105555
6.122371448947863,1.2679356646523021,-0.4752829706725703,-4.765845112532037,-7.871369862599394,12.467014533093325
6.135050805594386,1.1892219660263081,-0.5229414217978907,-4.641174967201104,-8.844116926131989,13.642309876595569
6.146943025254649,1.1007807967649883,-0.5693531714699017,-4.5047518684351475,-9.447436063072905,14.36671261860636
6.157950833222299,1.0063064361342593,-0.6144006901542531,-4.3610847422490835,-9.744109758421825,14.726599620583492
6.168013897583641,0.908865338550041,-0.658011537576744,-4.213818746043248,-9.801472396964066,14.812306059755652
6.177102550969142,0.8108506145804004,-0.7001497250371765,-4.065695685445692,-9.681391539258692,14.705159390080246
6.185211057114946,0.7140366991878135,-0.7408066818916335,-3.9186440915448895,-9.435623058782252,14.471775960223008
6.192351424106825,0.619680468599991,-0.7799931228070823,-3.7739263319426595,-9.104824188938071,14.163203623882712
6.198548228792824,0.5286322267106103,-0.8177323861265089,-3.6322942957038324,-8.719537145709058,13.816597936070208
6.203834551059931,0.4414368552535197,-0.8540553290835472,-3.4941283163431303,-8.30195308602929,13.457832430610576
6.2082489196124655,0.3584173243932268,-0.8889966122469785,-3.3595499920370244,-7.867776917160094,13.10415100501693
6.211833092856398,0.27973955522162586,-0.9225921121673487,-3.228508481986855,-7.42787805160389,12.76646539232365
6.214630488408614,0.20546077470558696,-0.9548771969872173,-3.1008438280636184,-6.989625366815697,12.451184188149695
6.216685096155669,0.13556452103743,-0.9858856352678534,-2.9763319861821214,-6.557910182308204,12.16159618329331
6.2180407413660435,0.06998541921434796,-1.0156489551296746,-2.8547160243491883,-6.135903251387394,11.898881981974617
6.218740595558187,0.008626386700474019,-1.0441961153731665,-2.735727204529442,-5.725601544220724,11.662836660805883
6.218826859425192,-0.04862962874173322,-1.0715533874184608,-2.619098837921383,-5.328216168063714,11.45237712998075
6.218340563137775,-0.10191179042237036,-1.0977443757976746,-2.504575066621576,-4.944443584419719,11.265893408053302
6.2173214452335515,-0.15135622626656756,-1.1227901264638904,-2.3919161325410427,-4.574652698660084,11.101488802986504
6.215807882970886,-0.1971027532531684,-1.1467092877893008,-2.2809012445111776,-4.219012102962759,10.95714203514519
6.213836855438354,-0.239292874282796,-1.1695183002344125,-2.171329824159726,-3.877575169577831,10.830815027586254
6.211443926695526,-0.2780686259785743,-1.1912315984760098,-2.0630216738838634,-3.5503357093832655,10.72052315177927
6.20866324043574,-0.31357198307240697,-1.2118618152148484,-1.9558164423660707,-3.237263247005143,10.624379686997756
6.205527520605016,-0.3459446155424584,-1.231419979638509,-1.849572645496093,-2.9383243167301525,10.54062266876184
6.202068074449591,-0.37532785870975993,-1.24991570609347,-1.7441664188084747,-2.653494291595337,10.467629779935152
6.198314795862493,-0.4018628016257133,-1.2673573702815548,-1.639490121009123,-2.3827629145702924,10.40392517795714
6.194296167846236,-0.4256904307714162,-1.283752271491646,-1.5354508692295517,-2.1261357498966786,10.348180930774607
