th1 (rad),w1 (rad/s),th2 (rad),w2 (rad/s)
2.3152812481987453,-1.4697535576043883,6.043472393639556,-1.0487718968036155
2.3005837126227013,-1.5622965451304573,6.032984674671519,-1.0906195417673095
2.2849607471713966,-1.6548449350761758,6.022078479253846,-1.1296195954753194
2.268412297820635,-1.7473425877086126,6.0107822832990925,-1.165533947624547
2.2509388719435486,-1.8397244209793115,5.999126943822847,-1.1981135429260954
2.2325416277337555,-1.9319162234719056,5.987145808393586,-1.2270982507471597
2.2132224654990367,-2.023834593190532,5.974874825886114,-1.2522169159841898
2.1929841195671314,-2.1153870307101563,5.962352656726272,-1.273187626074327
2.17183024926003,-2.2064722186242043,5.949620780465528,-1.2897182314995221
2.1497655270737877,-2.2969805222941413,5.936723598150533,-1.3015071584759372
2.126795721850846,-2.386794749344902,5.923708526565774,-1.3082445522527495
2.102927774357397,-2.475791206814467,5.9106260810432465,-1.3096137869923912
2.0781698622892524,-2.5638410949570916,5.897529943173323,-1.3052933729297105
2.0525314513396813,-2.6508122749822727,5.8844770094440255,-1.2949592827425036
2.026023328589859,-2.7365714440409996,5.8715274166166,-1.27828770616415
1.9986576141494488,-2.820986744136598,5.858744539554959,-1.254958224278054
1.9704477467080828,-2.9039308220213864,5.8461949573121785,-1.2246573722863974
1.941408438487869,-2.9852843443908106,5.8339483835893144,-1.1870825317706224
1.9115555950439609,-3.0649399569042894,5.822077558271609,-1.141946060899138
1.880906195474918,-3.14280665718973,5.810658097662618,-1.0889795345543059
1.8494781289030207,-3.2188145318948242,5.799768302317075,-1.0279379274191436
1.8172899835840723,-3.292919787385789,5.789488923042883,-0.9586035337951315
1.7843607857102144,-3.3651099847179524,5.7799028877049325,-0.8807893810094297
1.7507096858630349,-3.435409374325288,5.771094993894838,-0.794341861822955
1.716355592119782,-3.5038842171490403,5.763151575276608,-0.6991422885028468
1.6813167499482915,-3.57064797944014,5.75616015239158,-0.5951070601069968
1.6456102701538902,-3.635866300889908,5.750209081790509,-0.4821861371543895
1.6092516071449912,-3.6997616623005003,5.745387220418966,-0.3603595349400514
1.5722539905219861,-3.7626177212090544,5.741783625069565,-0.22963157708823823
1.5346278133098956,-3.8247833422989626,5.739487309298682,-0.09002269098738028
1.496379979886906,-3.8866764236337885,5.7385870823888085,0.05844142951604142
1.4575132156505681,-3.948787708425653,5.739171496683969,0.21574342977300784
1.4180253385663115,-4.011684873371098,5.741328930981699,0.3818907799835699
1.3779084898326006,-4.07601729675167,5.745147838781535,0.55693525512524
1.337148316865084,-4.142522031381777,5.750717191332788,0.7409955644908635
1.2957230965512663,-4.212031639236226,5.758127146977697,0.9342833766635233
1.253602780158904,-4.285484687853112,5.767469980744332,1.1371331346364453
1.210747933280373,-4.363939865967833,5.778841312090696,1.3500362680567832
1.1671085346206946,-4.448594848590002,5.792341674771264,1.5736806828683882
1.1226225861347947,-4.540811224387687,5.808078481599948,1.8089967259062598
1.0772144738909177,-4.64214696628123,5.826168448859011,2.057211135414634
1.0307930042281055,-4.754398009899464,5.846740560213157,2.3199106840442334
0.9832490241291109,-4.879650333587902,5.8699396670535995,2.599117041877871
0.9344525207932318,-5.020343118339755,5.8959308374723784,2.897373268829219
0.8842490896098343,-5.179341244105061,5.92490457016067,3.2178390612037258
0.8324556771687837,-5.3600096728906115,5.957082960772707,3.5643837759325705
0.7788555804398776,-5.566269130517862,5.992726798532033,3.9416476445555984
0.7231928891346989,-5.802583300592389,6.032143274977589,4.355000356325787
0.665167056128775,-6.073764542329196,6.075693278540847,4.810237170632745
0.6044294107054831,-6.38435270113258,6.123795650247174,5.312666531535561
0.5405858836941573,-6.737060257536955,6.176922315562529,5.864876319547147
0.47321528111878775,-7.129328802773795,6.235571078758,6.461837594441262
0.4019219930910498,-7.546551401532214,6.300189454702413,7.081320413575741
0.32645647907572767,-7.951119546872075,6.3710026588381705,7.668458902061461
0.2469452836070069,-8.271908370944107,6.447687247858785,8.121002197833043
0.16422619989756582,-8.413332589677303,6.528897269837116,8.30224502246548
0.08009287400079279,-8.308782189001768,6.6119197200617705,8.116588123466999
-0.002994947889224886,-7.9865289430177855,6.69308560129644,7.6027174502568
-0.08286023731940274,-7.553518498068753,6.769112775799008,6.911097050149407
-0.1583954223000903,-7.110943609591169,6.8382237463005024,6.1851267809405055
-0.229504858396002,-6.711487367683428,6.900075014109907,5.500528675685614
-0.29661973207283626,-6.370460602348166,6.955080300866763,4.880508208841239
-0.3603243380963179,-6.086021675762721,7.0038853829551755,4.323944279216819
-0.4211845548539451,-5.850865078329914,7.047124825747344,3.8217967223636737
-0.47969320563724427,-5.657005243679779,7.08534279297098,3.3638956005176133
-0.5362632580740421,-5.49732174882231,7.118981748976156,2.9411963450696197
-0.5912364755622652,-5.365865304699,7.148393712426853,2.546286258494712
-0.6448951286092552,-5.257756131027835,7.173856575011801,2.1733054967655363
-0.6974726899195336,-5.16898286251966,7.195589629979456,1.817715786504632
-0.7491625185447301,-5.09620562522433,7.213766787844502,1.4760636618468064
-0.8001245747969734,-5.036592146898931,7.22852742446297,1.1457794653468234
-0.8504904962659627,-4.987690205892371,7.239985219116439,0.8250167927181142
-0.9003673983248864,-4.947332115934665,7.24823538704362,0.5125259191893194
-0.9498407194842331,-4.913565547675384,7.253360646235513,0.2075526326916689
-0.9989763749609869,-4.884605484532232,7.25543617256243,-0.09024523494174119
-1.0478224298063092,-4.858802972987447,7.254533720213012,-0.3808696146794632
-1.0964104595361837,-4.834627071350959,7.2507250240662176,-0.6640466406709201
-1.1447567302496933,-4.810656927017278,7.244084557659509,-0.9392864450579796
-1.192863299519866,-4.785581257904877,7.234691693208929,-1.2059396883828126
-1.2407191120989147,-4.75820275716382,7.222632296325101,-1.46325113233511
-1.288301139670553,-4.727445160153965,7.20799978500175,-1.7104097751690943
-1.3355755912720928,-4.692360969905111,7.190895687250059,-1.9465945875047972
-1.3824992009711439,-4.652138165337889,7.171429741375011,-2.171014705796841
-1.4290205826245228,-4.606104619187589,7.149719594317043,-2.382943034433348
-1.4750816288163986,-4.553729407105646,7.125890163972709,-2.581742518483681
-1.5206189228874551,-4.494620655035722,7.100072738787873,-2.7668847982597247
-1.5655651294378123,-4.428520001219594,7.072403890805275,-2.9379614548383257
-1.6098503294500084,-4.355294099426466,7.043024276256892,-3.094688518450923
-1.6534032704442732,-4.274923832179115,7.012077391072383,-3.2369052736556827
-1.6961525087660643,-4.187492025879535,6.9797083383358265,-3.364568617689291
-1.7380274290248596,-4.093170470621203,6.9460626521589335,-3.4777443010592615
-1.7789591337310717,-3.9922069667946203,6.911285209148341,-3.576596316462706
-1.8188812033990178,-3.88491297703612,6.875519245983714,-3.6613755344736036
-1.857730333169379,-3.7716522863067956,6.838905490638978,-3.7324084510610596
-1.8954468560324471,-3.6528308926906625,6.801581406128367,-3.790086651920714
-1.9319751649593537,-3.52888818865046,6.76368053960916,-3.8348573453058417
-1.9672640468458584,-3.4002893614798557,6.7253319661561015,-3.867215093378867
-2.001266940460657,-3.267518849910785,6.6866598152223125,-3.887694697420926
-2.033942128959765,-3.1310746425522966,6.647782868248103,-3.896865071130968
-2.065252875385288,-2.9914631897000885,6.608814217536794,-3.89532386817162
-2.0951675072822886,-2.849194716601385,6.569860978855077,-3.8836926093305864
-2.1236594544483025,-2.7047787652950337,6.531024052761771,-3.862612072106115
-2.150707242101253,-2.558719844903109,6.49239793204071,-3.83273775047471
-2.176294440550284,-2.411513128302091,6.454070554535963,-3.7947352540292796
-2.200409571833305,-2.2636401890615634,6.41612320199567,-3.7492755832933766
-2.223045973723921,-2.1155648205469606,6.378630446162736,-3.6970302830336017
-2.2442016219293905,-1.9677290150979334,6.3416601433324,-3.6386665310279214
-2.26387891208037,-1.820549203083358,6.305273478022121,-3.574842261486348
-2.2820844041112034,-1.674412859080888,6.269525055407257,-3.5062014479252164
-2.298828532702012,-1.5296755766719632,6.234463040928005,-3.433369679612821
-2.314125288468732,-1.3866586967934127,6.200129344131876,-3.356950160291348
-2.3279918754366657,-1.245647550375769,6.1665598425289625,-3.2775202405276462
-2.3404483509404232,-1.1068903475191263,6.133784640123686,-3.1956285692461033
-2.3515172544156147,-0.9705977159541178,6.101828354431225,-3.111792919440714
-2.361223231575156,-0.8369428637861482,6.070710425236818,-3.0264987112099404
-2.369592660213017,-0.7060623176340601,6.040445438124719,-2.94019822502353
-2.376653283389358,-0.5780571686049891,6.011043455874484,-2.853310471704608
-2.3824338550754076,-0.4529947457161248,5.982510351157438,-2.766221664395071
-2.386963802532569,-0.3309106293652135,5.954848134513487,-2.6792862224231317
-2.3902729088262213,-0.2118109157560937,5.928055272289256,-2.5928282275298824
-2.3923910179837824,-0.09567464596412974,5.902126990013957,-2.507143248875587
-2.3933477644434236,0.01754368043452638,5.8770555575252015,-2.422500453854573
-2.3931723276390784,0.12791157860130042,5.8528305529866556,-2.3391449260501087
-2.3918932118530654,0.23551609991729994,5.829439103726155,-2.257300118665702
-2.389538050853892,0.34046145248633447,5.806866102539497,-2.1771703805380485
-2.386133436329029,0.4428667609966141,5.785094398734117,-2.098943501546297
-2.3817047687190627,0.5428639965273223,5.764104963718654,-2.022793234208805
-2.3762761287537892,0.6405960981841543,5.743877031376566,-1.9488817579884357
-2.3698701677719476,0.7362153010103492,5.724388213796681,-1.8773620619507967
-2.3625080147618442,0.8298816785417357,5.705614593177173,-1.8083802297131337
-2.354209197976427,0.9217619036590743,5.687530790880041,-1.742077617975342
-2.344991578939836,1.0120282279767585,5.670110014700287,-1.678592926318397
-2.334871296660068,1.1008576777906007,5.653324085437103,-1.6180641614348714
-2.3238627198821624,1.1884314634636204,5.637143443822755,-1.5606305036110917
-2.311978405247526,1.274934598924581,5.6215371387866435,-1.5064340872274118
-2.2992290592582805,1.3605557285592471,5.606472797914369,-1.4556217104102733
-2.285623501972688,1.445487160067442,5.591916580810267,-1.4083464918845967
-2.2711686303720136,1.5299251037296016,5.577833115891421,-1.3647694956536434
-2.2558693793347175,1.6140701208740205,5.564185420934884,-1.3250613464698564
-2.2397286781259775,1.6981277870645755,5.550934807470186,-1.289403861214591
-2.2227474002553316,1.7823095785377205,5.53804076885804,-1.2579917232878166
-2.2049243044699542,1.866833993585885,5.525460851625162,-1.2310342288592078
-2.1862559645340953,1.951927923746157,5.51315050933657,-1.2087571351809405
-2.166736685296634,2.0378282925599724,5.50106293798476,-1.1914046417806514
-2.146358402371034,2.1247839819325933,5.489148891566954,-1.179241534666816
-2.125110562551708,2.21305806712106,5.477356476220286,-1.1725555207400582
-2.1029799818804977,2.3029303801259013,5.4656309210128855,-1.1716597728868312
-2.0799506780792387,2.39470041617581,5.4539143232840175,-1.1768956933167718
-2.0560036739174805,2.4886905865651965,5.44214536635085,-1.188635879785358
-2.0311167680518287,2.585249799356512,5.430259007552997,-1.2072872404590567
-2.0052642700582637,2.6847573111181005,5.418186135148407,-1.2332941390252221
-1.9784166969470827,2.7876267280650633,5.405853193758154,-1.2671413477283469
-1.950540429666432,2.894309928241283,5.39318178028087,-1.3093564198109728
-1.921597330384019,3.0053005036201603,5.38008821608276,-1.360510829520745
-1.8915443253478175,3.1211360449247536,5.366483107787553,-1.4212188139110071
-1.86033296489857,3.24239815560585,5.352270919648443,-1.492132204883663
-1.8279089833425115,3.3697083994363513,5.337349597599606,-1.5739285413929807
-1.794211899348148,3.5037173349456396,5.321610312185676,-1.6672882264426137
-1.7591747259986916,3.6450822005219785,5.30493742992125,-1.772854205731308
-1.7227239039934719,3.794426481010062,5.287208887863938,-1.8911643116582866
-1.6847796391833711,3.9522713248449794,5.268297244747354,-2.0225417921360638
-1.6452569259349215,4.11892460376338,5.248071826825994,-2.1669236786483754
-1.6040676798972877,4.294308976192272,5.22640259003951,-2.3236005338216055
-1.561124590135365,4.477707909969523,5.203166584701294,-2.49083807436582
-1.5163475110356697,4.6674139018371505,5.178258203957636,-2.6653593447587474
-1.469673372017298,4.860287481565599,5.151604610510049,-2.841701812693914
-1.4210704972016421,5.051296670185953,5.123187592383109,-3.011552136347778
-1.3705575304997826,5.233219442893491,5.093072071019631,-3.1633237209212286
-1.3182253360708476,5.39683663511069,5.061438833810419,-3.2824499446250304
-1.2642569697197408,5.532006942421474,5.0286143343641685,-3.352957943812009
-1.2089369002955261,5.629777491175324,4.995084754926048,-3.3605473043295797
-1.1526391253837729,5.685007240883385,4.9614792818827524,-3.296429761671606
-1.095789052974939,5.698233750643946,4.9285149842660365,-3.160110940996856
-1.0388067154684995,5.675571662963784,4.896913874856068,-2.9593613171386113
-0.9820509988388616,5.626626610930046,4.867320261684682,-2.707317840745608
-0.9257847327295612,5.5616884932834605,4.840247083277226,-2.4184954007423856
-0.8701678477967266,5.489592788704359,4.816062129269802,-2.1056954786091655
-0.8152719199096831,5.416785506083275,4.79500517448371,-1.7786058309078334
-0.7611040648488503,5.34733272224215,4.777219116174631,-1.443752065454163
-0.7076307376264288,5.283379020990189,4.76278159552009,-1.105110312271699
-0.6547969474165269,5.225690315985991,4.751730492397373,-0.7648633316151039
-0.6025400442566671,5.174111989162608,4.744081859081222,-0.4240538395582935
-0.550798924365041,5.1279011157939145,4.739841320685639,-0.08306935262834003
-0.4995199132071018,5.085947575486007,4.739010627159356,0.25802647576041776
-0.44866043745224177,5.0469136166354565,4.74159089191696,0.5992786338255828
-0.3981913012858872,5.009319267160614,4.747583678255216,0.9407062013530565
-0.34809810861428103,4.971594283578936,4.756990740268747,1.2822217868505947
-0.2983821657784917,4.932110894315855,4.769812958137253,1.6235869114508368
-0.24906105683533314,4.889206675983247,4.786048827251761,1.9643918989866045
-0.20016899007550065,4.841203461633026,4.805692746241627,2.304053329686819
-0.1517569554591704,4.7864258433965725,4.828733279538495,2.6418249643627565
-0.10389269702520468,4.723221231499213,4.855151529182122,2.9768197256459943
-0.056660484710212546,4.649982294915281,4.884919726438582,3.3080412094474423
-0.01016066176105973,4.565171758808104,4.918000138533056,3.634423563419159
0.035491055827021306,4.4673488676010535,4.954344374167248,3.9548786005204377
0.08016454450303184,4.355196289722343,4.993893160172452,4.268348853666085
0.12371650740025528,4.227545825291529,5.036576648709113,4.573865028715169
0.16599196565317056,4.083400987298442,5.0823152989962646,4.8706060643973625
0.206825975526155,3.9219543773582393,5.131021359640238,5.157959830962952
0.2460455192997374,3.7425977889871214,5.182600957949868,5.435582451751062
0.2834714971896086,3.5449231609253213,5.236956782467378,5.703454353120328
0.31892072879886185,3.3287128787108036,5.293991325998581,5.961931453667386
0.3522078575859699,3.093918484330256,5.353610640535255,6.211790374906133
0.38314704242927244,2.840627598917497,5.415728544284316,6.454267126493108
0.4115533184184474,2.5690198050737654,5.480271215549247,6.691089254693394
0.437243516469185,2.2793134381510445,5.547182108096181,6.924501702480541
0.46003665085069545,1.9717068837402485,5.616427125120986,7.157286197401798
0.47975371968809793,1.6463204957196,5.687999987095004,7.3927721300871445
0.49621692464529393,1.3031495145582574,5.761927708395876,7.634832300427991
0.5092484197908765,0.9420460923558678,5.838276031400156,7.887847183921622
0.5186688807144352,0.5627629124182761,5.917154503239372,8.156602091860643
0.524296509838618,0.16511757967486873,5.998720524157978,8.446044894048738
0.5259476856353666,-0.25061493764185727,6.083180973098465,8.76076490615265
0.5234415362589481,-0.6828934898274923,6.170788622159992,9.103939059923611
0.5166126013606731,-1.1273804632067677,6.261828012759228,9.475322899669177
0.5053387967286054,-1.574284584407773,6.3565812417559195,9.86770742148514
0.4895959508845277,-2.004329804221926,6.455258315970771,10.261443768277893
0.4695526528423084,-2.3842010480743197,6.55787275365355,10.618088538517325
0.4457106423615652,-2.6653764264204707,6.664053639038723,10.878367186512405
0.41905687809736053,-2.794251654548832,6.7728373109038476,10.975145682026788
0.3911143615518722,-2.7378504849903007,6.8825887677241155,10.867286374146147
0.3637358567019692,-2.508892415826635,6.991261631465577,10.572489932164512
0.3386469325437028,-2.1609435804729227,7.096986530787222,10.159980804106352
0.3170374967389736,-1.7561933242627976,7.198586338828286,9.70746879438655
0.29947556349634563,-1.3399891971535394,7.295661026772152,9.268508384561844
0.2860756715248102,-0.9366971221328624,7.38834611061777,8.868593859156515
0.2767087003034816,-0.5562770724780246,7.477032049209336,8.514832705584372
0.2711459295787014,-0.20115442012895612,7.56218037626518,8.205308358689024
0.2691343853774118,0.12951104758543097,7.64423345985207,7.934639050989039
0.2704294958532661,0.4376674881424781,7.72357985036196,7.696643312018799
0.2748061707346909,0.7254056845062474,7.800546283482149,7.485440858817118
0.28206022757975335,0.994578235081484,7.87540069207032,7.295823984982181
0.2920060099305682,1.2466846061570207,7.948358931920142,7.123320861770667
0.3044728559921384,1.4828698236656752,8.01959214053785,6.964143561576138
0.3193015542287952,1.7039674079605671,8.08923357615361,6.815103487998207
0.33634122830840085,1.9105559775047987,8.157384611033592,6.673527029081708
0.3554467880834488,2.1030165929287854,8.224119881324409,6.537182536649486
0.3764769540127367,2.281585737254014,8.289491706690903,6.404220688788722
0.39929281138527684,2.4464021841553887,8.35353391357879,6.273126824706465
0.4237568332268307,2.597547368073544,8.416265181825855,6.1426827784934686
0.44973230690756616,2.7350793727014637,8.47769200961079,6.011935678226935
0.4770831006345808,2.859060813992791,8.53781136639306,5.88017150560624
0.5056737087745087,2.969580939429982,8.596613081449123,5.746891663403604
0.5353695181688085,3.0667722916717306,8.654081998083159,5.611791259641482
0.5660372410855258,3.150822323786357,8.710199910679574,5.474738239928135
0.5975454643233894,3.221980408191795,8.764947293078855,5.335752861899201
0.6297652684053073,3.2805607434012436,8.818304821697847,5.194987299693127
0.6625708758393197,3.326941719771987,8.87025469469478,5.052705389783787
0.6958402930370396,3.36156234705323,8.920781748592617,4.909262684666679
0.7294559165075719,3.3849163654655694,8.969874375439284,4.765087073751281
0.7633050801622276,3.3975446552701154,9.017525246176797,4.620660270070477
0.7972805267149288,3.4000265280607156,9.063731848877502,4.476500457689238
0.831280791995536,3.392970430045587,9.108496853454394,4.333146359402593
0.8652104962959918,3.377004518916526,9.15182831704842,4.1911429286181505
0.898980541485157,3.35276749780581,9.1937397463346,4.0510288032197215
0.9325082164632151,3.320900008379531,9.234250034366797,3.9133255909317177
0.9657172165470105,3.282036805542632,9.273383290276113,3.778528991415137
0.9985375846024368,3.236799862561381,9.311168580190264,3.647101704137847
1.0309055832280507,3.185792490359445,9.347639597231643,3.5194680252569546
1.062763508131645,3.1295944998045653,9.382834277484212,3.3960100021318076
1.0940594531296908,3.068758391439101,9.41679437750553,3.2770649903687175
1.1247470370440817,3.0038065230081985,9.449565027409218,3.1629244444863165
1.1547851022741638,2.9352291804662256,9.481194271854081,3.0538337679890777
1.184137394078826,2.8634834617489338,9.511732609533972,2.9499930502938563
