th1 (rad),w1 (rad/s),th2 (rad),w2 (rad/s),a1 (rad/s^2),a2 (rad/s^2)
0.40838803387601924,0.8179059779992733,4.44962142739675,-2.0262435811039587,-2.9677864386629835,8.141845200560768
0.41656709365601197,0.7882281136126434,4.42935899158571,-1.9448251290983511,-2.8126756907829065,8.074345899990035
0.4244493747921384,0.7601013567048144,4.409910740294727,-1.8640816700984508,-2.67208535282134,8.010994341850102
0.4320503883591865,0.733380503176601,4.391269923593742,-1.7839717266799497,-2.5456364625272743,7.950324976707259
0.4393841933909525,0.7079241385513282,4.373430206326943,-1.704468476912877,-2.4329488156516454,7.891081707014015
0.44646343477646583,0.6835946503948117,4.356385521557814,-1.6255576598427368,-2.3336243556616454,7.832211692208754
0.45329938128041397,0.6602584068381953,4.340129944959386,-1.5472355429206492,-2.247234106743461,7.772859002682353
0.4599019653487959,0.6377860657707607,4.3246575895301795,-1.4695069528938256,-2.17330856243313,7.712357504083797
0.46627982600650353,0.6160529801464294,4.309962520001242,-1.3923833778529877,-2.111331401147247,7.65022252622972
0.47244035580796784,0.594939666134957,4.296038686222712,-1.3158811525906906,-2.060736345973254,7.5861410388912445
0.4783897524693174,0.5743323026752244,4.282879874696805,-1.2400197422017782,-2.020906926771358,7.51996021524285
0.48413307549606965,0.5541232334075108,4.270479677274787,-1.1648201400493496,-1.9911788448771375,7.451674407480413
0.48967430783014476,0.5342114449587394,4.258831475874294,-1.0903033959745456,-1.9708445904874816,7.381410682965214
0.49501642227973214,0.5145029990538645,4.247928441914548,-1.0164892891448936,-1.9591599248846203,7.309413169030016
0.5001614522702708,0.49491139980501836,4.237763549023099,-0.9433951574545933,-1.9553518171900381,7.236026527494689
0.505110566268321,0.475357881633118,4.228329597448553,-0.8710348921796465,-1.9586274198884395,7.161678924883348
0.5098641450846522,0.4557716074342336,4.219619248526757,-0.799418102930813,-1.9681836788773126,7.086864881993152
0.5144218611589945,0.4360897706454605,4.211625067497449,-0.7285494541108815,-1.9832172008326718,7.01212837917061
0.5187827588654491,0.4162575986371338,4.20433957295634,-0.6584281703191753,-2.0029340406794187,6.938046565097006
0.5229453348518205,0.3962282582303396,4.197755291253149,-0.5890477046682052,-2.0265591216096452,6.865214371717418
0.5269076174341238,0.37596266701424313,4.1918648142064665,-0.520395560951031,-2.0533450557266106,6.794230281316538
0.5306672441042662,0.355429216456977,4.186660858596956,-0.45245325813786563,-2.0825801913125255,6.725683428850788
0.5342215362688361,0.33460341454385173,4.182136326015577,-0.38519642384935776,-2.113595769514605,6.6601421583581155
0.5375675704142746,0.3134674568487057,4.1782843617770835,-0.31859500226577664,-2.1457721260118694,6.598144090815157
0.5407022449827616,0.292009735588587,4.175098411754425,-0.2526135613576251,-2.178543919704896,6.540187705593596
0.5436223423386475,0.27022429639153805,4.1725722761408495,-0.1872116843016891,-2.2114044091032037,6.486725391152766
0.5463245853025629,0.248110252300506,4.170700159297833,-0.12234443039016145,-2.243908826999255,6.438157884334909
0.5488056878255679,0.22567116403051346,4.169476714993931,-0.057962851546812355,-2.275676924967408,6.394829992283572
0.5510623994658731,0.2029143947808394,4.168897086478463,0.0059854483760233695,-2.3063947714880846,6.3570274765261106
0.5530915434136815,0.17985044706595854,4.168956940962223,0.06955572314128447,-2.3358158917621044,6.32497497449126
0.554890047884341,0.1564922881483375,4.169652498193636,0.13280547288619707,-2.3637618345349596,6.298834838568242
0.5564549707658244,0.13285466980298788,4.170980552922498,0.1957938212718795,-2.390122242679541,6.278706785338557
0.5577835174638542,0.10895344737619247,4.172938491135217,0.25858088912526506,-2.4148544911829433,6.264628266216167
0.5588730519376162,0.08480490246436304,4.17552430002647,0.3212271717874267,-2.4379829398914126,6.256575493703433
0.5597211009622598,0.060425073065448906,4.178736571744344,0.383792926724461,-2.4595978302345713,6.254465083059948
0.5603253516929143,0.03582909476310319,4.1825745010115885,0.44633757755506054,-2.4798538365025093,6.258156295646676
0.5606836426405454,0.011030556398078095,4.187037876787139,0.5089191405115273,-2.4989682643775604,6.267453895843553
0.5607939482045261,-0.01395912624569751,4.192127068192255,0.5715936794699629,-2.5172188735732277,6.28211165659576
0.5606543569420691,-0.039131314981429785,4.197843004986955,0.6344147960359204,-2.5349412887976874,6.301836567753203
0.5602630437922548,-0.06448072786940666,4.204187152947314,0.6974331617134525,-2.5525259549590062,6.326293814971538
0.5596182365135607,-0.09000598741899672,4.211161484564448,0.7606960998631679,-2.5704145895839297,6.355112603738822
0.5587181766393707,-0.11571013331483601,4.21876844556308,0.8242472259005561,-2.5890960887067056,6.387892902000584
0.5575610753062223,-0.14160109420190306,4.227010917822085,0.8881261549205619,-2.609101852668232,6.424213165105545
0.5561450643642033,-0.1676921127285854,4.235892179371291,0.9523682865716173,-2.631000515739385,6.4636390880206935
0.5544681432369174,-0.19400211788597924,4.2454158622370075,1.0170046774518242,-2.6553920882730018,6.505733402124584
0.5525281220580576,-0.22055603876870924,4.255585909011526,1.0820620114730701,-2.6829015517827606,6.550066698161954
0.5503225616703705,-0.24738505428653684,4.2664065291262565,1.1475626784546897,-2.7141719850192514,6.596229214622892
0.5478487111275051,-0.2745267741367294,4.277882155910803,1.2135249706009186,-2.7498573412913037,6.6438434841426846
0.5451034433861378,-0.3020253475496424,4.290017405616813,1.2799634054423454,-2.7906150419472904,6.692577682494195
0.5420831899106414,-0.3299314979691153,4.302817039671236,1.3468891822672875,-2.837098595589748,6.742159479003923
0.5387838749309503,-0.3583024839250128,4.316285931493909,1.4143107770573267,-2.889950494396716,6.79239014788594
0.5352008500917002,-0.38720198886897994,4.330429039264483,1.482234678536186,-2.9497956748600433,6.843158671389952
0.5313288302030104,-0.4166999456175804,4.345251386049845,1.5506662652500856,-3.01723585742172,6.894455552021221
0.5271618307468345,-0.4468723041917976,4.360758048702346,1.6196108207702977,-3.0928450953944204,6.946386056138754
0.5226931077049166,-0.4778007551457418,4.376954156910049,1.6890746813316853,-3.1771668664091766,6.999182637828874
0.5179151001534592,-0.5095724238098336,4.393844903723366,1.759066507709974,-3.2707130286673936,7.053216341733141
0.5128193759153609,-0.5422795540965075,4.411435568800465,1.8295986711273056,-3.3739649399514984,7.109007056691393
0.5073965803743958,-0.5760192034960225,4.429731555511738,1.9006887416942195,-3.4873770015057244,7.167232587326331
0.5016363883394356,-0.6108929735110797,4.44873844292868,1.9723610675674828,-3.611382844753489,7.228736625298069
0.4955274586043248,-0.6470068019586146,4.4684620536043544,2.0446484338204636,-3.746404330843675,7.29453583200545
0.4890573905847386,-0.6844708452670514,4.488908537942559,2.117593792140518,-3.8928634866891385,7.365826385439926
0.48221268213206814,-0.7233994801339427,4.510084475863964,2.191252055994917,-4.051197462604076,7.4439904910708155
0.47497868733072873,-0.7639114547599835,4.5319969964239135,2.265691960905625,-4.22187657223521,7.530603506033248
0.4673395727831289,-0.8061302204823355,4.5546539160329695,2.3409979959659575,-4.405425471430625,7.627442474773839
0.4592782705783055,-0.8501844751966418,4.578063895992629,2.417272420713696,-4.602447554704234,7.736497021862234
0.4507764258263391,-0.8962089507436841,4.602236620199766,2.4946373909323185,-4.813652700968724,7.85998369544498
0.44181433631890227,-0.9443454777533714,4.627182994109089,2.5732372278867683,-5.039888588244246,8.000365006973297
0.43237088154136855,-0.9947443636358139,4.6529153663879566,2.653240877956501,-5.282175923148602,8.160374576171181
0.4224234379050104,-1.0475661228672999,4.679447775167522,2.734844623718213,-5.541748097176215,8.343049973816978
0.4119477766763374,-1.1029836038390621,4.706796221404704,2.8182751234563828,-5.820095988960664,8.551775069434335
0.4009179406379468,-1.1611845637286689,4.734978972639268,2.903792874150726,-6.119018879108155,8.790333947243349
0.3893060950006601,-1.2223747525197504,4.764016901380775,2.9916962136231597,-6.440682728062944,9.062978760266226
0.3770823474754626,-1.2867815798003799,4.793933863517006,3.082326001225822,-6.787687378395582,9.374514251306193
0.3642145316774588,-1.3546584535843358,4.824757123529265,3.1760711437388838,-7.163144560310371,9.730402068338051
0.3506679471416155,-1.4262898991874395,4.856517834966654,3.2733751644222644,-7.5707688609869805,10.13688840011165
0.3364050481497411,-1.5019975877973093,4.889251586610877,3.374744048423381,-8.01498398197533,10.601158761147303
0.321385072271768,-1.5821474276170626,4.922999027095111,3.480755636034854,-8.501046496139269,11.131523768994219
0.30556359799559735,-1.6671578925784554,4.95780658345546,3.592070873724796,-9.035188629303464,11.73763909969141
0.28889201906981277,-1.75750977887149,4.993727292192708,3.7094472647217103,-9.624779779023704,12.430760755186293
0.27131692128109786,-1.853757576661727,5.030821764839925,3.8337548722735733,-10.278502522472566,13.224031970113506
0.25277934551448056,-1.9565426018864525,5.069159313562661,3.9659951919747085,-11.00653087587879,14.132787994115265
0.23321391949561604,-2.0666079106452404,5.108819265482408,4.107323071915861,-11.820683085985955,15.174844911182578
0.21254784038916363,-2.1848147415051,5.149892496201566,4.259071521027686,-12.734491884163331,16.370699887430792
0.19069969297411263,-2.312159660346733,5.192483211411843,4.422778519901994,-13.763080188706803,17.74349664726249
0.1675780963706453,-2.449790462233801,5.236710996610863,4.600213486374619,-14.92262821024065,19.318471845960044
0.1430801917483073,-2.5990167443362076,5.282713131474609,4.79339820483422,-16.229029826635934,21.121341147967094
0.11709002430494522,-2.7613070426025668,5.330647113522951,5.00461161631389,-17.69499291679392,23.17461172661833
0.08947695387891955,-2.938256971770506,5.38069322968609,5.236357733580074,-19.324223834326055,25.48995702354459
0.06009438416121449,-3.131499210113766,5.433056807021891,5.4912573038155195,-21.10027586648201,28.053312108500613
0.028779392060076826,-3.342501968778586,5.487969380060046,5.771790424900526,-22.965948441845875,30.79697176231908
-0.004645627627709037,-3.5721614531970447,5.545687284309052,6.079760142523717,-24.786880921920833,33.549788605689365
-0.04036724215967948,-3.820030262416253,5.6064848857342895,6.4152580285806104,-26.291587589515416,35.95447251563223
-0.07856754478384201,-4.082946138311407,5.6706374660200956,6.774802753736933,-26.985304865598888,37.34782806621704
-0.11939700616695609,-4.352799186967396,5.738385493557465,7.148281034399103,-26.062517060830384,36.63758834913503
-0.16292499803663005,-4.6134243575757,5.809868303901456,7.514656917890453,-22.42078035020943,32.317338812793
-0.20905924161238704,-4.837632161077794,5.88501487308036,7.8378303060183825,-15.003282018569857,22.934955399111264
-0.25743556322316496,-4.987664981263492,5.963393176140544,8.067179860009496,-3.67309045295224,8.296997074016936
-0.3073122130357999,-5.024395885793015,6.044064974740639,8.150149830749665,9.80996851261173,-9.186197081566402
-0.35755617189373007,-4.926296200666898,6.125566473048136,8.058287859934001,22.100999507115525,-24.942344634589407
-0.40681913390039903,-4.705286205595742,6.2061493516474755,7.808864413588108,30.38580222301497,-35.16386372805852
-0.45387199595635647,-4.401428183365592,6.284237995783356,7.4572257763075225,34.10046161126173,-39.1547644598891
-0.4978862777900124,-4.0604235672529745,6.358810253546432,7.065678131708632,34.444222145113244,-38.61921735829936
-0.5384905134625422,-3.715981345801842,6.429467034863518,6.679485958125638,32.95748348212957,-35.689945601988896
-0.5756503269205606,-3.3864065109805463,6.496261894444775,6.322586502105749,30.7482422176157,-31.878051800712345
-0.6095143920303661,-3.0789240888043894,6.559487759465832,6.0038059840986255,28.424105801932864,-27.997595375716237
-0.64030363291841,-2.7946830307850608,6.619525819306818,5.723830030341463,26.260199155749078,-24.406728820797486
-0.6682504632262606,-2.53208103922757,6.676764119610233,5.479762742133488,24.354089858372223,-21.22418646688616
-0.6935712736185363,-2.2885401406438475,6.731561747031568,5.2675208774646265,22.719942857899124,-18.458968645764944
-0.7164566750249748,-2.0613407120648564,6.7842369558062146,5.082931191006977,21.337201944441684,-16.076455986821397
-0.7370700821456233,-1.8479686926204395,6.835066267716284,4.922166631138762,20.173639479743247,-14.029152753080131
-0.7555497690718277,-1.646232297823007,6.884287934027672,4.781875103607961,19.195506404523083,-12.269846271364893
-0.7720120920500577,-1.4542772337777763,6.932106685063752,4.659176640894312,18.371564970695076,-10.756546717940143
-0.7865548643878355,-1.2705615840708255,6.978698451472694,4.551611173714911,17.674349770971844,-9.45377367384616
-0.7992604802285438,-1.0938180863611071,7.024214563209844,4.45707343697645,17.080244467961077,-8.332327272551767
-0.8101986610921549,-0.9230156416814963,7.068785297579608,4.373750164250932,16.569106987491708,-7.3685134731233255
-0.8194288175089699,-0.7573245718065792,7.112522799222117,4.300065029519699,16.123770547327332,-6.543245479945752
-0.8270020632270357,-0.5960868663333059,7.155523449517315,4.234632574720242,15.729558600267918,-5.8411917310306
-0.8329629318903687,-0.4387912803306267,7.197869775264517,4.176220657409935,15.37386491605283,-5.250028173745446
-0.837350844693675,-0.2850526311700984,7.239631981838617,4.123720375672481,15.045811309956182,-4.759804359194424
-0.8402013710053761,-0.13459451807053655,7.280869185595342,4.076122332080537,14.735979201701761,-4.362414255495936
-0.8415473161860815,0.012765273946481082,7.321630408916147,4.032498189525578,14.436205093383835,-4.051157238718383
-0.8414196634466167,0.15712732488031944,7.361955390811403,3.991986617138394,14.139428477009197,-3.820374843186816
-0.8398483901978134,0.2985216096504114,7.401875256982787,3.9537828687065257,13.839580976785754,-3.6651510235840754
-0.8368631741013093,0.43691741941826895,7.4414130856698515,3.917131358470685,13.531506514192337,-3.581066310915722
-0.8324939999071266,0.5722324845601923,7.480584399254559,3.881320695361528,13.210903461840598,-3.5639986451632506
-0.8267716750615246,0.7043415191785982,7.519397606208174,3.8456807089098954,12.874280951538537,-3.609965570473307
-0.8197282598697386,0.8330843286939836,7.557854413297273,3.809581053205162,12.518922687794003,-3.7150038104558876
-0.8113974165827988,0.9582735555719237,7.595950223829324,3.772431015100603,12.142852804612655,-3.8750830218300356
-0.8018146810270796,1.0797020836180502,7.63367453398033,3.733680184882303,11.744799510449095,-4.086050823628993
-0.7910176601908991,1.197150078722541,7.671011335829153,3.692819676646013,11.324153497635354,-4.343606115134579
-0.7790461594036737,1.3103916136988947,7.7079395325956135,3.6493836154946675,10.880919329437122,-4.643297346047635
-0.7659422432666848,1.419200806993266,7.74443336875056,3.602950642034191,10.415659218401185,-4.980541914514587
-0.7517502351967521,1.5233573991772777,7.780462875170902,3.553145222889045,9.929429715724657,-5.350662370157313
-0.7365166612049793,1.6226516963345243,7.8159943273997925,3.499638599187472,9.423712778006939,-5.748934706997031
-0.7202901442416341,1.7168888241145936,7.850990713391667,3.4421492521175017,8.90034340416751,-6.170643839857581
-0.7031212560004881,1.8058922581562689,7.885412205912842,3.380442813718926,8.361436495514424,-6.611141430631246
-0.6850623334189254,1.889506623111413,7.919216634050032,3.3143313994126133,7.809315762807453,-7.0659015932787375
-0.6661672671878113,1.9675997807394876,7.952359948044157,3.243672383479826,7.246447389799728,-7.530570645463176
-0.6464912693804163,2.040064254637485,7.984796671878955,3.168366677025194,6.675380794473498,-8.001007942341873
-0.6260906268340415,2.10681806258222,8.016480338649208,3.0883565976017753,6.098698261281526,-8.473315849901654
-0.6050224462082193,2.1678050451950353,8.047363904625225,3.0036234391027588,5.518974520006971,-8.943858001837041
-0.583344395756269,2.222994790395105,8.077400139016254,2.914184859084388,4.93874659573253,-9.409266042914524
-0.5611144478523179,2.2723822563524303,8.106541987607097,2.8200921986552427,4.360493523738829,-9.866436008836757
-0.5383906252887936,2.3159871915898185,8.13474290959365,2.7214278385668753,3.7866248767118527,-10.312516260371469
-0.5152307533728954,2.353853440356937,8.161957187979318,2.6183026759631605,3.2194765379156376,-10.74488943237568
-0.491692218969326,2.3860482057360937,8.18814021473895,2.510853781639404,2.661311803681555,-11.161151154210264
-0.4678317369119651,2.4126613237729093,8.213248752555344,2.399242270097301,2.114325724644522,-11.559088346851226
-0.44370512367423603,2.4338045810193547,8.237241175256317,2.283651386628789,1.580650594795583,-11.936659722321991
-0.4193670778640425,2.4496110869673107,8.260077689122605,2.164284789405569,1.0623606550868532,-12.291980735632466
-0.39487096699436935,2.460234693518179,8.28172053701666,2.0413649820492443,0.5614743692282365,-12.623314710590055
-0.3702686200591876,2.4658494372104616,8.302134186837153,1.9151318349433437,0.0799530226471654,-12.92907122664378
-0.345610125687083,2.4666489674369334,8.321285505186585,1.785841122676906,-0.3803051427848723,-13.207812164713827
-0.32094363601271364,2.4628459160090848,8.339143916413354,1.6537630010297677,-0.8174755510628111,-13.45826511599412
-0.29631517685262276,2.4546711604984566,8.355681546423652,1.5191803498698264,-1.2298224715936614,-13.679343207073886
-0.2717684652476382,2.44237293578252,8.37087334992235,1.3823869177990875,-1.6157180987357072,-13.870169831430651
-0.247344735889813,2.4262157547951633,8.38469721910034,1.243685219484781,-1.9736644818935036,-14.03010633938697
-0.22308257834186138,2.406479109976228,8.397134071295188,1.1033841560909112,-2.302316955290435,-14.15878045576136
-0.1990177872420991,2.3834559404233238,8.408167912856097,0.9617963515332977,-2.6005075252146983,-14.256113085969373
-0.17518322783786586,2.357450865171177,8.41778587637143,0.819235220673604,-2.8672666029568132,-14.322341244034693
-0.1516087191861541,2.3287781991416088,8.425978228578167,0.6760118082332571,-3.1018415264460435,-14.35803508280059
-0.128320937194738,2.297759783877148,8.4327383466605,0.5324314574052512,-3.3037104856553863,-14.364107406465129
-0.10534333935596651,2.2647226790205943,8.438062661234552,0.3887903833405999,-3.472590739557277,-14.341814564427107
-0.08269611256576057,2.2299967716250215,8.441950565067957,0.24537223769632882,-3.6084403608508233,-14.292748219284622
-0.06039614484951035,2.1939123680165133,8.44440428744492,0.10244475550348259,-3.7114531378644875,-14.21881810071396
-0.03845702116934521,2.1567978366378684,8.445428734999954,-0.03974342550365703,-3.7820466669939417,-14.122226450037738
-0.016889042802966527,2.118977369967929,8.445031300744917,-0.18096569000403442,-3.8208440502726053,-14.005435381120197
0.004300730896712762,2.080768929465203,8.443221643844877,-0.3210200438152364,-3.828649941594586,-13.871128794457304
0.02510842019136479,2.0424824300492572,8.440011443406725,-0.45973133175980946,-3.806421938869371,-13.7221707582097
0.04553324449185736,2.0044182106605635,8.435414130089127,-0.5969530393419065,-3.755238483777244,-13.56156240207851
0.065577426598463,1.9668658258227911,8.429444599695708,-0.7325686633626916,-3.6762645009926636,-13.392399361262678
0.08524608485669091,1.9301031808128646,8.422118913062082,-0.8664926569753183,-3.5707159888493267,-13.217831674642431
0.10454711666481956,1.8943960209243713,8.413453986492328,-0.9986709737217426,-3.43982467500956,-13.04102780952249
0.12349107687406327,1.8599977741742757,8.40346727675511,-1.1290812518169675,-3.2848036906899925,-12.865144185914174
0.14209105461580604,1.8271497372673757,8.392176464236941,-1.2577326936761093,-3.1068150152250418,-12.693301239058675
0.1603625519884798,1.7960815871151252,8.37959913730018,-1.384665706066696,-2.906939219671369,-12.528566720165141
