th1 (rad),w1 (rad/s),th2 (rad),w2 (rad/s),a1 (rad/s^2),a2 (rad/s^2)
1.0894476089533927,-0.41229497527990394,2.0254454982202614,1.907330497221454,-5.54579312504476,-5.65260083442259
1.0853246592005936,-0.46775290653035156,2.044518803192476,1.8508044888772281,-5.640020251692956,-5.661532788881218
1.08064713013529,-0.5241531090472811,2.0630268480812486,1.794189160988416,-5.729628424149897,-5.684885066089713
1.0754055990448173,-0.5814493932887801,2.0809687396911327,1.737340310327519,-5.814741411006402,-5.723120740966624
1.0695911051119293,-0.6395968073988441,2.098342142794408,1.6801091029178528,-5.895514536718286,-5.776654309681889
1.0631951370379409,-0.6985519527660269,2.1151432338235865,1.622342559821034,-5.972124580109947,-5.845857788144624
1.0562096175102806,-0.7582731985671264,2.131366659421797,1.5638839819395878,-6.044760188461594,-5.931065639309833
1.0486268855246095,-0.8187208004517423,2.147005499241193,1.5045733255464895,-6.113612682978092,-6.0325785727783385
1.0404396775200921,-0.8798569272815232,2.162051232496658,1.444247539818706,-6.178867143852485,-6.150666233274831
1.031641108247277,-0.941645598720048,2.1764937078948448,1.3827408774859578,-6.240693674377779,-6.285568771096017
1.0222246522600764,-1.004052535463826,2.1903211166697045,1.3198851897749977,-6.2992387537032775,-6.437497267707757
1.0121841269054381,-1.0670449230008587,2.2035199685674547,1.2555102170979202,-6.354616597151558,-6.606632973437136
1.0015136776754296,-1.1305910889723743,2.216075070738434,1.189443887363549,-6.406900451934497,-6.793125301744018
0.9902077667857059,-1.1946600934917193,2.2279695096120693,1.1215126343461086,-6.45611376517135,-6.997088516007561
0.9782611658507887,-1.2592212311434328,2.2391846359555303,1.051541749186033,-6.5022211709488476,-7.2185970403587465
0.9656689535393543,-1.3242434428529213,2.2497000534473908,0.9793557787824456,-6.545119254470526,-7.457679326187418
0.9524265191108251,-1.3896946353976265,2.2594936112352153,0.9047789855205715,-6.5846270648693475,-7.714310211053876
0.9385295727568488,-1.45554090604632,2.2685414010904212,0.8276358834100327,-6.620476364784623,-7.98840171750065
0.9239741636963856,-1.5217456696941662,2.2768177599245214,0.7477518662350262,-6.652301625122112,-8.279792256502141
0.908756706999444,-1.5882686859453874,2.2842952785868715,0.6649539436700048,-6.679629798297441,-8.588234224958457
0.8928740201399902,-1.6550649839283618,2.2909448180235716,0.5790716014204202,-6.701869933425643,-8.913380019786725
0.8763233703007065,-1.7220836832626183,2.2967355340377757,0.489937801222553,-6.718302732979592,-9.254766533884702
0.8591025334680803,-1.7892667105924143,2.3016349120500013,0.397390135883706,-6.728070192850387,-9.611798252598787
0.8412098663621561,-1.856547412520918,2.3056088134088384,0.3012721533577181,-6.730165516718612,-9.983729134239391
0.822644392236947,-1.9238490676881042,2.3086215349424157,0.2014348620153242,-6.723423551074602,-10.369643535289054
0.803405901560066,-1.9910833031988502,2.310635883562569,0.09773842666243367,-6.706512048566158,-10.768436530438562
0.7834950685280775,-2.0581484236845116,2.3116132678291934,-0.009945938641951951,-6.6779241335201664,-11.178794079030354
0.7629135842912323,-2.124927665019713,2.3115138084427738,-0.12173387943225548,-6.635972412742484,-11.599173601624484
0.7416643076410352,-2.191287389147138,2.3102964696484514,-0.23772561544850032,-6.578785244551398,-12.027785650937915
0.7197514337495639,-2.257075241592652,2.3079192134939666,-0.35800347195787946,-6.504305746103918,-12.46257748684039
0.6971806813336373,-2.3221182990536913,2.304339178774388,-0.4826292468262834,-6.410294179204745,-12.901219490570336
0.6739594983431004,-2.386221240845739,2.299512886306125,-0.6116414417319868,-6.29433440283903,-13.341095472606225
0.650097285934643,-2.4491645848741292,2.293396471888805,-0.745052396458049,-6.153845110742554,-13.779298034076492
0.6256056400859017,-2.510703035981555,2.2859459479242243,-0.8828453767988139,-5.9860965778880315,-14.212630224417003
0.6004986097260862,-2.5705640017604354,2.277117494156236,-1.024971679042984,-5.788233613926408,-14.637614788545502
0.5747929697084818,-2.6284463378996996,2.2668677773658064,-1.171347826928439,-5.55730535745412,-15.050512305115443
0.5485085063294848,-2.6840193914742407,2.255154299096522,-1.3218529499795935,-5.290302435944321,-15.447349473703659
0.5216683124147423,-2.736922415833684,2.241935769596726,-1.47632644471663,-4.984201856577487,-15.823958704325559
0.4942990882564055,-2.786764434399459,2.22717250514956,-1.6345660317598856,-4.6360197786026855,-16.176029990423828
0.4664314439124109,-2.833124632185486,2.2108268448319612,-1.7963263316641238,-4.2428720454868465,-16.49917580178619
0.4381001975905561,-2.8755533526403543,2.19286358151532,-1.9613180896819857,-3.8020420241705115,-16.78900941494649
0.40934466406415254,-2.913573772882059,2.1732504006185,-2.1292081838314507,-3.3110549106501996,-17.04123670691724
0.38020892633533193,-2.946684321988561,2.1519583187801854,-2.299620550900623,-2.767757219638579,-17.251760978240455
0.3507420831154463,-2.974361894184947,2.128962113271179,-2.4721381606830275,-2.170399687622849,-17.416799851146656
0.32099846417359684,-2.9960658910611757,2.104240731664349,-2.646306159194494,-1.5177212926979449,-17.533012719034577
0.29103780526298506,-3.0112431039881553,2.077777670072404,-2.8216362863848397,-0.8090315443496144,-17.59763661887747
0.2609253742231035,-3.0193334194316517,2.0495613072085557,-2.9976126525736144,-0.04428764017657953,-17.608627777112996
0.230732040028787,-3.0197762958334176,2.0195851806828196,-3.1736989303447443,0.7758374506871685,-17.564805466543927
0.20053427707045282,-3.012017921326546,1.9878481913793722,-3.3493469850101834,1.6499004024946893,-17.465994239542027
0.17041409785718736,-2.995518917301599,1.9543547215292703,-3.524006927405604,2.575651260056014,-17.3131601154255
0.14045890868417138,-2.9697624047010387,1.9191146522552143,-3.697138528559859,3.5500205309797286,-17.108535955187744
0.11076128463716099,-2.934262199391241,1.8821432669696156,-3.868223888111736,4.569134722117718,-16.855731127805917
0.08141866264324858,-2.888570852170064,1.8434610280884982,-4.036781199389795,5.628365146666604,-16.559820745554383
0.052532954121547945,-2.832287200703398,1.8030932160946003,-4.202379406845338,6.722414235552683,-16.227410314853994
0.024210082114513965,-2.765063058347871,1.761069422026147,-4.364653509993878,7.845442610501584,-15.866672704098134
-0.003440548468964747,-2.686608632242855,1.717422886926208,-4.523320237034859,8.991238806425935,-15.487355940352169
-0.030306634791393297,-2.5966962441785957,1.6721896845558595,-4.678193796438381,10.153431805280587,-15.100762542604445
-0.056273597233179255,-2.49516192612579,1.6254077465914756,-4.8292014218644255,11.325744558422658,-14.71970384972663
-0.08122521649443715,-2.381904480541563,1.5771157323728313,-4.9763984603616915,12.502284584540055,-14.358435997957114
-0.10504426129985278,-2.2568816346961627,1.5273517477692145,-5.119982820341263,13.677865733809263,-14.032587647464023
-0.1276130776468144,-2.12010297735807,1.4761519195658017,-5.260308696815903,14.848353512536514,-13.759092956676293
-0.1488141074203951,-1.9716194422327051,1.4235488325976426,-5.3978996263826655,16.01102511940144,-13.556146260505223
-0.16853030184272216,-1.8115091910386907,1.369569836333816,-5.533461088987718,17.16493456192701,-13.443196901530895
-0.18664539375310907,-1.6398598454194206,1.314235225443939,-5.667893058003027,18.311272624882587,-13.441002967094438
-0.20304399220730326,-1.4567471191705947,1.2575562948639085,-5.802303087673971,19.453710285258367,-13.571760187475023
-0.21761146339900922,-1.262210016318011,1.1995332639871688,-5.938020689548722,20.598710813050385,-13.85931504649349
-0.23023356356218933,-1.0562229081875072,1.1401530570916816,-6.076613840013657,21.75578722923688,-14.32945573479113
-0.2407957926440644,-0.8386650358951384,1.079386918691545,-6.219908397361568,22.937662423932874,-15.01024423707842
-0.24918244300301579,-0.6092884116558097,1.0171878347179293,-6.370010839732352,24.16024881314762,-15.932294679017412
-0.2552753271195739,-0.3676859235243335,0.9534877263206057,-6.529333786522526,25.44228401300992,-17.128792255229534
-0.25895218635481726,-0.1132630833942343,0.8881943884553805,-6.700621709074821,26.80430362235382,-18.634836320061456
-0.2600848171887596,0.1547799528293039,0.8211881713646323,-6.886970072275435,28.266337409083842,-20.48529172477459
-0.25853701766046655,0.4374433269201423,0.752318470641878,-7.091822989523181,29.843165197177385,-22.70958205842925
-0.2541625843912651,0.7358749788919161,0.6814002407466462,-7.318918810107474,31.534967004756638,-25.320477631691706
-0.24680383460234595,1.0512246489394825,0.6082110526455714,-7.57212358642439,33.309458706118384,-28.291498431482776
-0.23629158811295112,1.3843192360006664,0.5324898167813275,-7.855038570739218,35.068855864070045,-31.513654427827746
-0.22244839575294445,1.735007794641367,0.45393943107393525,-8.170175115017496,36.59167724975862,-34.7173654681305
-0.2050983178065308,2.100924567138953,0.3722376799237603,-8.5173487696988,37.438981158160885,-37.34419425786035
-0.18408907213514125,2.475314378720562,0.28706419222677226,-8.890790712277404,36.83017311698232,-38.37332104398402
-0.15933592834793564,2.843616109890385,0.19815628510399821,-9.274523922717245,33.55811393731805,-36.19528337618896
-0.1308997672490318,3.1791972492635656,0.10541104587682576,-9.636476756479135,26.167585867360266,-28.83775557741391
-0.09910779475639614,3.4408731079371684,0.009046278312034403,-9.924854312253274,13.770274625670261,-15.056474736198775
-0.06469906367702445,3.578575854193871,-0.09020226481049834,-10.075419059615262,-2.5287460801571866,3.737271519130442
-0.02891330513508574,3.553288393392299,-0.19095645540665096,-10.038046344423957,-19.040231878815685,22.687812200621806
0.006619578798837247,3.362886074604142,-0.2913369188508905,-9.81116822241774,-31.535031272847345,36.28038511967608
0.04024843954487867,3.0475357618756687,-0.38944860107506796,-9.448364371220979,-38.24183237108412,42.35531101727348
0.07072379716363536,2.6651174381648275,-0.48393224478727775,-9.024811261048244,-40.188493036367205,42.46380513113188
0.09737497154528363,2.2632325078011553,-0.5741803573977602,-8.600173209736925,-39.35270598141571,39.31736465218823
0.12000729662329518,1.8697054479869981,-0.6601820894951295,-8.206999563215042,-37.29243294409305,34.97567644527132
0.13870435110316515,1.4967811185460675,-0.7422520851272799,-7.8572427987623294,-34.8880221618615,30.555610196825793
0.15367216228862582,1.1479008969274527,-0.8208245131149032,-7.5516866967940715,-32.54463712751172,26.53757672522515
0.16515117125790035,0.8224545256523355,-0.8963413800828439,-7.28631092954182,-30.412108596163783,23.07286313760263
0.1733757165144237,0.5183334396906976,-0.9692044893782621,-7.055582298165794,-28.52097496183482,20.167177677882645
0.17855905091133067,0.23312369007234934,-1.03976031235992,-6.853910521386967,-26.85215428080479,17.771373447767807
0.18089028781205416,-0.035397852735698565,-1.1082994175737897,-6.676196786909289,-25.369473647293884,15.82178755475083
0.18053630928469716,-0.2890925892086374,-1.1750613854428826,-6.517978911361781,-24.03389049111871,14.256471746918379
0.1776453833926108,-0.5294314941198245,-1.2402411745565005,-6.375414193892597,-22.80922659927373,13.020655817261005
0.17235106845141254,-0.7575237601125618,-1.3039953164954265,-6.2452076357199875,-21.664130322557696,12.067688039784699
0.16477583085028694,-0.9741650633381388,-1.3664473928526264,-6.124530755322141,-20.572442767041625,11.358251979082171
0.15503418021690554,-1.1798894910085551,-1.4276927004058477,-6.010948235531319,-19.51294373063713,10.859071185405858
0.14323528530682,-1.3750189283149263,-1.487802182761161,-5.90235752367726,-18.468899031649848,10.541600744982881
0.12948509602367075,-1.5597079186314249,-1.5468257579979336,-5.796941516227431,-17.427578935108347,10.380891513172365
0.1138880168373565,-1.7339837079825084,-1.604795173160208,-5.693132601095707,-16.379805372341345,10.354678881939341
0.09654817975753141,-1.8977817617059218,-1.661726499171165,-5.589585812276313,-15.31953827693534,10.44269309939071
0.0775703621404722,-2.0509771444752753,-1.7176223572939282,-5.485158881282406,-14.243493769079288,10.626167489211214
0.057060590695719435,-2.193412082166068,-1.7724739461067522,-5.3788972063902944,-13.15078287850977,10.887514439137252
0.03512646987405875,-2.3249199109511656,-1.8262629181706551,-5.2700220619989215,-12.042561340078496,11.210138108734578
0.011877270764547095,-2.4453455243519504,-1.8789631387906442,-5.157920680911576,-10.921685019014166,11.578353935069574
-0.012576184478972411,-2.5545623745420922,-1.93054234559976,-5.04213714156088,-9.792369873098844,11.977386937253893
-0.03812180822439333,-2.6524860732730806,-1.9809637170153687,-4.922363272188341,-8.659859089700221,12.393423213672703
-0.06464666895712413,-2.739084664170083,-2.0301873497372522,-4.798429040051614,-7.5301026853491555,12.813691873356131
-0.09203751559882496,-2.8143856910235745,-2.0781716401377683,-4.670292121318052,-6.4094562610149,13.226557956740033
-0.1201813725090607,-2.8784802536337235,-2.124874561350949,-4.538026541750652,-5.304405810602679,13.62161061073593
-0.14896617504539794,-2.9315243117397505,-2.1702548267684554,-4.401810435643292,-4.221324672896137,13.989734719780722
-0.17828141816279544,-2.973737558468712,-2.214272931124888,-4.261913088445485,-3.1662671796502226,14.323158121359322
-0.20801879374748256,-3.0054002302652143,-2.256892062009343,-4.1186815072318925,-2.1448016046078613,14.615470195826756
-0.2380727960501347,-3.026848246311293,-2.2980788770816623,-3.972526805273625,-1.1618829683050667,14.86161079163565
-0.2683412785132476,-3.0384670759943435,-2.3378041451343985,-3.8239106973572685,-0.22176435917480544,15.057830971614884
-0.29872594927319107,-3.0406847195860918,-2.376043252107971,-3.6733323876411195,0.6720561253218302,15.201628873041281
-0.32913279646905197,-3.0339641583328736,-2.4127765759843824,-3.521316098910707,1.516856834644548,15.291665078186993
-0.3594724380523807,-3.018795589986428,-2.4479897369734895,-3.368399448128837,2.310687098997343,15.327662376075638
-0.389660393952245,-2.9956887189964547,-2.481673731454778,-3.2151228243680805,3.0523397676033115,15.310294787917003
-0.41961728114220953,-2.9651653213204217,-2.5138249596984585,-3.0620198764889106,3.7413065839315554,15.241070373385734
-0.44926893435541376,-2.927752255481106,-2.544445158463348,-2.9096091727550535,4.3777208916740635,15.122211772358007
-0.4785464569102248,-2.883975046564365,-2.5735412501908983,-2.7583870550314735,4.962291676394592,14.956537784805182
-0.5073862073758685,-2.8343521298004193,-2.601125120741213,-2.6088216771834216,5.496232390002647,14.747348637619691
-0.5357297286738727,-2.7793898059003928,-2.6272133375130475,-2.461348190807225,5.981187440169367,14.498316986522816
-0.5635236267328766,-2.719577931498699,-2.6518268194211196,-2.316365020941997,6.419158695079042,14.213386180891437
-0.5907194060478635,-2.655386344547909,-2.6749904696305395,-2.1742311591330825,6.812433877288057,13.896676884869185
-0.6172732694933426,-2.5872620057750284,-2.69673278122187,-2.0352643902843908,7.163518306230231,13.552402791308118
-0.6431458895510929,-2.515626822712726,-2.717085425124714,-1.8997403623713096,7.4750710947759575,13.184795871169364
-0.6683021577782201,-2.4408761117649664,-2.7360828287484273,-1.767892403659616,7.749846603884,12.798041354242104
-0.6927109188958698,-2.3633776457261266,-2.7537617527850236,-1.639911990117195,7.990641701924436,12.396222424265108
-0.7163446953531311,-2.2834712287068823,-2.7701608726861955,-1.515949765874544,8.200249153642764,11.983274423903223
-0.7391794076401998,-2.2014687371704547,-2.785320370344941,-1.3961170216355119,8.38141727189891,11.562948198201582
-0.7611940950119044,-2.1176545644514655,-2.799281540561296,-1.280487539653496,8.536815799412272,11.138782058467974
-0.782370640656419,-2.032286406457343,-2.8120864159578307,-1.1690997190688164,8.669007845846167,10.714081723760378
-0.8026935047209924,-1.9455963279988813,-2.8237774131485187,-1.0619589018312126,8.780427587013229,10.29190749700505
-0.8221494680009812,-1.857792052128749,-2.8343970021668308,-0.9590398268611621,8.873363337685928,9.875067859744929
-0.8407273885222687,-1.7690584187518896,-2.8439874004354424,-0.8602891482637127,8.949945537324373,9.466118625058419
-0.8584179727097876,-1.6795589633786459,-2.8525902919180797,-0.7656279620131285,9.012139138399226,9.067366772227935
-0.8752135623435741,-1.5894375719946536,-2.860246571538211,-0.6749542942908492,9.061739858629739,8.68087809761787
-0.8911079380635206,-1.4988201734083562,-2.8669961144811196,-0.5881455133146705,9.100373749413206,8.308487850889184
-0.9060961397976042,-1.407816435914224,-2.8728775696142663,-0.5050606348057787,9.12949954043465,7.951813580044456
-0.9201743041567464,-1.3165214405098775,-2.877928175962324,-0.42554249900533414,9.150413241955187,7.612269478178556
-0.9333395185618452,-1.2250173080903257,-2.8821836009523776,-0.34941980422354857,9.164254518446265,7.291081604356008
-0.9455896916427484,-1.133374762905863,-2.885677798994613,-0.2765089881799885,9.17201438696525,6.989303436098624
-0.956923439271807,-1.0416546190362106,-2.888442888876413,-0.20661595381900222,9.174543838075017,6.707831297379991
-0.9673399854621691,-0.9499091806554604,-2.8905090484146028,-0.13953764084520232,9.172563023668184,6.447419290282618
-0.9768390772687238,-0.8581835504187785,-2.8919044248230548,-0.07506344794237613,9.166670702668807,6.208693437821408
-0.9854209127729116,-0.7665168433920904,-2.8926550593024785,-0.012976513564162045,9.157353680618801,5.992164817874444
-0.9930860812068325,-0.6749433065859023,-2.8927848244381202,0.0469451346145824,9.144996021436974,5.798241532398271
-0.9998355142726916,-0.5834933463715326,-2.8923153730919746,0.10492754993856511,9.129887848409426,5.627239411474545
-1.005670447736407,-0.49219446788743837,-2.891266097592589,0.16119994405331056,9.112233586338395,5.4793913980919555
-1.0105923924152813,-0.40107213202405445,-2.889654098152056,0.2159938580342301,9.09215952765022,5.3548555971771075
-1.0146031137355218,-0.3101505367475523,-2.887494159571714,0.2695424140060012,9.069720632281117,5.253722001821398
-1.0177046191029973,-0.2194533304247411,-2.8847987354316538,0.3220796340242152,9.044906494631825,5.17601793169341
-1.0198991524072447,-0.12900426547842286,-2.881577939091412,0.3738398133411493,9.017646431232151,5.121712234199754
-1.0211891950620289,-0.03882780116610135,-2.8778395409580004,0.42505693568314684,8.987813660473636,5.0907183090589685
-1.02157747307369,0.051050335438635006,-2.873588971601169,0.4759641187737365,8.955228561372644,5.082896022609927
-1.0210669697193036,0.14060262105236143,-2.8688293304134316,0.5267930789998357,8.919661012336517,5.098052580412013
-1.01966094350878,0.2297992311757266,-2.8635613996234333,0.5777736048039559,8.880831823823016,5.135942426508112
-1.0173629511970228,0.31860754941395675,-2.8577836635753937,0.629133029069037,8.838413291075161,5.196266236074742
-1.0141768757028833,0.4069916823247084,-2.8514923332847033,0.6810956914297844,8.792028905207152,5.278669065992343
-1.0101069588796363,0.4949119713767799,-2.8446813763704055,0.7338823820897079,8.741252273192842,5.38273772600036
-1.0051578391658684,0.5823244941087083,-2.8373425525495084,0.7877097593497115,8.685605310100586,5.507997432371993
-0.9993345942247813,0.6691805472097142,-2.8294654549560114,0.8427897336734315,8.62455578051143,5.653907807215445
-0.9926427887526842,0.7554261050148285,-2.821037557619277,0.8993288117455859,8.557514280685075,5.819858290286975
-0.9850885277025359,0.8410012478216793,-2.812044269501821,0.9575273946484556,8.483830768878432,6.005163037227796
-0.976678515224319,0.9258395555104636,-2.8024689955553366,1.0175790250207335,8.402790768392007,6.209055388979255
-0.9674201196692144,1.0098674631943836,-2.7922932053051293,1.079669578910526,8.313611386464968,6.430682012267707
-0.9573214450372706,1.0930035770590332,-2.781496509516024,1.143976399033203,8.21543731202135,6.669096830854585
