th1 (rad),w1 (rad/s),th2 (rad),w2 (rad/s),a1 (rad/s^2),a2 (rad/s^2)
4.388488099161302,-2.800603384722099,4.217967390819354,0.11630010556961097,8.520218803606706,1.5607248515189804
4.3604820653140814,-2.715401196686032,4.21913039187505,0.13190735408480078,8.650597839918024,1.1062418927533701
4.333328053347221,-2.6288952182868517,4.220449465415897,0.1429697730123345,8.739033613184654,0.732940775718953
4.307039101164352,-2.5415048821550053,4.221879163146021,0.15029918076952403,8.785625036456652,0.4401273324825599
4.281624052342802,-2.453648631790439,4.223382154953716,0.15470045409434963,8.791675910014057,0.22511031111919905
4.2570875660248975,-2.3657318726902985,4.224929159494659,0.1569515572055416,8.759541967195444,0.08348631582808659
4.233430247297995,-2.278136453018344,4.226498675066714,0.15778642036382248,8.692416951166011,0.009509188599274052
4.210648882767812,-2.191212283506684,4.2280765392703525,0.15788151224981523,8.594089023896688,-0.0035032558036557503
4.188736759932745,-2.105271393267717,4.22965535439285,0.15784647969177867,8.468696340208663,0.03723183804013119
4.167684046000067,-2.0205844298656306,4.231233819189768,0.15821879807217998,8.320504364892095,0.12432434485060175
4.147478201701411,-1.9373793862167097,4.23281600717049,0.159462041520686,8.153719566603016,0.2505126509855106
4.128104407839244,-1.8558421905506794,4.234410627585697,0.1619671680305411,7.972346331399717,0.4088949952148983
4.109545985933737,-1.7761187272366823,4.236030299266002,0.16605611798269007,7.780087532454541,0.593090617191372
4.0917847986613705,-1.698317851912137,4.237690860445829,0.1719870241546038,7.580284721994665,0.7973373803251556
4.0748016201422494,-1.6225150046921903,4.239410730687375,0.17996039795785534,7.375891379840959,1.0165363268508456
4.0585764700953275,-1.5487560908937807,4.241210334666953,0.1901257612263638,7.169471726906449,1.2462549960928413
4.043088909186389,-1.4770613736247162,4.243111592279217,0.2025883111872922,6.963217823883789,1.4827009914975564
4.028318295450142,-1.4074291953858784,4.24513747539109,0.21741532110226777,6.7589785663591435,1.722675905000127
4.014244003496284,-1.339839409722287,4.247311628602112,0.23464208015226903,6.558295385734921,1.9635178580405006
4.000845609399061,-1.2742564558649379,4.249658049403635,0.25427725873267404,6.362440710233757,2.2030389907760037
3.9881030448404116,-1.2106320487626003,4.252200821990962,0.27630764864043406,6.172456375272488,2.439462463723431
3.9759967243527856,-1.1489074850098755,4.254963898477366,0.30070227327766835,5.989190121963851,2.67136204672811
3.964507649502687,-1.0890155837902369,4.257970921210143,0.32741589374494945,5.813329065907516,2.89760619294237
3.9536174936647845,-1.0308822931311616,4.261245080147592,0.35639195567437315,5.645429568032248,3.117307614430702
3.943308670733473,-0.9744279974508392,4.264808999704336,0.3875650318186802,5.485943323444776,3.3297787499504508
3.9335643907589644,-0.9195685642163914,4.268684650022522,0.4208628193181847,5.335239736598534,3.5344930946269346
3.9243687051168004,-0.8662161668504061,4.2728932782157045,0.45620775026445404,5.193624803981155,3.731052097049786
3.9157065434482963,-0.8142799188105946,4.277455355718349,0.4935182712349519,5.061356806966192,3.9191571792261017
3.9075637442601905,-0.7636663507409327,4.282390538430699,0.5327098430272129,4.938659150114941,4.098586364142236
3.8999270807527813,-0.7142797592397833,4.287717636860971,0.5736957066686352,4.82573068138773,4.2691749775497225
3.8927842831603834,-0.666022452425906,4.293454593927657,0.6163874564441325,4.722753813142165,4.430799905074149
3.8861240586361245,-0.6187949142944843,4.299618468492098,0.660695455494874,4.629900735404406,4.583366918624776
3.8799361094931797,-0.5724959069404403,4.306225423047047,0.7065291246811217,4.547337981727511,4.726800627600419
3.874211150423775,-0.5270225271231652,4.313290714293858,0.7537971309571259,4.475229576854008,4.861036654150146
3.8689409251525433,-0.48227023135462516,4.32082868560343,0.8024074974986273,4.413738966661312,4.986015673825158
3.864118222838997,-0.43813284168801203,4.328852760578416,0.8522676542368789,4.36302990566876,5.101679001172296
3.8597368944221166,-0.39450254263132445,4.337375437120785,0.9032844442486019,4.32326645614476,5.207965433212677
3.8557918689958033,-0.35126987806987686,4.346408281563271,0.9553640985807287,4.29461223548938,5.304809092189565
3.8522791702151045,-0.30832375571498305,4.355961922549078,1.0084121895026243,4.277229034675459,5.392138032868533
3.849195932657955,-0.26555146536822843,4.366046044444104,1.0623335698313097,4.2712749195099695,5.469873399776397
3.8465404180042726,-0.22283871617312873,4.376669380142418,1.1170323038290737,4.276901917627123,5.537928937006518
3.8443120308425414,-0.1800696969968575,4.387839703180709,1.1724115931991388,4.2942533867179105,5.59621066860227
3.8425113338725727,-0.13712716312967838,4.3995638191127,1.2283736998851615,4.323461152835416,5.644616582052243
3.841140062241276,-0.0938925516013242,4.411847556111551,1.284819865705684,4.364642501063203,5.683036162004124
3.8402011367252626,-0.05024612659069217,4.424695754768608,1.3416502273257251,4.417897093876804,5.711349636707653
3.839698675459356,-0.00606715565192413,4.438112257041865,1.3987637236928017,4.483303884790409,5.729426816533891
3.8396380039028366,0.03876588319597996,4.452099894278794,1.4560579918581407,4.560918086152216,5.737125422584221
3.8400256627347966,0.08437506405750211,4.466660474197375,1.5134292460839829,4.650768240204344,5.734288824073026
3.840869413375372,0.13088274645954556,4.481794766658215,1.5707721343247132,4.7528534319138664,5.720743125796534
3.842178240839967,0.17841128077868423,4.497502488001462,1.6279795655826785,4.8671406709471645,5.696293571332449
3.843962353647754,0.22708268748815588,4.513782283657289,1.684942501296003,4.993562458997249,5.660720253223442
3.8462331805226357,0.2770183120781284,4.530631708670248,1.7415497038282375,5.132014548110808,5.613773147720989
3.849003363643417,0.32833845755923646,4.548047205708531,1.7976874353054473,5.2823538864182575,5.555166518067818
3.8522867482190093,0.381161996423419,4.566024080061585,1.8532391004861255,5.4443967405119,5.484572756120341
3.8560983681832437,0.435605963828538,4.584556471066446,1.9080848280473288,5.617916979409297,5.401615756737928
3.860454427821529,0.491785133622631,4.6036373193469196,1.962100985614708,5.8026445042971835,5.305863942262276
3.8653722791577554,0.5498115786656028,4.6232583292030665,2.015159625037331,5.99826381170024,5.196823075168852
3.8708703949444114,0.6097942167826053,4.643409925453439,2.0671278557890194,6.204412685857687,5.073929015326345
3.8769683371122374,0.6718383436411821,4.66408120401133,2.1178671459422826,6.420681029264721,4.9365405941203795
3.883686720548649,0.7360451539338293,4.685259875470753,2.1672325518834863,6.646609858721917,4.783932790970202
3.8910471720879873,0.8025112525210485,4.706932200989588,2.2150718797931885,6.881690517832741,4.6152904085451585
3.8990722846131978,0.8713281576993759,4.72908291978752,2.26122478387864,7.125364185515964,4.429702451333081
3.9077855661901917,0.9425817995545356,4.751695167626306,2.305521808391971,7.377021793396142,4.22615741811654
3.917211384185737,1.016352017488497,4.7747503857102265,2.3477833825731365,7.636004502363706,4.0035397222184
3.927374904360622,1.092712062512134,4.798228219535958,2.3878187797953205,7.901604929440569,3.7606274536950752
3.938302024985743,1.1717281118065397,4.822106407333911,2.4254250543322713,8.17306935944587,3.4960916942906377
3.9500193061038082,1.2534588054009983,4.846360657877234,2.4603859712751777,8.449601220731761,3.2084975878582283
3.9625538941578182,1.337954817608316,4.870964517589986,2.49247094715376,8.730366149138327,2.8963073546487976
3.9759334423339014,1.4252584790996994,4.895889227061524,2.521434020700248,9.014499007752729,2.5578854154998765
3.9901860271248983,1.5154034691772267,4.921103567268526,2.5470128748552465,9.301113270247296,2.1915057593018075
4.00534006181667,1.6084146018796996,4.9465736960170785,2.568927932448265,9.589313210438279,1.7953616416791878
4.021424207835468,1.7043077339840824,4.972262975341561,2.5868815488650565,9.878209367891843,1.3675776419943855
4.038467285175308,1.8030898276630007,4.998131790830212,2.6005573252850005,10.166937776263024,0.9062240270959052
4.0564981834519385,1.904759205425631,5.024137364083062,2.6096195655559598,10.454683444665525,0.4093332717432056
4.075545775506194,2.0093060398722864,5.050233559738621,2.6137128982733917,10.74070856953783,-0.12508153358717133
4.095638835904917,2.1167131255676646,5.076370688721355,2.61246208293752,11.024385921699613,-0.699006795969599
4.116805967160594,2.226956984784661,5.10249530955073,2.6054720149778237,11.305237796691477,-1.3144076184114
4.13907553700844,2.3400093627515757,5.128550029700508,2.5923279387937095,11.582980831536922,-1.973206811853623
4.1624756306359565,2.4558391710669447,5.154473309088446,2.572595870675173,11.857576872073533,-2.677264609208312
4.187034022346626,2.57441493978768,5.180199267795198,2.54582322458309,12.129289914118907,-3.4283601032863915
4.212778171744502,2.695707838928869,5.205657500041029,2.511539623550226,12.398748927107105,-4.228175503256741
4.239735250133791,2.8196953281999404,5.230772896276531,2.4692578685176585,12.667016081397449,-5.078284264450733
4.26793220341579,2.946365489013915,5.255465474961707,2.418475025873151,12.93565950858111,-5.980143915781862
4.297395858305929,3.075722084099726,5.279650225220439,2.3586735867153323,13.206829174681252,-6.935093870681186
4.328153079146927,3.2077903758465385,5.303236961087593,2.2893226480085205,13.483333650107548,-7.944357485075199
4.360230982905392,3.342623712347614,5.326130187567678,2.2098790731577687,13.768714369289427,-9.009045852618081
4.393657220028868,3.480310856040508,5.348228978299256,2.1197886146315876,14.067312142297485,-10.130157895239389
4.428460328589273,3.620983977463483,5.369426864445572,2.0184870356791937,14.38431781014422,-11.308566587678525
4.4646701683639085,3.764827155564925,5.389611734802363,1.9054013698024086,14.725794376113123,-12.544973673983439
4.5023184399195575,3.912085099326056,5.408665748500387,1.7799516330625742,15.098650656349752,-13.839803478118224
4.541439290912818,4.0630716058895535,5.4264652648310125,1.641553598281392,15.510534822739679,-15.192988033116524
4.582070006971714,4.2181769541169505,5.4428808008138265,1.4896237179502267,15.969597581863924,-16.603567152008544
4.624251776512883,4.37787292993559,5.457777037993329,1.3235880464301413,16.484045218083747,-18.068982829318326
4.668030505812239,4.542713382116427,5.47101291845763,1.142898218136958,17.06135658257363,-19.58387969808574
4.713457639633403,4.713326947942163,5.4824419006389995,0.9470594211561005,17.706967542437326,-21.138121816793472
4.760590909112825,4.890396623366537,5.491912494850561,0.7356782029881658,18.42212244698415,-22.713589411438523
4.80949487534649,5.074617847836379,5.499269276880442,0.5085423088737806,19.200448933774986,-24.279121394234103
4.860241053824854,5.2666223371741285,5.50435469996918,0.26575109493143956,20.02264017016554,-25.78273936282594
4.912907277196595,5.466848738875784,5.507012210918494,0.007923701303180153,20.848487412261278,-27.140118689569558
4.967575764585353,5.675333612998397,5.507091447931526,-0.26347748559251544,21.605580083801694,-28.218435388004934
5.024329100715337,5.891389413836414,5.504456673075601,-0.5456618394725647,22.1747295343364,-28.815866483042505
5.083242994853701,6.113136709179778,5.4990000546808755,-0.8338205043029898,22.374473998121562,-28.640445686920096
5.1443743619454985,6.336881449160994,5.490661849637846,-1.1202249611721908,21.952218499130474,-27.299563425629735
5.207743176437108,6.556403634152298,5.479459600026123,-1.3932205954284882,20.5983565286228,-24.324082693901218
5.273307212778631,6.7623871994385265,5.465527394071838,-1.6364614223675005,18.00840765516118,-19.263362115886846
5.3409310847730165,6.942471275990139,5.449162779848163,-1.8290950435263689,14.012145544792238,-11.8782454819545
5.410355797532918,7.082592731438061,5.4308718294129,-1.947877498345914,8.743625989995218,-2.3933704495876005
5.481181724847299,7.170028991338014,5.411393054429441,-1.97181120284179,2.7434240332719817,8.349867591260082
5.552882014760679,7.197463231670733,5.391674942401023,-1.8883125269291892,-3.149034915455038,19.047778939207074
5.624856647077387,7.165972882516183,5.3727918171317315,-1.6978347375371183,-8.120067797503449,28.410162577158165
5.696516375902548,7.0847722045411485,5.35581346975636,-1.4137331117655367,-11.708206981460881,35.64797799321535
5.76736409794796,6.967690134726539,5.341676138638705,-1.0572533318333832,-13.898443190623798,40.62892175610662
5.837040999295225,6.828705702820302,5.33110360532037,-0.650964114272317,-14.980550223981137,43.6858943601671
5.9053280563234285,6.6789002005804905,5.324593964177647,-0.21410517067064605,-15.342583453716435,45.32095033439983
5.972117058329234,6.525474366043326,5.322452912470941,0.2391043326733523,-15.332171049756258,45.99954977326175
6.037371801989667,6.372152655545764,5.324843955797674,0.6990998304059698,-15.205930916948965,46.070277979670465
6.101093328545125,6.220093346376275,5.331834954101734,1.1598026102026744,-15.13180036097115,45.762812826926215
6.163294262008888,6.068775342766563,5.343432980203761,1.6174307384719366,-15.209833555377914,45.21529131282481
6.223982015436554,5.916677007212784,5.35960728758848,2.0695836516001846,-15.493596389677847,44.50473770829994
6.283148785508682,5.761741043316006,5.380303124104482,2.514631028683184,-16.00641624948455,43.671395437152704
6.340766195941842,5.60167688082116,5.405449434391314,2.951344983054711,-16.75222088535377,42.73583327024687
6.396782964750053,5.434154671967622,5.434962884221861,3.3787033157571797,-17.722327295022236,41.710249698234364
6.45112451146973,5.2569313990174,5.468749917379433,3.7958058127395233,-18.89962275257066,40.605684803929094
6.503693825459904,5.067935171491694,5.506707975506828,4.201862660778814,-20.261232860131912,39.43647045711231
6.5543731771748215,4.865322842890375,5.548726602114616,4.596227365349937,-21.780400959792495,38.22281176474994
6.603026405603726,4.64751883329245,5.5946888757681155,4.978455482997436,-23.4280114114079,36.99206030033852
6.64950159393665,4.413238719178371,5.64447343059809,5.348376086000822,-25.173976528419097,35.77902192520653
6.693633981128434,4.16149895389418,5.697957191458098,5.706166305252887,-26.98854980497955,34.62550525884882
6.735248970667375,3.891613455844384,5.7550188545106264,6.052421357841375,-28.843502111670123,33.579220422477675
6.774165105225819,3.603178434727683,5.81554306808904,6.388213562066152,-30.712980380602758,32.69204093094207
6.8101968895730955,3.2960486309216552,5.879425203709702,6.715133971375573,-32.57373502821121,32.01750031925919
6.843157375882312,2.9703112806395433,5.946576543423458,7.0353089745681645,-34.404218231950836,31.60715333688045
6.8728604886887075,2.626269098320035,6.0169296331691395,7.351380507936969,-36.18176716067456,31.505010825474795
6.899123179671908,2.2644514267132894,6.090443438248509,7.666430616191716,-37.87661727206845,31.738547210501025
6.9217676939390405,1.8856852539926048,6.167107744410426,7.983816088296726,-39.44075124198895,32.303648148918946
6.940624546478967,1.4912777415727154,6.246945905293393,8.306852569785915,-40.788554185637146,33.13925640273405
6.955537323894694,1.0833921997163438,6.330014430991253,8.638245133813255,-41.76523632255277,34.085775132143134
6.966371245891858,0.6657398364908161,6.416396882329385,8.979102885134687,-42.09947657085779,34.82143467857299
6.9730286442567655,0.24474507078223823,6.506187911180732,9.327317231920416,-41.343226433876,34.778881179459646
6.975476094964588,-0.1686871935565218,6.5994610834999365,9.675106043715013,-38.82424477843932,33.07416626494332
6.973789223029023,-0.556929641340915,6.696212143937086,10.005847706364447,-33.68897405463057,28.55087126654449
6.968219926615614,-0.8938193818872208,6.796270621000731,10.291356419029892,-25.180724247513123,20.135580824688347
6.959281732796741,-1.145626624362352,6.89918418519103,10.492712227276776,-13.256237203292068,7.648947613591273
6.947825466553118,-1.2781889963952728,7.0041113074637975,10.56920170341269,0.7434089826027049,-7.302930608658769
6.935043576589165,-1.2707549065692458,7.109803324497925,10.496172397326102,14.211119126736952,-21.484749535185298
6.922336027523473,-1.1286437153018762,7.214765048471186,10.28132490197425,24.618014051953573,-31.805233617821823
6.911049590370454,-0.8824635747823405,7.317578297490929,9.963272565796032,30.923717513144478,-37.13494844615443
6.902224954622631,-0.5732263996508957,7.417211023148889,9.591923081334487,33.64832572499288,-38.32596136470265
6.896492690626122,-0.23674314240096694,7.513130253962234,9.20866346768746,33.96177998828057,-36.97557744156433
6.894125259202112,0.10287465748183877,7.6052168886391085,8.838907693271816,32.92387144339538,-34.45000337644152
6.895154005776931,0.4321133719157926,7.693605965571827,8.4944076595074,31.239688109164657,-31.60755051208012
6.899475139496088,0.7445102530074392,7.778550042166901,8.178332154386599,29.305885699088527,-28.892188747495332
6.906920242026163,1.0375691099983246,7.860333363710767,7.8894102669116455,27.32106997241608,-26.493877587271484
6.917295933126146,1.3107798097224854,7.939227466379884,7.62447149103893,25.37355657843997,-24.46806128550281
6.930403731223371,1.5645153755068852,8.015472181290273,7.379790878183902,23.49544100534541,-22.805982119323275
6.94604888497844,1.7994697855603394,8.089270090072112,7.15173105699067,21.692422944968847,-21.471659082936522
6.9640435828340435,2.016394015010028,8.160787400642018,6.937014466161305,19.959296461026288,-20.420021314228975
6.984207522984144,2.2159869796202907,8.230157545303632,6.732814253019015,18.28763504617269,-19.60525935684037
7.006367392780347,2.3988633300820177,8.297485687833822,6.536761659450611,16.66938835671825,-18.98435541723255
7.030356026081167,2.5655572136492,8.362853304428327,6.346918105278285,15.09838121241849,-18.518342960741155
7.056011598217659,2.716541025773385,8.42632248548111,6.161734675670874,13.570753441269789,-18.17255827213382
7.083177008475393,2.8522485601860827,8.487939832237819,5.980009092949536,12.084877729835203,-17.916488381866206
7.1116994940772535,2.9730973374844347,8.547739923167315,5.800844209130874,10.641033835366713,-17.723491305332736
7.141430467452098,3.079507675838102,8.605748365258624,5.623609296077547,9.240984898173286,-17.570503877101693
7.172225544210479,3.171917524819835,8.661984458219399,5.447904257306529,7.887533492751945,-17.437776134783373
7.203944719458677,3.2507928597473543,8.716463500792464,5.273526495958696,6.584099597314272,-17.30863703022089
7.236452648056151,3.316633855720497,8.769198765752051,5.100440125656487,5.33434357579312,-17.16928297409969
7.269618986613356,3.369977291478428,8.820203167008616,4.92874729591549,4.141846350449956,-17.00857759802286
7.30331875952814,3.4113957549829275,8.86949063996777,4.758661519935261,3.009852136997628,-16.817852640023837
7.337432717077969,3.4414942763529037,8.917077255167122,4.590482993535023,1.9410744730445708,-16.590703174686205
7.371847659841499,3.4609050210833496,8.962982085102473,4.424575961788161,0.9375629097085256,-16.322774039767513
7.406456710052332,3.470280650180435,9.007227844720354,4.261348221390486,0.0006252782730630581,-16.011537515402832
7.441159516554136,3.4702869029631658,9.04984132693426,4.101232846236458,-0.8692012675278322,-15.656064759111292
7.475862385583768,3.4615948902878872,9.090853655396625,3.9446721986453452,-1.6721382773287192,-15.256795098096347
7.510478334486646,3.4448735075146,9.130300377383078,3.7921042476643816,-2.4091213886561387,-14.815308076891952
7.544927069561792,3.4207822936280388,9.168221419859721,3.6439511668954623,-3.0817312936741788,-14.334103276924385
7.579134892498073,3.389964980691297,9.204660931528675,3.5006101341262186,-3.6921080305933,-13.81639252335517
7.613034542304986,3.353043900385364,9.239667032869937,3.362446208892667,-4.242855556400777,-13.265908338190737
