th1 (rad),w1 (rad/s),th2 (rad),w2 (rad/s),a1 (rad/s^2),a2 (rad/s^2)
6.154857728720162,0.023471335643809547,1.3214913934469965,-2.1905113058241783,4.239765891556165,-10.009236992905846
6.1550924420766,0.0658689945593712,1.2995862803887548,-2.290603675753237,4.5686039046097555,-10.097695143297493
6.155751132022194,0.11155503360546876,1.2766802436312223,-2.3915806271862117,4.912354279793679,-10.206462295780849
6.156866682358248,0.16067857640340555,1.2527644373593603,-2.49364525014402,5.2717480091898175,-10.338385282145317
6.158473468122282,0.21339605649530372,1.22782798485792,-2.597029102965473,5.647690265654461,-10.496593583306844
6.160607428687235,0.26987295915184834,1.2018576938282655,-2.7019950387985414,6.04127756113031,-10.684520441333193
6.163306158278753,0.33028573476315143,1.1748377434402801,-2.8088402432118733,6.453811116355584,-10.905921207518132
6.166609015626385,0.3948238459267073,1.1467493410081615,-2.9178994552870545,6.886803049451478,-11.164885073081571
6.170557254085652,0.46369187642122206,1.1175703464552909,-3.0295483060178703,7.341970076763693,-11.465833835960865
6.175194172849864,0.537111577188859,1.0872748633951121,-3.144206644377479,7.821206471191759,-11.813497460941521
6.180565288621752,0.6153236419007766,1.0558327969513372,-3.2623416189868943,8.326523489708807,-12.21285013002453
6.186718525040759,0.6985888767978646,1.0232093807614684,-3.3844701202871397,8.85993552795488,-12.668981095743494
6.193704413808738,0.7871882320774134,0.989364679558597,-3.5111599312445745,9.423262638891735,-13.186860198520257
6.201576296129512,0.8814208584663308,0.9542530802461512,-3.643028533229777,10.017802946863105,-13.770935828465337
6.210390504714176,0.9815988879349619,0.9178227949138534,-3.7807378915144305,10.643804357906722,-14.424469787796331
6.220206493593525,1.088036931514029,0.8800154159987091,-3.924982589392394,11.299629534852958,-15.148464211570763
6.231086862908666,1.2010332268625585,0.8407655901047852,-4.076467231508102,11.980457835077884,-15.939965173877084
6.243097195177292,1.3208378052133374,0.8000009177897043,-4.235866883246873,12.676300839895958,-16.789432490492747
6.256305573229425,1.447600813612297,0.7576422489572355,-4.4037612081518,13.36902899778778,-17.676751047532626
6.270781581365548,1.5812911035901749,0.7136046368757175,-4.580528718627126,14.02803967445579,-18.565357191957084
6.286594492401449,1.7215715003347327,0.6677993496894462,-4.766182290546697,14.604211406205394,-19.393958762027115
6.303810207404797,1.8676136143967867,0.6201375267839793,-4.960121878166968,15.022051401243957,-20.065666674499365
6.322486343548765,2.0178341284092265,0.5705363080023096,-5.160778544911961,15.170789016767442,-20.435493663834972
6.342664684832857,2.1695420185769008,0.51892852255319,-5.365133481550311,14.897146859154692,-20.299878076814664
6.364360105018626,2.3185134871684476,0.4652771877376869,-5.568132262318458,14.006198502442066,-19.39695768048329
6.3875452398903105,2.458575472192868,0.4095958651145023,-5.762101839123291,12.28171375902009,-17.4332539637685
6.412130994612239,2.581392609783069,0.3519748467232694,-5.936434378760977,9.54003653764288,-14.156204363397597
6.43794492071007,2.676792975159498,0.2926105029356596,-6.0779964223949525,5.722416529871019,-9.47957504596965
6.464712850461665,2.734017140458208,0.23183053871171008,-6.172792172854649,0.9991154207667514,-3.625343239227897
6.492053021866247,2.7440082946658753,0.1701026169831636,-6.209045605246928,-4.185787394106705,2.815476430641244
6.519493104812906,2.7021504207248084,0.10801216093069431,-6.180890840940515,-9.204607452135111,9.006694164396231
6.546514609020154,2.610104346203457,0.04620325252128916,-6.090823899296553,-13.460136446149814,14.159077192179616
6.572615652482188,2.475502981741959,-0.014704986471676375,-5.9492331273747565,-16.593476857811712,17.81121984867495
6.597370682299608,2.3095682131638418,-0.07419731774542394,-5.771120928888007,-18.551368900802153,19.916163656777954
6.6204663644312465,2.12405452415582,-0.131908527034304,-5.571959292320227,-19.50553925592146,20.726616316250126
6.641706909672805,1.9289991315966055,-0.18762811995750628,-5.364693129157726,-19.71952213575557,20.611633025631555
6.660996900988771,1.73180391023905,-0.24127505124908355,-5.158576798901411,-19.44785789474564,19.920506373104512
6.678314940091161,1.5373253312915935,-0.29286081923809765,-4.9593717351703654,-18.89046995382012,18.923226113576547
6.693688193404077,1.3484206317533924,-0.3424545365898013,-4.7701394740346,-18.18607109369726,17.803978262104035
6.70717239972161,1.16655992081642,-0.3901559313301473,-4.59209969141356,-17.422879835236685,16.677457587050615
6.718837998929774,0.9923311224640531,-0.4360769282442829,-4.425325115543054,-16.653004687234695,15.60940669913513
6.728761310154415,0.8258010755917061,-0.48033017939971345,-4.269231048551703,-15.904789439554662,14.633833139363214
6.737019320910331,0.6667531811961596,-0.5230224898852305,-4.122892717158071,-15.191792585369539,13.765323533252413
6.743686852722293,0.5148352553424642,-0.5642514170568111,-3.985239481825547,-14.518788831489076,13.00714257365769
6.748835205275718,0.36964736702757345,-0.6041038118750666,-3.8551680560889703,-13.885586297818234,12.356292295371695
6.752531678945994,0.2307915040493911,-0.6426554924359562,-3.731605133135253,-13.289376621972751,11.80655851867081
6.754839593986488,0.0978977378296636,-0.6799715437673087,-3.613539547948545,-12.726145988381468,11.350287393596014
6.7558185713647845,-0.02936372205415108,-0.7161069392467941,-3.500036674012585,-12.191502010215075,10.979385187296002
6.755524934144243,-0.15127874215630183,-0.75110730598692,-3.390242822139625,-11.681143891094244,10.685853885863745
6.754012146722681,-0.26809018106724425,-0.7850097342083162,-3.2833842832809874,-11.19111765824723,10.46205545012083
6.751331244912008,-0.38000135764971654,-0.8178435770411261,-3.178763728779779,-10.717943396633892,10.30082165126769
6.747531231335511,-0.48718079161605543,-0.8496312143289239,-3.075755512267102,-10.258667174412958,10.195479463151461
6.742659423419351,-0.589767463360185,-0.8803887694515948,-2.9738007176355876,-9.810869307024873,10.139833363181596
6.736761748785749,-0.6878761564304338,-0.9101267766279507,-2.8724023840037716,-9.372647801164197,10.128128588544154
6.729882987221445,-0.7816026344420757,-0.9388508004679884,-2.77112109811833,-8.942588086623099,10.155008989453115
6.722066960877024,-0.8710285153083066,-0.9665620114491718,-2.669571008223799,-8.519725511462937,10.215476893143425
6.713356675723941,-0.956225770422936,-0.9932577215314098,-2.5674162392923647,-8.103504330208846,10.304858683793412
6.7037944180197115,-1.0372608137250245,-1.0189318839243335,-2.4643676524544307,-7.693735312451342,10.418777613035077
6.693421809882461,-1.114198166849538,-1.043575560448878,-2.36017987632408,-7.290553185998191,10.553134080181474
6.682279828213966,-1.1871036987095198,-1.0671773592121188,-2.254648535522265,-6.894374626689206,10.704092898374455
6.670408791226871,-1.2560474449764119,-1.0897238445673414,-2.1476076065385206,-6.505857246130981,10.86807667484075
6.657848316777106,-1.3211060174377216,-1.1111999206327265,-2.038926839790113,-6.125859904940133,11.041764249464043
6.644637256602729,-1.3823646164871228,-1.1315891890306278,-1.9285091972954727,-5.755404629268243,11.222093077037657
6.630813610437857,-1.4399186627798053,-1.1508742810035826,-1.8162882665250961,-5.395640394250226,11.40626445701248
6.61641442381006,-1.4938750667223075,-1.1690371636688335,-1.7022256219549714,-5.04780903705125,11.591750580964458
6.601475673142836,-1.54435315709282,-1.1860594198883831,-1.5863081161453267,-4.713213561621527,11.776302464069062
6.586032141571908,-1.5914852927090353,-1.2019225010498364,-1.468545091504636,-4.3931890903918,11.957957940843196
6.570117288644818,-1.6354171836129532,-1.2166079519648827,-1.348965512096204,-4.089076701949312,12.135049029473926
6.553763116808688,-1.6763079506324463,-1.2300976070858447,-1.2276150218014648,-3.8022003674177265,12.306208097701138
6.537000037302364,-1.7143299543066235,-1.2423737573038593,-1.1045529408244534,-3.533847162250578,12.4703723923268
6.519856737759298,-1.7496684259291293,-1.253419286712104,-0.9798492169011854,-3.285250885466738,12.626786620594395
6.502360053500007,-1.7825209347837967,-1.2632177788811159,-0.8535813506952414,-3.057579166239633,12.775003391842862
6.484534844152169,-1.813096726446193,-1.2717535923880683,-0.7258313167768128,-2.8519240793508884,12.914881438903748
6.466403876887707,-1.841615967239702,-1.2790119055558364,-0.5966825023877753,-2.6692962271898417,13.046581637304005
6.44798771721531,-1.8683089295116002,-1.2849787305797142,-0.46621668601473526,-2.5106221770712662,13.170560922535408
6.429304627920193,-1.893415151282313,-1.2896408974398617,-0.3345110767893812,-2.376745068236502,13.287564266683384
6.41037047640737,-1.917182601964678,-1.2929860082077556,-0.20163543412254734,-2.268428121467975,13.398614909590838
6.391198650387723,-1.9398668831793577,-1.295002362548981,-0.06764928502663894,-2.18636069264685,13.505003038754712
6.37179998155593,-1.9617304901058263,-1.2956788553992475,0.06740074536090818,-2.1311664043868834,13.608273066120955
6.352182676654872,-1.9830421541496952,-1.2950048479456384,0.20348347602211772,-2.103412758381715,13.710209545041355
6.332352255113375,-2.0040762817335125,-1.2929700131854172,0.34058557147253127,-2.103621461971588,13.812821587741334
6.31231149229604,-2.0251124963532283,-1.2895641574706918,0.47871378734994463,-2.1322784757780364,13.918325355724864
6.292060367332508,-2.0464352811110085,-1.2847770195971924,0.6178970409071933,-2.189842475925981,14.029123764064067
6.271596014521398,-2.0683337058702684,-1.2785980491881204,0.758188278547834,-2.2767499821668973,14.147781910061207
6.250912677462695,-2.0911012056919374,-1.271016166402642,0.8996660976484461,-2.3934147715461376,14.276995827474494
6.2300016654057755,-2.1150353534073987,-1.2620195054261576,1.042436055923191,-2.5402182897824974,14.419550864573184
6.208851311871702,-2.1404375363052237,-1.2515951448669256,1.186631564568923,-2.7174864672267764,14.578264123786347
6.18744693650865,-2.1676124009774913,-1.2397288292212363,1.3324142058067865,-2.9254464725874842,14.755902751105051
6.165770812498875,-2.1968668657033663,-1.2264046871631684,1.479973233317837,-3.164154261169513,14.955066103464672
6.143802143841841,-2.2285084083150615,-1.21160495482999,1.6295238943524837,-3.4333799816366923,15.178014518642422
6.12151705975869,-2.2628422081314286,-1.1953097158864652,1.781304039538908,-3.732432995577889,15.426420006066996
6.098888637677376,-2.3001665380872076,-1.177496675491076,1.935568239599578,-4.059900966477475,15.701004005018119
6.075886972296504,-2.340765547751982,-1.1581409930950803,2.092578279649759,-4.413267728950413,16.001013759260587
6.052479316818984,-2.3848982250414865,-1.1372152102985829,2.252588417242365,-4.788362232707111,16.32347148659318
6.02863033456857,-2.432781847368558,-1.1146893261261592,2.415823132108297,-5.1785763155549,16.662110073031336
6.004302516094884,-2.484567610524107,-1.0905310948050762,2.5824442328386104,-5.5737748424728855,17.005888792282814
5.979456839989643,-2.540305358948836,-1.06470665247669,2.7525031207614385,-5.958814417227791,17.336971516060935
5.954053786400155,-2.599893503121114,-1.0371816212690756,2.925872835922048,-6.311601099387074,17.62806823775115
5.928054851368944,-2.6630095141149845,-1.0079228929098552,3.1021535182995597,-6.600682463838629,17.839128754416407
5.901424756227794,-2.729016338753371,-0.9769013577268596,3.2805448058437237,-6.782536456200945,17.913606550066792
5.87413459284026,-2.7968417033153803,-0.9440959096684224,3.4596808713443914,-6.799066871447404,17.774989918298637
5.846166175807106,-2.8648323720298543,-0.9094991009549784,3.6374307705273776,-6.5764301783423145,17.325148076380795
5.817517852086808,-2.9305966738132776,-0.8731247932497046,3.8106822512911855,-6.0272191667008,16.447289107454342
5.788211885348675,-2.9908688654802855,-0.8350179707367927,3.975155142365729,-5.05896820711894,15.01763136322254
5.758303196693872,-3.041458547551475,-0.7952664193131355,4.125331455997954,-3.592089244930474,12.930091298728618
5.727888611218357,-3.0773794400007795,-0.754013104753156,4.2546323689852406,-1.5880991877940147,10.135164656917492
5.697114816818349,-3.09326043187872,-0.7114667810633035,4.355984015554416,0.9172250287105616,6.685524384637743
5.666182212499562,-3.084088181591614,-0.6679069409077594,4.422839259400793,3.7902419875566937,2.768207159721691
5.635341330683646,-3.046185761716047,-0.6236785483137515,4.45052133099801,6.804988031846316,-1.3037702356851766
5.604879473066486,-2.978135881397584,-0.5791733350037713,4.437483628641158,9.688419322395916,-5.154792569915743
5.57509811425251,-2.8812516881736245,-0.5347984987173597,4.3859357029420005,12.191837547946726,-8.445884053597302
5.546285597370774,-2.7593333126941575,-0.49093914168793973,4.301476862406028,14.154053565714197,-10.961718214683131
5.518692264243833,-2.6177927770370157,-0.44792437306387944,4.1918596802591965,15.525994323828783,-12.6434991506395
5.492514336473462,-2.462532833798728,-0.4060057762612875,4.065424688752802,16.35310342421331,-13.563179208455038
5.467889008135475,-2.299001799556595,-0.3653515293737595,3.929792896668251,16.735466356090352,-13.867191300736804
5.444898990139909,-2.1316471359956912,-0.326053600407077,3.7911209836608832,16.788968033309075,-13.722221502895055
5.423582518779952,-1.9637574556626005,-0.28814239057046814,3.6538987686319326,16.619802450854536,-13.279978374016528
5.403944944223326,-1.7975594311540553,-0.25160340288414884,3.5210989848917675,16.313162421038186,-12.661858628162028
5.385969349911786,-1.6344278069436733,-0.21639241303523116,3.3944803986101473,15.931552938228217,-11.956991507145863
5.369625071842349,-1.4751122775613912,-0.18244760904912968,3.2749104835386884,15.517828308864297,-11.226766164885861
5.354873949066735,-1.3199339944727482,-0.1496985042137428,3.16264282188983,15.09966594433781,-10.511257210145347
5.341674609122007,-1.1689373350293701,-0.11807207599484451,3.0575302497883765,14.693821590297528,-9.835263413640963
5.329985235771714,-1.0219991191263949,-0.08749677349696075,2.9591776156519667,14.309565611531704,-9.213148445113541
5.3197652445804495,-0.8789034630110778,-0.05790499734044108,2.8670461312008313,13.951229470089617,-8.652405666320009
5.310976209950339,-0.7393911683101816,-0.029234536028432765,2.780522074537631,13.61999772907986,-8.156150009533462
5.303582298267237,-0.603191191019383,-0.0014293152830564537,2.6989605744422964,13.315127225771029,-7.724799240069862
5.2975503863570435,-0.4700399187616727,0.02556029046136651,2.6217125820415976,13.034757030387473,-7.3571781079091005
5.292849987169427,-0.339692348457798,0.051777416281782486,2.5481408009625066,12.776436792140206,-7.051226385218765
5.2894530636848485,-0.21192798053639594,0.07725882429140755,2.477628537110319,12.537466023408248,-6.804441575058493
5.287333783879484,-0.08655332030231347,0.10203510966251075,2.409584121359734,12.315108702081003,-6.614147064463625
5.286468250676461,0.03659776671849657,0.1261309508761081,2.343442650715098,12.106726823806127,-6.477647198008637
5.286834228343646,0.15766503495655784,0.14956537738325906,2.2786661787350115,11.90986196256811,-6.392310271209844
5.288410878693211,0.27676365458223895,0.17235203917060918,2.214743076022913,11.722283943517594,-6.355606522139773
5.291178515239034,0.3939864940174149,0.1944994699308383,2.1511870108015154,11.542019047605939,-6.365118897247104
5.2951183801792086,0.5094066844934744,0.21601134003885347,2.0875358218290443,11.367365727355377,-6.418538219445465
5.300212447024143,0.6230803417670281,0.23688669825714392,2.02335043963459,11.196902885058831,-6.513650352370413
5.306443250441814,0.7350493706176164,0.25712020265348984,1.9582139361108857,11.029493845127403,-6.648320319578775
5.31379374414799,0.8453443090688905,0.2767023420145987,1.8917307329150979,10.864287901857155,-6.820476620283342
5.322247187238679,0.953987188087462,0.2956196493437497,1.8235259667122645,10.700720516931037,-7.028097863976977
5.331787059119553,1.0609943932567723,0.3138549090108723,1.7532449880724947,10.538512728610185,-7.269203113608368
5.34239700305212,1.1663795205428742,0.33138735889159726,1.680552956936411,10.37767001891871,-7.541846841710814
5.354060798257549,1.2701562207320614,0.34819288846096136,1.6051344885193028,10.218480701827826,-7.8441190746671925
5.36676236046487,1.3723410277503396,0.3642442333461544,1.5266932977726309,10.061513801928772,-8.174151067100865
5.380485770742373,1.4729561657696273,0.3795111663238807,1.4449517871016222,9.907616360714266,-8.530126671704082
5.39521533240007,1.57203232937677,0.39396068419489694,1.3596505203845815,9.757910116364872,-8.910299423388885
5.410935655693837,1.6696114305404186,0.40755718939874275,1.2705475261506927,9.613787537835615,-9.313015222480598
5.427631769999241,1.7657493059187748,0.4202626646602497,1.1774173739258866,9.476907242346282,-9.736740366433231
5.445289263058429,1.8605183783422377,0.43203683839950857,1.0800499702615542,9.349188874562289,-10.180094531604777
5.463894446841851,1.9540102670878605,0.4428373381021241,0.9782490249455065,9.232807561489444,-10.641888133269575
5.48343454951273,2.046338342702755,0.45261982835157916,0.8718301436128107,9.130188061122672,-11.12116327624869
5.503897932939758,2.1376402233139817,0.4613381297877073,0.7606185108503238,9.043998670219306,-11.617237224832174
5.525274335172898,2.228080210016175,0.4689443148962105,0.6444461386020021,8.97714481170105,-12.129746929251393
5.54755513727306,2.3178516581331854,0.47538877628223053,0.5231486693094881,8.93276193335675,-12.658692584104458
5.570733653854392,2.407179277466753,0.4806202629753254,0.39656174346844353,8.914206840019888,-13.20447736332329
5.594805446629059,2.4963213458669515,0.48458588041000983,0.2645169698352106,8.92504573626261,-13.767939222783165
5.619768660087729,2.585571803229578,0.48723105010836193,0.12683757760737896,8.969035902185425,-14.350368747283596
5.645624378120025,2.675262162251432,0.48849942588443573,-0.016666109865456996,9.050095797426152,-14.953504076508244
5.672376999742539,2.7657631202256936,0.48833276478578114,-0.16620115063053945,9.172255087382007,-15.57948941331363
5.7000346309447965,2.857485671099514,0.48667075327947573,-0.3219960447636757,9.33957100381145,-16.230776645037253
5.728609487655792,2.9508813811376284,0.48345079283183895,-0.48430381121404825,9.55598967772734,-16.90993891538936
5.758118301467168,3.046441277914902,0.47860775471969846,-0.6534032003679419,9.825119269097945,-17.619348686112154
5.788582714246317,3.1446924706058814,0.47207372271601905,-0.8295966872290634,10.149863934370616,-18.360648230647623
5.820029638952376,3.2461911099495877,0.46377775584372843,-1.0132031695355397,10.53184129503563,-19.133903962860682
5.852491550051872,3.351509522899944,0.45364572414837306,-1.2045422091641464,10.970467890172033,-19.936283099758345
5.8860066452808715,3.4612142018016643,0.4416003020567316,-1.40390504016173,11.461544106057143,-20.760017817778987
5.9206187872988885,3.5758296428622356,0.4275612516551143,-1.6115052183395198,11.995102002433764,-21.589328170511774
5.956377083727511,3.6957806628865733,0.4114461994717191,-1.8273985000446376,12.552205340285147,-22.395873741388904
5.993334890356377,3.821302716289425,0.39317221447127276,-2.0513572374585265,13.100344412308461,-23.132243015482135
6.031547917519271,3.9523061604125096,0.3726586420966875,-2.2826796676133476,13.587137625976482,-23.723094361394118
6.071070979123396,4.088177536672275,0.349831845420554,-2.5199106112272887,13.9324343633042,-24.05411171709761
6.111952754490119,4.227501880305317,0.3246327393082811,-2.7604517283982646,14.019980681966036,-23.960454411507115
6.154227773293172,4.367701687124977,0.29702822202429846,-3.0000562725133357,13.69210180667604,-23.219623367007895
6.197904790164422,4.504622705191737,0.2670276592991651,-3.2322525061834146,12.754739298085827,-21.559142587890857
6.242951017216339,4.632170098172596,0.23470513423733097,-3.447843932062323,11.004622842231209,-18.695689840674273
