th1 (rad),w1 (rad/s),th2 (rad),w2 (rad/s),a1 (rad/s^2),a2 (rad/s^2)
6.273565004554363,-2.422517310210535,6.2133261745253225,1.6599718317700902,-1.009159998574679,2.0446955915696154
6.249339831452257,-2.432608910196282,6.229925892843023,1.6804187876857863,-0.028014559546229188,0.6645812589321688
6.225013742350295,-2.4328890557917444,6.246730080719881,1.687064600275108,0.9722648167767117,-0.7433812737500543
6.200684851792377,-2.4231664076239774,6.263600726722632,1.6796307875376075,1.961713212828114,-2.1350969420248838
6.176453187716137,-2.4035492754956964,6.280397034598008,1.6582798181173586,2.9109573191048805,-3.467328955458098
6.15241769496118,-2.3744397023046475,6.296979832779181,1.6236065285627777,3.7942586263230242,-4.702063356610762
6.128673297938134,-2.3364971160414174,6.313215898064809,1.57658589499667,4.591889339467035,-5.809925751602382
6.1053083267777195,-2.2905782226467473,6.328981757014775,1.5184866374806463,5.291424513650271,-6.772056544648004
6.082402544551252,-2.2376639775102447,6.344166623389581,1.4507660720341662,5.887850421714234,-7.580299599371618
6.0600259047761496,-2.1787854732931025,6.358674284109923,1.37496307604045,6.3826868176785805,-8.235981830189207
6.038238050043218,-2.1149586051163167,6.372423914870327,1.292603257738558,6.782497510726549,-8.747813141680782
6.017088463992055,-2.0471336300090512,6.385349947447713,1.2051251263217502,7.097191588557843,-9.129477420097034
5.996617127691964,-1.9761617141234729,6.397401198710931,1.1138303521207797,7.338434443017431,-9.397368871694153
5.976855510550729,-1.9027773696932986,6.408539502232139,1.0198566634038382,7.518357834793849,-9.568744764427395
5.957827736853797,-1.8275937913453602,6.418738068866177,0.9241692157595642,7.648636091582019,-9.660392713717822
5.939551798940343,-1.75110743042954,6.4279797610237726,0.827565288622386,7.739909545943445,-9.687788425996896
5.922040724636048,-1.6737083349701056,6.436255413909996,0.730687404362417,7.801491056099192,-9.6646550040571
5.905303641286347,-1.5956934244091137,6.44356228795362,0.634040854321846,7.841278053079446,-9.602815200904779
5.889346707042256,-1.5172806438783193,6.449902696496839,0.5380127023127982,7.865798443189585,-9.512235714075663
5.8741739006034726,-1.4386226594464235,6.455282823519966,0.44289034517204157,7.880333176599305,-9.401182661723045
5.8597876740090085,-1.3598193276804305,6.459711726971687,0.3488785185548111,7.88907439595654,-9.276429897203819
5.846189480732204,-1.280928583720865,6.463200512157235,0.2561142195827729,7.895292213896441,-9.14348168638199
5.833380194894995,-1.2019756615819006,6.465761654353063,0.164679402718953,7.901494061238849,-9.006786647384796
5.821360438279176,-1.122960720969512,6.467408448380253,0.07461153624510504,7.909568205159422,-8.869930708624416
5.810130831069481,-1.0438650389179178,6.468154563742703,-0.01408777084113913,7.920908016231787,-8.735803938476273
5.799692180680301,-0.9646559587556,6.468013686034292,-0.10144581022590186,7.936516552949355,-8.606740393549694
5.790045621092745,-0.8852907932261064,6.466999227932033,-0.18751321416139882,7.957092651982143,-8.484632487404626
5.781192713160484,-0.8057198667062849,6.465124095790419,-0.2723595390354451,7.983100446194445,-8.371022476652602
5.773135514493421,-0.7258888622443405,6.462400500400064,-0.3560697638019711,8.014824426584994,-8.267173983743593
5.765876625870978,-0.6457406179784905,6.458839802762045,-0.438741503639407,8.052412050585808,-8.174126352652305
5.759419219691193,-0.5652164974726324,6.4544523877256506,-0.52048276716593,8.095905623880041,-8.092734272651715
5.753767054716466,-0.48425744123383196,6.449247560053991,-0.6014101098924471,8.145264832765873,-8.023694630109986
5.748924480304128,-0.4028047929061732,6.443233458955067,-0.681647056193547,8.200380926244483,-7.967562026703001
5.744896432375066,-0.3208009836437284,6.436416988393131,-0.761322676460577,8.26108316345629,-7.924753866948598
5.741688422538629,-0.2381901520091655,6.428803761628526,-0.840570215130063,8.327137759625582,-7.895545379218883
5.739306521018538,-0.15491877441290966,6.420398059477225,-0.9195256689222518,8.39823918061262,-7.8800543908476985
5.737757333274408,-0.07093638260678346,6.411202802788003,-0.9983262128307289,8.473993247135319,-7.878215122627651
5.737047969448341,0.01380354986456972,6.401219540659695,-1.0771083640570054,8.553891109566248,-7.889739693937939
5.737186004946986,0.09934246096023219,6.390448457019125,-1.1560057609963847,8.637272742099695,-7.914065435776021
5.738179429556588,0.18571518838122913,6.378888399409161,-1.235146415354145,8.723278189755241,-7.950285507034607
5.740036581440401,0.27294797027878154,6.36653693525562,-1.314649270424491,8.810784409103977,-7.9970597352905886
5.742766061143189,0.3610558143698213,6.353390442551374,-1.3946198677773969,8.898325228444738,-8.052502132962871
5.746376619286887,0.4500390666542687,6.339444243873601,-1.4751448891070256,8.98399181579414,-8.11404131264346
5.75087700995343,0.5398789848122101,6.32469279498253,-1.5562853022334602,9.065311253688163,-8.178250279301249
5.756275799801553,0.6305320973490918,6.309129941960196,-1.6380678050264728,9.139101650571819,-8.240643192800714
5.762581120775043,0.72192311385481,6.292749263909931,-1.7204742369544799,9.201304081873396,-8.295439250383955
5.769800351913592,0.813936154673544,6.275544521540386,-1.8034286294583195,9.246795138833585,-8.335298664106869
5.777939713460327,0.9064041060618798,6.257510235245803,-1.8867816160993882,9.26918974953831,-8.35104390285167
5.787003754520946,0.9990960035572629,6.238642419084809,-1.9702920551279048,9.260653142866492,-8.331392234075432
5.796994714556519,1.0917025349859277,6.21893949853353,-2.053605977468659,9.21175421365204,-8.262744369028704
5.807911739906378,1.183820077122448,6.198403438758843,-2.136233421158946,9.111410460856067,-8.129099208372883
5.819749940677602,1.2749341817310087,6.1770411045472535,-2.2175244132426752,8.946996067945552,-7.912194896494357
5.832499282494912,1.3644041424104643,6.1548658604148265,-2.296646362207619,8.70470577600004,-7.592006361762636
5.846143323919017,1.4514512001704647,6.13189939679275,-2.3725664258252452,8.370279697210998,-7.147747719723167
5.860657835920721,1.5351539971425747,6.108173732534498,-2.444043903022477,7.930184118823525,-6.559514735248298
5.876009375892147,1.61445583833081,6.083733293504273,-2.50963905037496,7.373291853744015,-5.810631563213441
5.892153934275455,1.6881887568682503,6.058636903000523,-2.5677453660070944,6.692995171026419,-4.890612286991933
5.909035821844137,1.7551187085785145,6.032959449340452,-2.6166514888770136,5.889511642324709,-3.7984065337168227
5.926587008929922,1.8140138250017617,6.006792934451682,-2.654635554214182,4.971938583609444,-2.5453114405362767
5.94472714717994,1.8637332108378561,5.98024657890954,-2.6800886686195446,3.959452264015955,-1.156706973606227
5.963364479288318,1.9033277334780156,5.953445692223345,-2.691655738355607,2.8810456217730085,0.32823535285802985
5.982397756623098,1.9321381896957457,5.926529134839789,-2.6883733848270266,1.773445481632541,1.8593787989948891
6.0017191385200555,1.949872644512071,5.899645400991519,-2.6697795968370777,0.6773383697537974,3.38081244448027
6.021217864965176,1.956646028209609,5.872947605023148,-2.635971472392275,-0.3673978983095783,4.837444283944897
6.040784325247272,1.9529720492265132,5.846587890299225,-2.587597029552826,-1.3263735999481048,6.18149313227818
6.0603140457395375,1.9397083132270323,5.8207119200036965,-2.5257820982300445,-2.1742000558565073,7.3773807004100185
6.079711128871808,1.9179663126684672,5.795454099021396,-2.4520082912259444,-2.896165531063201,8.404088346579076
6.0988907919984925,1.8890046573578352,5.770934016109137,-2.367967407760154,-3.488005423557384,9.254878577409322
6.117780838572071,1.8541246031222613,5.747254342031535,-2.2754186219860606,-3.954214135064231,9.934998174963079
6.136322084603294,1.814582461771619,5.724500155811675,-2.17606864023643,-4.305592828400838,10.45832275138607
6.15446790922101,1.7715265334876107,5.70273946940931,-2.0714854127225695,-4.556692964859183,10.843855179732154
6.172183174555886,1.7259596038390188,5.682024615282084,-1.9630468609252478,-4.723610165625277,11.112705846921424
6.189442770594276,1.678723502182766,5.662394146672832,-1.8519198024560335,-4.822340201495893,11.285846656100905
6.206230005616104,1.630500100167807,5.643874948648271,-1.7390613358950244,-4.86771757258298,11.382666239387204
6.222535006617782,1.5818229244419773,5.626484335289321,-1.6252346735011525,-4.872846603302252,11.42020145928825
6.238353235862201,1.5330944584089548,5.610231988554309,-1.5110326589082699,-4.848894529173693,11.412864885878193
6.253684180446291,1.4846055131172178,5.595121661965226,-1.396904010049488,-4.805120114885499,11.37249397033517
6.268530235577463,1.4365543119683628,5.581152621864732,-1.2831790703461363,-4.749036048637342,11.308582013649316
6.282895778697146,1.3890639514819894,5.56832083116127,-1.1700932502096433,-4.686632766458878,11.228591730318069
6.2967864182119655,1.3421976238174005,5.556619898659174,-1.0578073329064626,-4.622617321400709,11.138288019496818
6.3102083944501395,1.2959714506033935,5.54604182533011,-0.9464244527114943,-4.560640610899881,11.042053648673594
6.323168108956174,1.2503650444943946,5.5365775808029944,-0.8360039162247583,-4.503499757902148,10.943170037807262
6.335671759401118,1.2053300469153732,5.528217541640747,-0.7265722158466857,-4.453310907636962,10.844056891848265
6.347725059870271,1.1607969378390035,5.52095181948228,-0.6181316469282031,-4.411652567754943,10.746471036391704
6.359333029248661,1.116680412161454,5.514770503012999,-0.5106669365642861,-4.379682107403954,10.65166815830165
6.370499833370276,1.0728835910874144,5.509663833647356,-0.40415025498126955,-4.358229055888012,10.56053250369613
6.38122866928115,1.0293013005285343,5.505622331097544,-0.29854492994430826,-4.34786903041539,10.473679801776786
6.391521682286435,0.9858226102243804,5.502636881798101,-0.1938081319265404,-4.348981876374376,10.39153831477926
6.401379908388679,0.9423327914606366,5.500698800478836,-0.0898927487787478,-4.3617971647929235,10.314412292504269
6.410803236303286,0.8987148198127074,5.499799872991049,0.01325137414629489,-4.386429697447093,10.242531420882727
6.419790384501413,0.8548505228382365,5.499932386732512,0.11567668835512217,-4.422907192182218,10.176089194343822
6.428338889729795,0.8106214509164142,5.501089153616063,0.2174375802985604,-4.471191892004661,10.115272554549616
6.436445104238959,0.7659095319963676,5.503263529419049,0.31859030584405656,-4.531197471850342,10.060284636426704
6.4441041995589226,0.7205975572778641,5.506449432477489,0.4191931522083236,-4.602802305313338,10.011362043576149
6.4513101751317015,0.6745695342247308,5.510641363999572,0.5193067726440851,-4.685859892963247,9.968787728651638
6.458055870473949,0.6277109352950982,5.515834431726013,0.6189946499306015,-4.780207034739758,9.93290026662398
6.464332979826899,0.5799088649477007,5.522024378225319,0.7183236525968413,-4.885670141127015,9.904100065606727
6.470132068476376,0.5310521635364305,5.529207614751287,0.8173646532529085,-5.002069911216776,9.882852846776874
6.47544259011174,0.4810314644242627,5.537381261283816,0.9161931817206772,-5.129224450320864,9.869690527747318
6.480252904755982,0.42973921992105407,5.546543193101023,1.0148900869981503,-5.266950745331641,9.86520944823318
6.4845502969551925,0.3770697124677377,5.556692093971004,1.113542181480482,-5.4150642518323355,9.870065667885656
6.48832099407987,0.32291906994941433,5.567827515785809,1.2122428381593386,-5.573376161137368,9.88496682694122
6.491550184779364,0.26718530833804066,5.579949944167402,1.3110925064287509,-5.7416876942082595,9.910659771309062
6.494222037862745,0.20976843139595808,5.59306086923169,1.4101991041418416,-5.9197804962335345,9.94791278141836
6.496319722176704,0.15057062643362273,5.6071628602731085,1.5096782319560251,-6.107401860482421,9.99749077987175
6.497825428441041,0.08949660782879854,5.6222596425926685,1.6096531397547427,-6.30424306836883,10.060121291572095
6.498720394519329,0.02645417714511024,5.638356173990216,1.7102543526704637,-6.509908565204565,10.136448149148165
6.49898493629078,-0.038644908506935416,5.655458717516921,1.8116188341619452,-6.723872964206831,10.226968926949382
6.498598487205711,-0.10588363814900373,5.6735749058585405,1.9138885234314391,-6.945421949220304,10.331950795296487
6.497539650824221,-0.17533785764120677,5.692713791092855,2.017208031384404,-7.173571997564727,10.451317863536541
6.495786272247809,-0.24707357761685406,5.712885871406699,2.1217212100197695,-7.4069624536523655,10.584501097326985
6.49331553647164,-0.3211432021533777,5.734103083506897,2.2275662209930394,-7.643711879170296,10.730239579492668
6.490104104450107,-0.39758032094508067,5.756378745716827,2.334868616787966,-7.881228903466712,10.886319381030765
6.486128301240656,-0.4763926099797478,5.779727431884706,2.443731810598274,-8.115966285897173,11.049233997188598
6.481364375140859,-0.5575522728387196,5.804164749990689,2.55422415057016,-8.343106174385019,11.213748980202451
6.475788852412472,-0.6409833345825697,5.829706991496391,2.6663616403721844,-8.556165714599151,11.372354577920568
6.469379019066646,-0.7265449917285612,5.8563706079001125,2.78008518615139,-8.746517171119145,11.514596524281789
6.46211356914936,-0.8140101634397527,5.884171459761626,2.8952311513942077,-8.902828716033023,11.626290972452544
6.453973467514962,-0.903038450600083,5.913123771275568,3.011494061118733,-9.01045573479952,11.688661463928717
6.444943083008962,-0.9931430079480782,5.943238711886756,3.12838067575802,-9.050854154571557,11.677492553453458
6.435011652929481,-1.0836515494937937,5.974522518644336,3.245155601292555,-9.001153583853341,11.562485716645389
6.424175137434544,-1.173663085332327,6.006974074657261,3.3607804584590086,-8.834122372473976,11.307133582898478
6.41243850658122,-1.262004309057067,6.040581879241851,3.4738517942879934,-8.51887104379818,10.869587885762575
6.39981846349065,-1.3471930194950488,6.075320397184731,3.582547673145619,-8.0227414396557,10.205139216400154
6.3863465332957,-1.4274204338916059,6.111145873916187,3.684599065309621,-7.314840333096861,9.270948093599682
6.372072328956784,-1.5005688372225745,6.147991864569283,3.7773085462456177,-6.371473499529304,8.033394414918378
6.357066640584558,-1.5642835722178676,6.185764950031739,3.8576424903948014,-5.183181835873065,6.477654626358533
6.34142380486238,-1.6161153905765984,6.224341374935688,3.9224190366583866,-3.7621402428905455,4.617822312844266
6.325262650956614,-1.6537367930055038,6.2635655653022715,3.9685972597868293,-2.1476056863474917,2.5044056176475467
6.308725283026559,-1.6752128498689787,6.30325153790014,3.9936413159633046,-0.40654614149227886,0.2252652893930655
6.29197315452787,-1.6792783112839014,6.343187951059773,3.9958939688572355,1.3726356832785396,-2.102870373306294
6.275180371415031,-1.665551954451116,6.383146890748345,3.9748652651241727,3.0929737285443726,-4.351881495505305
6.258524851870519,-1.6346222171656721,6.422895543399587,3.9313464501691198,4.665038050046435,-6.404092814623897
6.242178629698863,-1.5879718366652078,6.462209007901278,3.867305522022881,6.0210844537019454,-8.17137135237101
6.2262989113322105,-1.5277609921281883,6.500882063121507,3.785591808499171,7.122891783702573,-9.605541779761847
6.211021301410929,-1.4565320742911625,6.5387379812064985,3.6895363907015524,7.961881194297178,-10.698261940950394
6.196455980668017,-1.3769132623481908,6.575633345113514,3.5825537712920483,8.553236674056604,-11.472783846288564
6.182686848044535,-1.2913808956076247,6.611458882826434,3.4678259328291627,8.927309637168054,-11.972132147882512
6.169773039088459,-1.2021077992359441,6.646137142154726,3.3481046113503377,9.121304339749438,-12.24779295585846
6.1577519610961,-1.1108947558384497,6.679618188268229,3.225626681791753,9.172959419381735,-12.351218556869824
6.146643013537715,-1.0191651616446322,6.711874455086146,3.102114496223055,9.116653326359385,-12.328683178938741
6.136451361921269,-0.9279986283810384,6.742895600048377,2.9788276644336675,8.981569213876012,-12.218951190289156
6.127171375637459,-0.8381829362422782,6.772683876692714,2.856638152530776,8.7912754984416,-12.052853892511788
6.1187895462750355,-0.7502701812578623,6.801250258218022,2.7361096136056577,8.564116669355505,-11.853938568545283
6.111286844462457,-0.6646290145643072,6.828611354354078,2.617570227920205,8.31397083076813,-11.639584605439175
6.104640554316814,-0.581489306256626,6.85478705663328,2.5011743818658134,8.051099236059692,-11.422216992978882
6.0988256612542475,-0.5009783138960291,6.879798800451939,2.3869522119360247,7.782942381333647,-11.210425547534642
6.093815878115287,-0.42314889008269263,6.903668322571299,2.274847956460678,7.514800822013679,-11.009911913939197
6.08958438921446,-0.34800088186255584,6.926416802135906,2.164748837321286,7.250386263999947,-10.824249876810764
6.086104380395835,-0.27549701922255637,6.948064290509119,2.056506338553178,6.992251847827201,-10.655475062066225
6.083349410203609,-0.20557450074428435,6.96862935389465,1.9499515879325158,6.742119784988427,-10.504531536356511
6.081293665196166,-0.1381533028944001,6.988128869773975,1.8449062725689507,6.501126288597107,-10.371604314282461
6.079912132167222,-0.07314204000842901,7.006577932499665,1.7411902294261261,6.270002073140045,-10.256363825350842
6.079180711767138,-0.010442019277028564,7.023989834793927,1.6386265911726177,6.049203777178395,-10.158143930477301
6.079076291574367,0.050050018494755384,7.040376100705653,1.5370451518678447,5.839008583360668,-10.076070555844703
6.079576791759314,0.10844010432836207,7.055746552224331,1.4362844463093978,5.6395815487109076,-10.009154036543823
6.080661192802598,0.16483591981547113,7.0701093966874256,1.3361929059439595,5.451022870183691,-9.956355011054487
6.082309552000753,0.21934614851730805,7.083471325746865,1.2366293558334145,5.273400498816764,-9.916631158839591
6.084503013485926,0.2720801535054757,7.0958376193051995,1.1374630442450187,5.1067721210157195,-9.888970128186491
6.08722381502098,0.3231478747156329,7.10721224974765,1.0385733429631538,4.951199470686662,-9.872412542872619
6.090455293768136,0.3726598694224995,7.117597983177281,0.9398492175344276,4.8067571470890105,-9.866067895159008
6.094181892462362,0.42072744089338965,7.126996475352625,0.8411885385828376,4.673537526999346,-9.86912533716163
6.0983891668712955,0.4674628161633831,7.135408360738453,0.7424972852112213,4.5516529248836495,-9.880860799512513
6.103063795032929,0.5129793454122196,7.142833333590565,0.6436886772160961,4.44123583135588,-9.900641438691197
6.108193588487051,0.5573917037257784,7.149270220362727,0.5446822628291842,4.3424378177152665,-9.92792809935703
6.113767505524309,0.6008160819029311,7.1547170429910185,0.4454029818356139,4.255427509624673,-9.962276242873898
6.1197756663433385,0.6433703569991779,7.159171072809374,0.3457802194068749,4.180387888389492,-10.003335613314983
6.12620936991333,0.6851742358830728,7.162628875003443,0.24574686327372508,4.117513060222312,-10.050848768589196
6.133061112272161,0.7263493664852959,7.1650863436361805,0.14523837558783312,4.067004531526371,-10.104648481898215
6.140324605937014,0.7670194118005597,7.166538727392059,0.04419189076885097,4.029066932583303,-10.164653904980769
6.147994800055019,0.8073100811263927,7.166980646299747,-0.05745464828095673,4.003903035029458,-10.23086526834078
6.156067900866283,0.8473491114766872,7.166406099816937,-0.15976330096436453,3.9917078023400197,-10.30335676404647
6.16454139198105,0.8872661895000874,7.164808466807294,-0.2627968686048292,3.9926610890078256,-10.382267102334982
6.173414053876051,0.9271928003901656,7.162180498121246,-0.36661953962817906,4.006918454001982,-10.46778704136325
6.182685981879953,0.9672619849301854,7.158514302724964,-0.4712974100418116,4.034599366634482,-10.560142944978981
6.1923586017292545,1.0076079785965302,7.153801328624546,-0.5768988394916014,4.075771845230776,-10.659575108289244
6.20243468151522,1.048365697048838,7.14803234022963,-0.6834945905744938,4.130432265488002,-10.766309183330248
