th1 (rad),w1 (rad/s),th2 (rad),w2 (rad/s)
5.134714493439849,1.9542620395407877,5.450149665818664,2.792055108873791
5.154257113835256,2.086793879116155,5.478070216907402,2.7267317815176417
5.175125052626417,2.2202711098983325,5.505337534722578,2.656984732379489
5.197327763725401,2.354501295462543,5.531907382046373,2.5827938705878117
5.220872776680026,2.489286233393227,5.557735320752251,2.504171258622571
5.245765639013959,2.624417400953858,5.582777033338476,2.421173939050284
5.272009813023497,2.7596703880078537,5.606988772728979,2.3339182678567916
5.299606516903576,2.89479807030577,5.630327955407547,2.242595970532031
5.328554497606634,3.0295222563618784,5.652753915112868,2.1474921344073556
5.3588497201702525,3.1635235552977203,5.674228836456941,2.0490052968248667
5.390484955723229,3.2964292803008366,5.69471888942519,1.9476696559329647
5.4234492485262376,3.427799349261406,5.71419558598452,1.8441791810806931
5.457727242018851,3.557110404516142,5.732637377795327,1.7394129848223565
5.493298346064013,3.6837387852369936,5.75003150764355,1.6344606857811714
5.530135733916383,3.8069435814588783,5.766376114501362,1.5306455979187668
5.568205169730972,3.9258517869410294,5.78168257048055,1.4295424212979293
5.607463687600383,4.039448503376809,5.795977994693529,1.3329847592148478
5.647858172634151,4.14657608875295,5.809307842285677,1.2430564676691265
5.68932393352168,4.245946807111335,5.8217384069623686,1.162059980840176
5.731783401592794,4.336173492223654,5.83335900677077,1.0924549974885869
5.775145136515031,4.415821459526215,5.844283556745657,1.0367630318505567
5.8193033511102925,4.483481961691033,5.854651187064162,0.9974379496001288
5.864138170727203,4.537862873156191,5.864625566560163,0.9767097197279759
5.909516799458765,4.577886761685416,5.874392663757443,0.976417075111662
5.955295667075619,4.602781702319225,5.88415683450856,0.9978521287446557
6.001323484098812,4.612148248853873,5.894135355796006,1.0416430380664954
6.04744496658735,4.605988563554701,5.904551786176671,1.107697034119295
6.093504852222897,4.584690879088423,5.915628756517864,1.1952153813606765
6.139351761013781,4.548972207552583,5.927580910331471,1.3027770484887697
6.184841483089307,4.4997911550603,5.940608680816359,1.428474037160911
6.22983939463991,4.438247795081641,5.954893421187968,1.5700730415868163
6.274221872590727,4.365487559224041,5.970594151603836,1.725177392282835
6.317876748182967,4.2826219461001935,5.987845925526664,1.8913688641579798
6.360702967643969,4.190672764436253,6.006759614168244,2.0663176876134535
6.402609695288332,4.090540870275032,6.027422791044379,2.2478576525371787
6.443515103991082,3.9829963135772855,6.049901367569751,2.4340294117522876
6.483345067126855,3.8686848166702705,6.074241661687274,2.6230983614917385
6.5220319152935575,3.7481451897168787,6.100472645302191,2.81355426671126
6.559513367190727,3.6218330031512007,6.128608187969304,3.004099007206386
6.595731697222239,3.4901469939991503,6.158649178041368,3.1936273032358735
6.63063316716223,3.3534558815566906,6.190585451073726,3.381203638143676
6.664167725977797,3.212124299661052,6.224397487455163,3.566037157744697
6.696288968974407,3.0665373462873267,6.26005785903261,3.7474552166114963
6.72695434243728,2.917123808986835,6.297532411198725,3.9248754689026017
6.756125580527149,2.7643784748854356,6.336781165887751,4.097775929187694
6.783769365276004,2.6088840996049103,6.377758925179628,4.265662219918125
6.809858206272053,2.451333591357431,6.420415547378809,4.428031266528347
6.834371542185627,2.2925527347914607,6.464695860044093,4.584331029543833
6.857297069533542,2.133523271931412,6.5105391703395314,4.733916552635397
6.878632302252855,1.9754052882788133,6.557878335865885,4.876003772115214
6.898386355135643,1.819556535173112,6.606638373587037,5.009624300271223
6.916581920487374,1.6675445264442408,6.656734616589749,5.1335868194408425
6.933257365751817,1.5211451090669268,6.708070484784158,5.246453660178792
6.948468816842486,1.3823191620141775,6.760535021385945,5.346544033923394
6.962292008462628,1.2531580201794374,6.814000461725179,5.4319770789755495
6.974823588664422,1.1357895278624128,6.868320232514934,5.500766521103317
6.986181483943046,1.0322418335846282,6.923327897725967,5.550972254876306
6.996503902278892,0.9442719599700433,6.97883762027473,5.580901337598838
7.005946621878593,0.8731795927098481,7.034646633650718,5.589333265555266
7.014678417805691,0.8196391871665665,7.090539966306271,5.575727518890143
7.022874809677357,0.7835888697026696,7.146297241495173,5.540363849180323
7.030710698374384,0.7642071935486979,7.201700879986976,5.484375000961856
7.038352770309871,0.759988484562437,7.256544629996595,5.409657700385619
7.045952655155495,0.768901471300624,7.310641207000452,5.318681326608732
7.053641669868501,0.7885952721969223,7.363828020266539,5.2142400526165
7.06152762259047,0.8166098980845752,7.415970420792704,5.099202632822097
7.069693721571316,0.8505558853308857,7.466962447120926,4.97630379578933
7.0781992804246245,0.8882434323945558,7.516725485078819,4.848000546660185
7.08708171474857,0.9277575636017754,7.565205490545421,4.716395983696962
7.096359290384588,0.9674870953404012,7.61236945038239,4.583219245625165
7.106034161337992,1.0061201907500834,7.658201642838642,4.449844433341385
7.116095363245493,1.0426194475256378,7.7027000871720555,4.317331774765661
7.126521557720749,1.0761870114987826,7.745873404919712,4.186477905796926
7.137283427835737,1.1062269999816237,7.787738183977682,4.0578665097426185
7.148345697835553,1.1323096259740901,7.828316849075108,3.9319143505517062
7.159668794095293,1.1541392474576417,7.867635992580625,3.8089104845423036
7.17121018656987,1.1715271421253686,7.905725097426048,3.689048174039121
7.182925457991124,1.1843689773050832,7.942615579166439,3.572449985424335
7.194769147764175,1.1926265254668367,7.978340079020683,3.4591869897301017
7.206695413018844,1.1963130127466073,8.012931948917984,3.349293105089679
7.21865854314631,1.1954814695799232,8.046424879968882,3.2427755733713566
7.230613357842109,1.190215506196043,8.078852635702596,3.139622440238825
7.2425155129040695,1.180622018028751,8.110248860104985,3.039807761652937
7.254321733084357,1.1668254132976834,8.140646937721515,2.943295117964212
7.265989987217334,1.1489630354541924,8.170079888901157,2.850039891531902
7.277479617571876,1.127181522201119,8.198580287816476,2.7599906590912537
7.288751432793887,1.1016338994613832,8.22618019440739,2.6730899654479674
7.299767771788501,1.0724772538734775,8.252911094061869,2.5892746782032416
7.310492544327236,1.0398708627483724,8.278803840843901,2.508476071215031
7.32089125295472,1.0039746877044076,8.303888601556052,2.4306197445462345
7.3309309998317636,0.9649481590594979,8.328194799001514,2.3556254582323466
7.340580481422359,0.922949193930607,8.351751053583838,2.2834069342251087
7.349809973361665,0.8781334030430158,8.374585122926089,2.2138716636421605
7.3585913073920945,0.830653450422648,8.39672383956251,2.1469207436361204
7.366897841896321,0.7806585371637074,8.418193046998871,2.0824487587439844
7.374704427267958,0.7282939858906977,8.439017534586311,2.0203437146796164
7.381987367126865,0.6737009067912818,8.459220971733107,1.9604870275650463
7.388724376194778,0.6170159294995556,8.478825842008757,1.9027535680822942
7.394894535489774,0.5583709878901931,8.49785337768958,1.847011757601078
7.400478245368676,0.49789314717100547,8.51632349526559,1.793123711720744
7.405457176840386,0.4357044646552419,8.534254732382797,1.740945425646252
7.409814221486939,0.371921877340087,8.55166418663926,1.6903269952395863
7.4135334402603394,0.3066571109724596,8.568567456591655,1.6411128673318327
7.416600011370064,0.2400166066863369,8.584978585264974,1.593142112861515
7.419000177436927,0.1721014625726149,8.600910006393589,1.5462487165606102
7.420721192062653,0.10300738870863287,8.616372493559195,1.5002618771993157
7.42175126594974,0.032824675239257126,8.631375112331188,1.4550063127974957
7.422079512702132,-0.03836182592974839,8.645925175459164,1.410302565699458
7.421695894442835,-0.1104727043891072,8.660028201116159,1.3659673029824853
7.420591167398944,-0.1834339772109309,8.673687874145983,1.3218136083274186
7.418756827626835,-0.25717705473861546,8.686906010229258,1.2776512622245262
7.416185057079448,-0.3316386826429808,8.699682522851504,1.233287008224937
7.412868670253019,-0.40676085616736884,8.712015392933752,1.1885248038828307
7.408801061691345,-0.48249070201667044,8.72390064097258,1.143166056071557
7.403976154671178,-0.5587803229399201,8.735332301533296,1.0970098415016796
7.398388351441779,-0.6355865997036488,8.746302399948313,1.049853114522131
7.392032485444743,-0.7128709448434797,8.756800931093535,1.0014909056460042
7.384903775996308,-0.7905990023044784,8.766815840149995,0.9517165157054469
7.376997785973263,-0.8687402868275778,8.77633300530705,0.9003217120975454
7.368310383104987,-0.9472677567031677,8.785336222428025,0.8470969352226513
7.3588377055379555,-1.0261573132902406,8.793807191780251,0.7918315249215195
7.348576132405053,-1.1053872204915138,8.801725507029467,0.7343139784657331
7.337522260200138,-1.1849374371889783,8.809068646814124,0.6743322534189933
7.325672885828248,-1.2647888554949842,8.815811969348314,0.6116741304295041
7.313024997273298,-1.3449224375846234,8.821928710652609,0.546127652691821
7.299575772897452,-1.4253182438790466,8.827389987179528,0.4774816603758951
7.285322590458661,-1.5059543454906072,8.832164803783286,0.40552643969533086
7.2702630470037555,-1.5868056141750386,8.83622006818024,0.33005450739592246
7.254394990862005,-1.6678423836307787,8.839520613254198,0.25086155219367084
7.237716567025697,-1.7490289769200449,8.842029228776134,0.1677475549661877
7.220226277256497,-1.8303220961496518,8.843706704325797,0.08051810917286448
7.2019230562950005,-1.9116690724394243,8.844511885417525,-0.011014038099056975
7.182806365570606,-1.9930059767247719,8.844401745036535,-0.10702720605417632
7.162876305803358,-2.0742555951900314,8.843331472975994,-0.20768874573622126
7.1421337498514585,-2.1553252772065905,8.841254585518632,-0.31315274019009465
7.120580497079392,-2.2361046686360253,8.83812305811673,-0.42355743397319556
7.098219450393032,-2.3164633493104505,8.833887483776998,-0.5390223940667425
7.075054816899927,-2.3962484004410403,8.82849725983633,-0.6596454132336871
7.051092332895516,-2.4752819356039932,8.821900805703994,-0.7854991776014795
7.026339513539476,-2.553358637723109,8.81404581392798,-0.9166277326969627
7.0008059271622445,-2.630243353949222,8.80487953660101,-1.053042796214165
6.974503493622752,-2.70566881028698,8.794349108638869,-1.194719981229003
6.947446805519882,-2.7793335179096466,8.782401908826579,-1.3415950100389624
6.919653470340785,-2.850899952916269,8.768985958726189,-1.4935600158229296
6.891144470811622,-2.919993100324589,8.754050358567959,-1.6504600462855696
6.861944539808376,-2.9861994607904605,8.737545758105103,-1.8120898996653372
6.832082545200471,-3.0490666242819255,8.71942485910845,-1.9781914381619634
6.801591878957652,-3.1081035180650067,8.69964294472683,-2.148451536156228
6.770510843777002,-3.1627814362208753,8.678158429365268,-2.322500829734114
6.738883029414793,-3.212535953859205,8.654933421067927,-2.4999134392144877
6.7067576698762,-3.256769820583302,8.629934286675782,-2.6802078369106073
6.674189971670367,-3.2948569139727404,8.603132208306675,-2.862849027606247
6.64124140253064,-3.3261473142504565,8.574503718030613,-3.0472521986350314
6.607979929388136,-3.3499735352486293,8.544031196044262,-3.23278797947995
6.574480194035649,-3.3656579136172855,8.511703316249463,-3.418789426900945
6.540823614899477,-3.3725211172791862,8.477515421980453,-3.604560820140805
6.507098403726685,-3.369891684871393,8.441469813779044,-3.7893883111057707
6.473399486877971,-3.3571164500410537,8.403575930667985,-3.9725524259866236
6.4398283223775605,-3.3335716382152847,8.363850406408119,-4.153342357288239
6.406492605995408,-3.2986743499326727,8.322316982835236,-4.331071919028344
6.373505862496081,-3.251894066321154,8.279006263644952,-4.50509696442858
6.34098692183287,-3.1927637326960685,8.233955294000666,-4.674833987877932
6.309059284505909,-3.120889901110557,8.187206954121887,-4.83977955653381
6.277850385494803,-3.035961349191946,8.13880915855655,-4.9995301492316475
6.247490772002884,-2.9377555489936777,8.088813857064233,-5.153801931223852
6.218113216512947,-2.826142344234252,8.037275837751995,-5.302449974088474
6.189851793070605,-2.7010842142413254,7.98425133801111,-5.445486452781187
6.162840950928191,-2.562632562301763,7.929796473483298,-5.583097426864731
6.137214625305174,-2.410919564577199,7.873965499214651,-5.715657947928187
6.113105429659402,-2.2461452473528882,7.81680891973537,-5.843745432669914
6.090643977185874,-2.06855961352096,7.75837146540867,-5.968151497339105
6.069958381050664,-1.8784397977670884,7.698689950435279,-6.089892753471797
6.051173983072993,-1.676062376313363,7.6377910229005606,-6.210221399112292
6.03441335930986,-1.461671077105808,7.575688808909438,-6.33063677814742
6.019796648538802,-1.2354402269526081,7.512382441127963,-6.452899386673266
6.007442246269275,-0.9974343531340015,7.44785344726123,-6.579049024439376
5.997467902737935,-0.7475644906281955,7.382062957016837,-6.711428827564615
5.989992257831654,-0.4855420720226254,7.314948668741191,-6.85271659936727
5.985136837111428,-0.21083207959457495,7.246421502747518,-7.005963829139707
5.983028516315482,0.07739102155797684,7.176361864456121,-7.174640346674656
5.983802426531062,0.38027707640025654,7.104615460989375,-7.362677272926677
5.987605197295064,0.6993080117870247,7.030988688260107,-7.5744899222248785
5.994598277412934,1.0362471459071232,6.9552437890378584,-7.814939905515011
6.004960748872006,1.3929645900398422,6.877094389982708,-8.089150953479814
6.018890394772404,1.771009983601824,6.79620288044791,-8.402006196416036
6.036600494608423,2.170688889184132,6.7121828184837495,-8.756995166569874
6.058307383500264,2.589214699790772,6.624612866818051,-9.153818732248634
6.0841995304981715,3.0173006114961844,6.533074679495565,-9.583857616692256
6.114372536613133,3.4336541184526697,6.437236103328642,-10.022707954113217
6.14870907779766,3.7983338936959865,6.33700902378751,-10.420989992358757
6.18669241673462,4.050756928700159,6.232799123863923,-10.701229764484282
6.227199986021621,4.124887971038447,6.1257868262190796,-10.77790906851076
6.268448865732005,3.987243473798192,6.018007735533972,-10.608384753155454
6.308321300469987,3.667794398210258,5.911923888002418,-10.233817065028099
6.344999244452089,3.2413633113185676,5.809585717352137,-9.752958175532317
6.377412877565275,2.779606762184343,5.712056135596814,-9.257520317686797
6.405208945187119,2.3258322295761564,5.619480932419946,-8.799863368970284
6.428467267482881,1.8983748171526549,5.531482298730243,-8.399069696695891
6.447451015654408,1.5016601874523952,5.447491601763284,-8.056447415072876
6.462467617528931,1.1341408537130386,5.366927127612556,-7.766196114975147
6.4738090260660615,0.7923319759960048,5.289265166462804,-7.520612503474072
6.481732345826021,0.47254080524125613,5.214059041428063,-7.312184794994599
6.486457753878434,0.1715047745106687,5.140937193478117,-7.13426919695063
6.4881728016235405,-0.11343405218226871,5.069594501508611,-6.9811963717040655
6.487038461101718,-0.3843350881464854,4.99978253779157,-6.848178219277215
6.483195110220253,-0.6427265746607582,4.931300755598798,-6.731164584698696
6.476767844473645,-0.8896867082964642,4.863989109751811,-6.626705425812433
6.467870977390681,-1.1259213446414866,4.797722055493687,-6.531835753918211
6.456611763944266,-1.3518333475768565,4.732403697954505,-6.443985905637269
6.4430934304684975,-1.5675832931010731,4.667963838898133,-6.360914522483096
6.427417597537486,-1.773142701691471,4.604354693673302,-6.280660198827154
6.409686170520572,-1.9683411644071036,4.54154809168503,-6.201507730740845
6.3900027588765,-2.1529084550517306,4.479533014377622,-6.121965312716064
6.368473674325983,-2.3265123279894238,4.418313361250461,-6.040749535655244
6.345208551046089,-2.4887923340436515,4.357905865893908,-5.956775527548381
6.3203206277056525,-2.6393897046452204,4.298338110618425,-5.86915002901666
6.293926730659201,-2.7779731772462126,4.239646610328259,-5.777165618684577
6.266146998886739,-2.904260563186474,4.181874954141413,-5.680294709521858
6.2371043932548735,-3.018035880715133,4.125072007046194,-5.578182330784012
6.206924034447722,-3.119161970526498,4.069290183738354,-5.47063708569676
6.175732414742457,-3.2075886536276843,4.014583812881386,-5.357620020259709
6.14365652820618,-3.283356654406462,3.961007612678789,-5.239231438045583
6.110822961662116,-3.3465976697361657,3.9086152982983333,-5.115695935312156
6.077356984964754,-3.397531096749748,3.8574583389452117,-4.987346100434965
6.043381673997256,-3.436458023196352,3.807584877940862,-4.8546054187023975
6.0090170937652925,-3.4637531283862164,3.759038823753838,-4.717970952254366
5.97437956248143,-3.4798551402378473,3.711859114231294,-4.577996336006278
5.939581011079052,-3.4852564512989095,3.6660791508712314,-4.435275558576135
5.904728446566063,-3.4804924240014175,3.62172639528547,-4.290427898978897
5.869923522326048,-3.466130824541183,3.578822116295681,-4.144084280897179
5.835262214080636,-3.442761726930947,3.537381273486709,-3.9968751998575707
5.800834596811327,-3.4109881334351915,3.4974125214881333,-3.849420284206867
5.7667247154769745,-3.3714174716366276,3.458918318646065,-3.7023194740738514
5.733010540760608,-3.324654055933391,3.421895123905326,-3.5561457456566496
5.699764000201274,-3.2712925439535723,3.3863336664487598,-3.4114392705297654
5.667051074761738,-3.211912375875638,3.352219273743462,-3.268702878669535
5.634931951002981,-3.14707315531661,3.3195322449567666,-3.1283986860118573
5.603461219449815,-3.0773109119428894,3.288248258096648,-2.990945748798953
5.572688110330386,-3.003135175713658,3.258338800608658,-2.856718614258299
5.54265675857325,-2.92502678828071,3.2297716144660753,-2.726046647425088
5.513406490690443,-2.843436376509611,3.2025111479918245,-2.599214025065634
5.484972126925347,-2.7587834147892942,3.176519007741168,-2.476460298327839
5.457384292777454,-2.6714558056624087,3.15175440475789,-2.3579814352267903
5.43066973472083,-2.5818099116497515,3.1281745904056217,-2.243931262154639
5.404851635604333,-2.49017097459463,3.1057352777840754,-2.1344232304025645
5.379949925858386,-2.3968338622803653,3.0843910454800496,-2.02953243950111
5.355981587235583,-2.3020640854785603,3.0640957210850384,-1.9292978543890242
5.332960946380797,-2.206099032036306,3.044802742541148,-1.8337246583524702
5.3108999560604335,-2.1091493681905,3.0264654959576234,-1.742786688603027
5.289808462378528,-2.0114005610710564,3.0090376290715932,-1.6564289064524815
5.269694456767818,-1.9130144803506024,2.992473340007068,-1.5745698593630315
5.250564311964312,-1.814131041205164,2.976727641413438,-1.4971040976851469
5.23242300155226,-1.7148698551224137,2.9617566004365865,-1.4239045145597755
5.215274303001037,-1.6153318595598924,2.9475175552909887,-1.3548245831352335
5.199120984405438,-1.5156009019297154,2.9339693094596364,-1.2897004707943953
5.18396497538614,-1.4157452577797816,2.9210723047516924,-1.2283530153706506
5.169807522808343,-1.3158190672713415,2.908788774597986,-1.1705895532354853
5.156649332135629,-1.215863678048116,2.897082879065631,-1.116205593577714
5.144490695355148,-1.1159088862985191,2.885920823129854,-1.0649863371072597
5.133331606492162,-1.0159740711934377,2.8752709597587813,-1.0167080407801243
5.123171865780228,-0.9160692209187873,2.86510387935098,-0.9711392329608811
5.11401117357104,-0.8161958512122514,2.8553924870213714,-0.9280417857454639
5.105849215058917,-0.7163478196686697,2.8461120691639166,-0.8871718530115756
5.0986857368622305,-0.6165120411208996,2.8372403506338006,-0.8482806842131798
5.092520616451021,-0.5166691111632354,2.828757543791669,-0.8111153250656655
5.087353925339389,-0.41679384639859784,2.8206463905410124,-0.7754192171610055
5.083185986875403,-0.3168557512976158,2.8128921983694024,-0.7409327092903868
5.080017429362427,-0.216819422697123,2.8054828712764985,-0.7073934939161087
5.077849235135456,-0.11664490397618063,2.7984089363373372,-0.6745369829009232
