th1 (rad),w1 (rad/s),th2 (rad),w2 (rad/s),a1 (rad/s^2),a2 (rad/s^2)
0.9077639559629185,-0.5208911955966326,0.6076597726583113,1.8271498551180028,-10.26831216107065,4.29429913836862
0.9025550440069522,-0.623574317207339,0.6259312712094913,1.870092846501689,-10.160626515385838,4.139195135178637
0.8963193008348788,-0.7251805823611974,0.6446321996745082,1.9114847978534755,-10.020245249348177,3.9466458336325507
0.8890674950112668,-0.8253830348546792,0.663747047653043,1.950951256189801,-9.8416769589811,3.707597935313816
0.88081366466272,-0.9237998044444903,0.6832565602149411,1.9880272355429391,-9.619420841048667,3.4128605955054288
0.8715756666182751,-1.019994012854977,0.7031368325703705,2.022155841497993,-9.348339472474724,3.0536388637652014
0.8613757264897254,-1.1134774075797242,0.7233583909853505,2.052692230135645,-9.024140491959797,2.6222260359755114
0.8502409524139282,-1.203718812499322,0.7438853132867069,2.0789144904954004,-8.643945701900288,2.1128265817043443
0.838203764288935,-1.290158269518325,0.7646744581916609,2.100042756312444,-8.206897916045381,1.522441467997944
0.8253021815937517,-1.3722272486787788,0.7856748857547854,2.1152671709924236,-7.714725046388765,0.8517037296206493
0.8115799091069639,-1.4493744991426665,0.8068275574647096,2.12378420828863,-7.172156075926579,0.10551608464618469
0.7970861641155372,-1.5210960599019323,0.8280653995475958,2.124839369135092,-6.587076281308941,-0.7066694245019657
0.781875203516518,-1.5869668227150218,0.8493137932389467,2.1177726748900723,-5.970330072899044,-1.5710620993328794
0.7660055352893678,-1.6466701234440122,0.8704915199878475,2.1020620538967436,-5.335133142898057,-2.470292662897268
0.7495388340549276,-1.7000214548729928,0.8915121405268149,2.077359127267771,-4.69613338378263,-3.3846736408982077
0.7325386195061977,-1.7469827887108191,0.9122857317994927,2.0435123908587887,-4.068241751663193,-4.293796143161799
0.7150687916190895,-1.787665206227451,0.9327208557080806,2.0005744294271706,-3.465413016853267,-5.178215323621847
0.697192139556815,-1.8223193363959835,0.9527266000023523,1.9487922761909522,-2.899570456202784,-6.02095461726414
0.6789689461928552,-1.8513150409580115,0.9722145227642618,1.8885827300183107,-2.3798322096870144,-6.808606958710133
0.6604557957832751,-1.8751133630548815,0.9911003500644449,1.8204966604312094,-1.9121235744195928,-7.531911564117735
0.6417046621527263,-1.8942345987990774,1.009305316668757,1.745177544790032,-1.4991747885001503,-8.185801846035558
0.6227623161647354,-1.9092263466840789,1.026757092116657,1.6633195263296763,-1.1408340231638165,-8.769017254069437
0.6036700526978946,-1.920634686915717,1.0433902873799539,1.5756293537889818,-0.8345863502465087,-9.283426828856955
0.5844637058287375,-1.928980550418182,1.0591465809178437,1.4827950855004124,-0.5761635696220989,-9.73322165819647
0.5651739003245557,-1.934742186114403,1.073974531772848,1.3854628689184476,-0.3601485551251674,-10.124108616551778
0.5458264784634117,-1.9383436716656546,1.0878291604620325,1.2842217827529299,-0.18050860245845748,-10.462596048831607
0.5264430417467552,-1.9401487576902392,1.1006713782895619,1.1795958222646137,-0.03102395818094322,-10.75541884845371
0.5070415541698527,-1.9404589972720487,1.112467336512208,1.0720416337800767,0.09439666813336468,-11.009115302660346
0.48763696419713226,-1.9395150305907152,1.1231877528500087,0.9619504807534732,0.20150481449790925,-11.22974472601793
0.4682418138912251,-1.9374999824457362,1.1328072576575434,0.8496530334932939,0.29558753062675364,-11.422722625924383
0.44886681406676776,-1.9345441071394687,1.1413037879924763,0.73542580723405,0.38140877023022407,-11.592746234767938
0.4295213729953731,-1.9307300194371664,1.1486580460648168,0.6194983448863707,0.46319757064338424,-11.743784595168357
0.4102140728010014,-1.9260980437307325,1.1548530295136805,0.5020604989346871,0.5446666967753409,-11.879111391104091
0.3909530923636941,-1.9206513767629791,1.1598736345030274,0.38326938502364616,0.6290490556460938,-12.001363570037359
0.3717465785960643,-1.9143608862065182,1.1637063283532638,0.26325574932327256,0.7191426532854881,-12.112613437659114
0.3526029697339991,-1.9071694596736632,1.1663388858464965,0.14212961494668142,0.8173578003942672,-12.214445823844276
0.3335312751372625,-1.8989958816697206,1.1677601819959633,0.019985156708238652,0.9257625698905326,-12.308034967845872
0.3145413163205653,-1.8897382559708151,1.1679600335630458,-0.10309519297022007,1.0461242032776938,-12.39421799903812
0.2956439337608572,-1.8792770139380381,1.1669290816333435,-0.22703737296060128,1.1799453509298796,-12.473563428448418
0.27685116362147677,-1.8674775604287392,1.1646587079037376,-0.3517730072450855,1.328494826364046,-12.546434068920899
0.2581763880171894,-1.854192612165099,1.1611409778312867,-0.4772373479342945,1.4928330600691786,-12.613044409643342
0.23963446189553841,-1.8392642815644071,1.1563686043519437,-0.6033677920307279,1.6738327398263018,-12.673512801080747
0.22124181907989435,-1.822525954166144,1.1503349264316365,-0.7301029200415353,1.8721952868833167,-12.727908949410029
0.20301655953823292,-1.8038040012973109,1.143033897231221,-0.8573820095356356,2.088463887897587,-12.776297241547882
0.18497851952525982,-1.782919362418335,1.1344600771358646,-0.9851449819511144,2.3230338134263926,-12.81877636936862
0.16714932590107645,-1.759689024284071,1.1246086273163534,-1.1133327456448006,2.5761607256643146,-12.855515626175219
0.14955243565823573,-1.733927417027428,1.1134752998599053,-1.2418879019065527,2.847967623282252,-12.886788130113182
0.13221316148796144,-1.7054477407946054,1.1010564208408398,-1.3707557832076847,3.138450995526732,-12.913001099879665
0.1151586840800154,-1.674063230839338,1.0873488630087629,-1.4998857942064814,3.447486662454109,-12.934723173338405
0.09841805177162202,-1.6395883642147968,1.072350005066698,-1.6292330259398655,3.774835660958217,-12.95270861991911
0.08202216812947405,-1.6018400076052146,1.0560576748072994,-1.7587601121390566,4.120150391665675,-12.967918148654956
0.0660037680534219,-1.560638503688558,1.038470073685909,-1.888439293625606,4.482981061321495,-12.981535846118305
0.05039738301653632,-1.515808693075343,1.0195856807496528,-2.0182546520867892,4.862782226949901,-12.994981577174597
0.035239296085782884,-1.467180870805844,0.9994031342287849,-2.1482044678585352,5.258918955316982,-13.009917923642341
0.020567487377724444,-1.4145916812526742,0.9779210895501995,-2.2783036470949587,5.670671731365588,-13.028250388784752
0.006421570565197703,-1.3578849639390183,0.9551380530792499,-2.4085861509828064,6.097238751115055,-13.052119112553536
-0.007157279074192481,-1.2969125764278677,0.9310521915694219,-2.5391073421083417,6.537733574899954,-13.083879658574395
-0.02012640483847116,-1.2315352406788682,0.9056611181483385,-2.6699461386940855,6.991175236296454,-13.126069458884855
-0.03244175724525984,-1.1616234883159038,0.8789616567613976,-2.801206833282934,7.456466719240839,-13.181355113057439
-0.04405799212841888,-1.0870588211234953,0.8509495884285683,-2.933020384413508,7.932356120889726,-13.25245376834308
-0.05492858033965383,-1.0077352599145981,0.8216193845844332,-3.065544922096939,8.41737266638342,-13.342019037977888
-0.0650059329387998,-0.923561533250764,0.7909639353634638,-3.1989651124767176,8.909726852058965,-13.452478068021355
-0.07424154827130744,-0.8344642647301743,0.7589742842386966,-3.3334898931569312,9.407160153393644,-13.585801108148114
-0.08258619091860918,-0.7403926631962379,0.7256393853071273,-3.4693479042384125,9.906724730365164,-13.743177930905725
-0.08999011755057156,-0.6413254158925862,0.6909459062647432,-3.6067796835474697,10.404467264190187,-13.92456641576936
-0.09640337170949742,-0.5372807432506843,0.6548781094292685,-3.7460253477051633,10.894983597831294,-14.128067634890517
-0.10177617914200426,-0.4283309072723714,0.6174178559522169,-3.8873060240540687,11.370803001613949,-14.349069745324272
-0.10605948821472798,-0.3146228772562319,0.5785447957116762,-4.030796721507311,11.821554782422961,-14.579092621661415
-0.1092057169872903,-0.1964073294320023,0.538236828496603,-4.176587647723926,12.232870396597374,-14.804262762289223
-0.11116979028161032,-0.07407862546602854,0.49647095201936375,-4.324630275346818,12.584990791169387,-15.003366428265169
-0.11191057653627061,0.051771282445665326,0.45322464926589556,-4.47466393962947,12.851098779384214,-15.145491908105269
-0.11139286371181395,0.1802822702395075,0.40847800986960087,-4.626118858710522,12.995508272060986,-15.187418412395546
-0.10959004100941888,0.31023735296011734,0.36221682128249566,-4.777993042834478,12.972055883404437,-15.071194935262325
-0.10648766747981771,0.4399579117941617,0.3144368908541509,-4.928704992187101,12.723396065652423,-14.722835257847748
-0.10208808836187609,0.5671918724506859,0.2651498409322799,-5.075933344765579,12.182400883350303,-14.053743182238305
-0.09641616963736924,0.6890158812841889,0.2143905074846241,-5.216470776587962,11.277386694338379,-12.96721323602143
-0.08952601082452735,0.8017897482275727,0.16222579971874448,-5.346142908948177,9.943046739034171,-11.372604835220171
-0.08150811334225162,0.9012202156179143,0.10876437062926272,-5.459868957300379,8.138023141396921,-9.208552767565257
-0.07249591118607249,0.9826004470318835,0.054165681056258935,-5.551954484976031,5.867163370886998,-6.472691985867023
-0.06266990671575365,1.0412720807407536,-0.0013538637935013795,-5.616681404834702,3.2017084681334067,-3.2488639482289283
-0.05225718590834611,1.0732891654220877,-0.057520677841848396,-5.649170044316991,0.2863459118253548,0.28311315145768534
-0.04152429425412523,1.0761526245403412,-0.11401237828501831,-5.646338912802414,-2.6769253899269194,3.8686729983901613
-0.030762768008721818,1.049383370641072,-0.17047576741304246,-5.607652182818512,-5.468438405305317,7.231088786646399
-0.020268934302311095,0.9946989865880188,-0.22655228924122758,-5.535341294952048,-7.900079285656163,10.13651553375788
-0.010321944436430907,0.9156981937314572,-0.28190570219074806,-5.43397613961447,-9.852794259785252,12.442825989765426
-0.0011649624991163336,0.8171702511336048,-0.3362454635868928,-5.309547879716815,-11.288066602852135,14.11332213296484
0.007006740012219714,0.7042895851050834,-0.3893409423840609,-5.168414658387166,-12.234503881046464,15.197412742507229
0.014049635863270548,0.5819445462946188,-0.4410250889679326,-5.016440530962094,-12.761825951347998,15.795176167212421
0.019869081326216738,0.4543262867811388,-0.49118949427755354,-4.85848876928997,-12.955286375216982,16.023326056606322
0.024412344194028126,0.32477342302896894,-0.5397743819704532,-4.698255508723907,-12.897670535980243,15.991876208772585
0.027660078424317815,0.1957967176691665,-0.5867569370576923,-4.5383367466361815,-12.659909158760307,15.792534800049587
0.02961804560100948,0.06919762608156343,-0.6321403045240541,-4.380411398635686,-12.298138537333475,15.495656785888476
0.030310021861825114,-0.053783759291771316,-0.675944418510411,-4.225454830776801,-11.854448126208306,15.151934790810389
0.0297721842689074,-0.17232824055385437,-0.718198966818179,-4.0739354828686976,-11.359204104606647,14.795983569104665
0.028048901863368857,-0.28592028159992083,-0.7589383216468659,-3.925975647177651,-10.833701577163595,14.45018394765033
0.02518969904736965,-0.3942572973715568,-0.7981980781186424,-3.7814738077011474,-10.292555472105615,14.12804743279071
0.02124712607365408,-0.4971828520926129,-0.8360128161956539,-3.64019333337324,-9.745630724181574,13.8368808775186
0.01627529755272795,-0.5946391593344287,-0.8724147495293864,-3.501824524598054,-9.199504964021434,13.579777253443206
0.010328905959383666,-0.686634208974643,-0.9074329947753669,-3.366026752063622,-8.658532986541033,13.357049083222256
0.0034625638696372356,-0.7732195388400533,-0.9410932622960031,-3.232456261231399,-8.125599801450184,13.167235558456058
-0.004269631518763298,-0.8544755368545551,-0.9734178249083171,-3.1007839056468387,-7.602641762849799,13.007798202593733
-0.012814386887308848,-0.9305019544830531,-1.0044256639647855,-2.9707059236209012,-7.091000138195633,12.875595460685854
-0.02211940643213938,-1.0014119558650094,-1.0341327232009945,-2.841949969014043,-6.591656016942762,12.76720326830296
-0.032133525990789474,-1.067328516034437,-1.0625522228911348,-2.714277936331013,-6.105382388336645,12.679129593454821
-0.04280681115113384,-1.1283823399178035,-1.089695002254445,-2.587486640396465,-5.63283908125461,12.607956512761726
-0.05409063455031188,-1.1847107307303495,-1.1155698686584097,-2.4614070752688475,-5.174628757216041,12.550432919856313
-0.06593774185761538,-1.2364570183025099,-1.1401839394110982,-2.3359027460702846,-4.73132674317093,12.503533583737811
-0.07830231204064048,-1.2837702857342193,-1.1635429668718011,-2.2108674102329067,-4.303493656006957,12.464495165199951
-0.09114001489798267,-1.3268052222942888,-1.1856516409741302,-2.0862224585809073,-3.891677070440257,12.430836310263983
-0.10440806712092555,-1.3657219929986912,-1.2065138655599392,-1.9619140954782675,-3.49640658439797,12.400366583707632
-0.11806528705091246,-1.4006860588426708,-1.2261330065147218,-1.8379104296411912,-3.1181852996062327,12.371187431706545
-0.13207214763933917,-1.4318679118387332,-1.2445121108111337,-1.7141985553241257,-2.757479788684657,12.341687321975979
-0.1463908267577265,-1.4594427097255798,-1.261654096364375,-1.5907816821043659,-2.4147099444057827,12.310532529513768
-0.1609852538549823,-1.4835898091696376,-1.2775619131854186,-1.4676763568092281,-2.090239619805585,12.27665459639538
-0.1758211519466787,-1.5044922053676935,-1.2922386767535108,-1.3449098108452744,-1.7843686133549947,12.239235212718839
-0.19086607400035563,-1.5223358915012435,-1.3056877748619635,-1.222517458718086,-1.4973262930733708,12.19768908635093
-0.20608943291536808,-1.5373091544319772,-1.3179129494491444,-1.1005405678545768,-1.2292669610355202,12.151645253163258
-0.22146252445968784,-1.5496018240423324,-1.3289183551276902,-0.9790241153229442,-0.9802669170691718,12.100927200974251
-0.23695854270011116,-1.559404493213024,-1.3387085962809195,-0.8580148433132017,-0.750323074828748,12.045532122038386
-0.2525525876322414,-1.5669077239613114,-1.3472887447140516,-0.7375595220928178,-0.5393529056750379,11.985609559196702
-0.26822166487185456,-1.5723012530180618,-1.3546643399349798,-0.6177034265008509,-0.34719542900267897,11.921439662359546
-0.28394467740203516,-1.5757732073080886,-1.3608413741999883,-0.4984890298772554,-0.17361292643577078,11.853411220246757
-0.29970240947511606,-1.5775093365724462,-1.3658262644987609,-0.37995491767478784,-0.018293027208596758,11.78199957452375
-0.31547750284084053,-1.5776922668445321,-1.3696258136755088,-0.26213492192955035,0.11914921075970389,11.707744458089234
-0.33125442550928585,-1.576500774736935,-1.3722471628948043,-0.145057477348658,0.23916961849164234,11.631227725454634
-0.3470194332566552,-1.5741090785520186,-1.3736977376682908,-0.02874520009411166,0.34229404472480474,11.5530508604737
-0.36276052404217535,-1.5706861381047705,-1.3739851896692319,0.08678530851062534,0.4291187281975758,11.473812054926585
-0.37846738542322306,-1.5663949508227948,-1.3731173365841256,0.20152342905989118,0.5003123699314578,11.394082550609395
-0.394131334931451,-1.5613918271234801,-1.3711021022935266,0.31546425456598515,0.5566203920985073,11.31438182788663
-0.40974525320268584,-1.555825623202495,-1.3679474597478667,0.4286080728448515,0.5988719071270182,11.235151105965889
-0.4253035094347108,-1.5498369041312248,-1.363661379019418,0.5409595839045104,0.627989964456791,11.156724496409462
-0.44080187847602303,-1.543557004486657,-1.3582517831803729,0.652526828868605,0.645005690632351,11.079297025573371
-0.4562374485208896,-1.5371069475803334,-1.3517265148916868,0.7633197991243388,0.6510769861336557,11.002888621107312
-0.47160851799669296,-1.530596177718997,-1.3440933169004434,0.8733486853354119,0.6475124800269619,10.927303055103478
-0.4869144797738829,-1.5241210529187272,-1.3353598300470892,0.9826217158864466,0.6358014552398089,10.852080772984962
-0.5021556903030702,-1.5177630383663292,-1.3255336128882247,1.0911425236162962,0.6176504177336629,10.77644454609208
-0.5173333206867334,-1.5115865341889925,-1.3146221876520616,1.198906969077217,0.5950268536087557,10.699237018034262
-0.5324491860286233,-1.505636265652905,-1.3026331179612896,1.3058993392575595,0.5702104428798904,10.618849545227533
-0.5475055486851524,-1.4999341612241062,-1.289574124568714,1.412087834709835,0.5458514977728294,10.533142367161421
-0.5625048902973935,-1.494475646246378,-1.2754532462216157,1.5174192583814492,0.5250355593420665,10.4393572267547
-0.5774496467598572,-1.4892252906529573,-1.2602790536378012,1.6218128306489963,0.5113517812977703,10.334025282214427
-0.5923418996663868,-1.4841117728399795,-1.2440609253313113,1.7251530834711406,0.5089607912882611,10.212875730961784
-0.6071830173947866,-1.479022164927097,-1.2268093944965999,1.8272818407807585,0.5226549790244098,10.070754234488051
-0.6219732390440577,-1.4737956151368528,-1.2085365760887923,1.927989383125639,0.5579004890215553,9.901565169046757
-0.6367111951954262,-1.4682166102466372,-1.189256682257536,2.0270050348161064,0.6208455918200306,9.69825793856797
-0.6513933612978926,-1.462008154328437,-1.168986631909375,2.123987614201786,0.7182748413793905,9.452884712340268
-0.666013442841177,-1.454825405914643,-1.147746755767357,2.2185164613251884,0.857483249353859,9.156763974356345
-0.6805616969003234,-1.4462505734211044,-1.1255615911541053,2.310084101068752,1.0460411058196204,8.800789173241247
-0.6950242026345345,-1.4357901623629081,-1.1024607501434178,2.3980919928011644,1.2914204880547422,8.375921220946351
-0.7093821042581635,-1.4228759574823606,-1.0784798302154062,2.481851205010628,1.600462305785593,7.873892993474375
-0.7236108638329871,-1.4068713344245047,-1.0536613181652998,2.5605901349453717,1.9786817298621584,7.288128163671398
-0.7376795771772322,-1.3870845171258832,-1.0280554168158462,2.633471416582086,2.4294428518707862,6.61483183775823
-0.751550422348491,-1.3627900886071753,-1.0017207026500254,2.699619734959668,2.953079811700201,5.854147485642319
-0.7651783232345628,-1.3332592904901732,-0.9747245053004288,2.758161209816091,3.5460943704911365,5.011203298628806
-0.7785109161394645,-1.2977983467852618,-0.9471428932022679,2.808273242802379,4.2006035331931635,4.09681267649996
-0.7914888996073172,-1.2557923114533303,-0.919060160774244,2.8492413695673786,4.904223047723787,3.1275786067846236
-0.8040468227218505,-1.2067500809760925,-0.8905677470785702,2.880517155635225,5.640531825161227,2.125209640071469
-0.8161143235316114,-1.1503447627244803,-0.861762575522218,2.9017692520359395,6.390160391025935,1.1149965649489793
-0.8276177711588562,-1.086443158814221,-0.8327448830018587,2.9129192176854293,7.132400763574703,0.1235990164785117
-0.8384822027469984,-1.0151191511784738,-0.8036156908250044,2.9141552078502144,7.847090122473785,-0.8235117327958232
-0.8486333942587831,-0.936648249953736,-0.7744741387465023,2.905920090522256,8.51643228079074,-1.7044907163926875
-0.8579998767583205,-0.8514839271458285,-0.7454149378412798,2.888875183358329,9.12642902412427,-2.502991892642662
-0.8665147160297787,-0.7602196369045858,-0.7165261860076965,2.8638452644319026,9.667697969593824,-3.2091786792272625
-0.8741169123988246,-0.6635426572086476,-0.6878877333633774,2.83175347763963,10.13561351176671,-3.8197987047400295
-0.8807523389709111,-0.5621865220909805,-0.6595701985869811,2.7935554905922295,10.529862195781888,-4.337461744201443
-0.8863742041918209,-0.4568879001331616,-0.6316346436810588,2.750180873150215,10.853604497862891,-4.769395004698929
-0.8909430831931525,-0.3483518551545327,-0.6041328349495567,2.702486923103226,11.11246348756151,-5.125984236411799
-0.8944266017446978,-0.23722722027891763,-0.5771079657185244,2.651227080739108,11.313529607311965,-5.419361283557152
-0.8967988739474869,-0.12409192420579797,-0.5505956949111334,2.5970334679035365,11.464508053576957,-5.662208707352837
-0.8980397931895449,-0.009446843670028404,-0.524625360232098,2.540411380830008,11.573068660714654,-5.866858578916686
