th1 (rad),w1 (rad/s),th2 (rad),w2 (rad/s),a1 (rad/s^2),a2 (rad/s^2)
5.875374914793614,-1.4042780432747899,5.272656185347632,2.7196856579370863,-3.1630701027412886,12.025331864146981
5.861332134360866,-1.4359087443022027,5.299853041927003,2.839938976578556,-3.19668027684931,11.960708792188345
5.846973046917844,-1.467875547070696,5.328252431692788,2.959546064500439,-3.1595324352421117,11.811617729307557
5.832294291447137,-1.499470871423117,5.357847892337793,3.0776622417935147,-3.0310945450095024,11.551949006018711
5.817299582732906,-1.529781816873212,5.388624514755728,3.1931817318537017,-2.7884243362049577,11.152231310831924
5.8020017645641735,-1.5576660602352617,5.420556332074265,3.304704044962021,-2.4074049828172557,10.58124866894263
5.786425103961821,-1.5817401100634343,5.453603372523886,3.410516531651447,-1.8649612527754718,9.808981215829792
5.770607702861186,-1.600389722591189,5.4877085378404,3.508606343809745,-1.1424108246842297,8.81108318473743
5.754603805635274,-1.6118138308380312,5.522794601278497,3.5967171756571195,-0.22983011507820628,7.574735947940237
5.738485667326894,-1.6141121319888132,5.5587617730350685,3.672464535136522,0.8691607636059181,6.1050648224955735
5.7223445460070055,-1.605420524352754,5.595486418386434,3.7335151833614777,2.133372844450931,4.430510633033337
5.706290340763478,-1.5840867959082447,5.632821570220049,3.777820289691811,3.522383031327003,2.604974785375144
5.690449472804396,-1.5488629655949748,5.670599773116967,3.8038700375455625,4.9786887048059105,0.704758680685396
5.674960843148446,-1.4990760785469157,5.708638473492423,3.8109176243524163,6.434167094320316,-1.1803322001804448
5.659970082362976,-1.4347344076037125,5.746747649735947,3.799114302350612,7.819716535874788,-2.960139332072736
5.6456227382869395,-1.3565372422449646,5.784738792759453,3.7695129090298845,9.075496334993073,-4.557988911591111
5.6320573658644895,-1.265782278895034,5.822433921849751,3.7239330199139733,10.15878691485583,-5.92114330962524
5.619399543075539,-1.1641944097464756,5.859673252048891,3.6647215868177208,11.047482456433139,-7.025195770339226
5.607757598978074,-1.0537195851821441,5.896320467917068,3.5944696291143283,11.739009095956355,-7.872205856329174
5.5972204031262525,-0.9363294942225806,5.932265164208212,3.5157475705510364,12.245998620720234,-8.484472575162108
5.587857108184027,-0.8138695080153783,5.967422639913722,3.4309028447994154,12.590658383941241,-8.89664453029715
5.579718413103873,-0.6879629241759658,6.001731668361717,3.341936399496444,12.799484984029746,-9.148423531034142
5.572838783862113,-0.5599680743356683,6.035151032356681,3.2504521641861026,12.899241278118541,-9.279091825433621
5.567239103118756,-0.43097566155448286,6.0676555539985415,3.1576612459317666,12.914422056256658,-9.324131981802742
5.5629293465032115,-0.3018314409919163,6.099232166457859,3.064419926113739,12.866001490718014,-9.313620910850513
5.559911032093292,-0.17317142608473612,6.129876365718996,2.971283717005234,12.771091330308176,-9.271865822630717
5.558179317832445,-0.04546051278165436,6.159589202889048,2.8785650587789267,12.643148104586684,-9.217774048895143
5.557724712704628,0.08097096826421249,6.188374853476837,2.786387318289975,12.492451887287816,-9.165572685191679
5.55853442238727,0.20589548713709066,6.216238726659737,2.6947315914380585,12.326674771977725,-9.125630150281056
5.560593377258641,0.3291622348568679,6.243186042574118,2.603475289935248,12.151435336654442,-9.105241252124813
5.56388499960721,0.45067658822341233,6.269220795473471,2.5124228774139996,11.97078920681442,-9.109311825237251
5.568391765489444,0.5703844802915565,6.294345024247611,2.421329759161627,11.7876385896734,-9.140923682344415
5.57409561029236,0.6882608661882905,6.318558321839227,2.329920522338183,11.604061356524506,-9.201784272928458
5.580978218954242,0.8043014797535356,6.341857527062609,2.2379026796088985,11.421568423385002,-9.292575935422642
5.589021233751778,0.9185171639873856,6.364236553858698,2.1449769202546722,11.241300886854466,-9.413222678900482
5.598206405391651,1.0309301728559301,6.385686323061244,2.0508446934656672,11.06417825078773,-9.563091698436004
5.60851570712021,1.1415719553638075,6.406194769995901,1.9552137764813071,10.891007693643214,-9.741144461941085
5.6199314266738485,1.2504820323002397,6.425746907760714,1.8578023318618964,10.722562528296669,-9.946049357455053
5.632436246996851,1.3577076575832063,6.444324931079333,1.758341838287346,10.559636214846796,-10.176265113026915
5.646013323572682,1.4633040197316742,6.461908349462206,1.6565791871570767,10.40307667512851,-10.430101715243934
5.660646363769999,1.5673347864829594,6.478474141333777,1.5522781700046373,10.253804265940516,-10.70576339946401
5.676319711634829,1.6698728291423646,6.493996923033824,1.4452205360099972,10.112815570719784,-11.001376421211505
5.693018439926252,1.7710009848495625,6.508449128393924,1.3352067717978822,9.981174109804211,-11.31500266202316
5.710728449774748,1.8708127259476046,6.521801196111903,1.2220567451776505,9.859988077020596,-11.644638576986962
5.729436577034224,1.9694126067178106,6.534021763563679,1.1056103594077809,9.750374208370074,-11.988197452131976
5.749130703101402,2.066916348801511,6.545077867157757,0.9857283848864611,9.653405796766899,-12.343471301700092
5.769799866589417,2.16345040676918,6.554935151006622,0.8622936718694602,9.570041602729294,-12.708066890882513
5.791434370657109,2.259150822796473,6.563558087725316,0.735213002960635,9.501030893466572,-13.079308214791658
5.814025878885074,2.354161131731139,6.570910217754923,0.6044199208127183,9.446788001231806,-13.454095211555051
5.837567490202385,2.448629011743457,6.5769544169630505,0.46987896869716783,9.40722758707566,-13.828705495537244
5.86205378031982,2.5427012876142134,6.581653206650022,0.3315919137417954,9.381549264443391,-14.19852253393257
5.887480793195962,2.6365167802586473,6.58496912578744,0.18960668840246972,9.367957572426551,-14.557670251087096
5.9138459609985485,2.7301963559829128,6.586865192671465,0.04402998589159876,9.36330099031806,-14.89853126058141
5.941147924558377,2.8238293658860933,6.587305492530381,-0.10495532671421534,9.362612807248492,-15.21112531370787
5.969386218217238,2.9174554939585784,6.586255939263238,-0.25706657985129405,9.358539204309393,-15.482328973274257
5.998560773156824,3.0110408860016724,6.5836852734647255,-0.4118898695840366,9.340649383236446,-15.69493196046318
6.028671182016841,3.104447379834037,6.579566374768885,-0.5688391891886684,9.294644685607372,-15.826558135138919
6.0597156558151815,3.197393826690111,6.573877982876998,-0.7271047705400575,9.201526787214172,-15.84854146407232
6.091689594082083,3.2894090945622527,6.566606935171597,-0.8855901851807807,9.0368598538019,-15.724954447646361
6.124583685027705,3.3797776931002717,6.557751033319789,-1.0428397296572443,8.770377671366761,-15.412151572564017
6.158381461958708,3.467481469813939,6.547322636023217,-1.1969612453828844,8.366343935935621,-14.859412298772494
6.193056276656847,3.551144909173295,6.535353023569388,-1.3455553683706094,7.785243488245197,-14.011505242726955
6.22856772574858,3.628997344055747,6.5218974698856815,-1.485670420797879,6.987479336606419,-12.814125888481707
6.264857699189138,3.6988721374218114,6.5070407656777025,-1.613811679682696,5.9396092286841355,-11.222948665379315
6.301846420563356,3.7582682297086527,6.490902648880875,-1.7260411663364892,4.623051333238929,-9.216162003764687
6.339429102860443,3.804498743041042,6.47364223721751,-1.8182027863741361,3.0439734495680137,-6.808615372127625
6.377474090290853,3.8349384775367223,6.455460209353769,-1.8862889400954124,1.2414693302607402,-4.063411804977316
6.415823475066221,3.84735317083933,6.436597319952815,-1.9269230581451855,-0.7100244246108158,-1.095151103186194
6.454297006774614,3.8402529265932217,6.417328089371363,-1.9378745691770474,-2.707487794488874,1.9400540798446873
6.492699536040546,3.813178048648333,6.397949343679593,-1.9184740283786006,-4.635502122984233,4.868127783835457
6.5308313165270295,3.7668230274184906,6.3787646033958065,-1.869792750540246,-6.38752543259331,7.527924273810608
6.568499546801214,3.7029477730925575,6.360066675890404,-1.79451350780214,-7.884869255572278,9.798862337805502
6.60552902453214,3.6240990805368347,6.342121540812382,-1.6965248844240848,-9.086926020691166,11.616012871617261
6.641770015337508,3.533229820329923,6.325156291968141,-1.5803647557079121,-9.990600351994976,12.96963338217897
6.677102313540807,3.433323816809973,6.309352644411062,-1.4506684218861223,-10.621618274579344,13.892909637921447
6.711435551708907,3.3271076340641796,6.294845960192201,-1.3117393255069079,-11.02260564230996,14.444883716766215
6.744706628049548,3.21688157764108,6.281728566937132,-1.1672904883392456,-11.242162815949294,14.694650462440345
6.776875443825959,3.1044599494815874,6.27005566205374,-1.0203439837148423,-11.32710163169833,14.709986681613413
6.807920043320775,2.991188933164604,6.259852222216591,-0.8732441168987082,-11.318126460671383,14.550882491325055
6.837831932652421,2.87800766855789,6.2511197810476045,-0.7277352919854576,-11.248214744561466,14.26695701981139
6.866612009338,2.7655255211122753,6.24384242812775,-0.5850657217873437,-11.142696870015653,13.89735170086567
6.894267264549122,2.654098552412119,6.237991770909876,-0.44609220477868705,-11.020195058320637,13.47190452444388
6.920808250073243,2.5438966018289126,6.23353084886209,-0.31137315953424827,-10.893860525138164,13.012797715113544
6.946247216091532,2.434957996577531,6.2304171172667475,-0.18124518238311282,-10.772595745650982,12.536221051394659
6.970596796057307,2.327232039121021,6.228604665442917,-0.05588297186916624,-10.662119232670301,12.053836611967103
6.993869116448517,2.220610846794318,6.228045835724225,0.06465539425050479,-10.56583006904785,11.573975035753339
7.0160752249164595,2.1149525461038396,6.22869238966673,0.18039514460803818,-10.485479704619214,11.10256737549373
7.037224750377498,2.0100977490576475,6.2304963411128105,0.2914208183629755,-10.421679070183444,10.643848005001919
7.057325727868075,1.905880958355813,6.2334105492964405,0.3978592984129947,-10.374273867545046,10.200872553382293
7.0763845374516325,1.8021382196803626,6.237389142280571,0.4998680239468177,-10.342618460150504,9.775892586492272
7.094405919648437,1.6987120350788576,6.242387822520039,0.5976269498117404,-10.325773736249545,9.370622394926924
7.111393039999225,1.5954542977163622,6.248364092018156,0.6913331737610096,-10.322648906077674,8.986426086212592
7.127347582976388,1.4922278086555854,6.255277423755766,0.7811974346231355,-10.332102379956515,8.624446653859936
7.142269861062944,1.3889067848560201,6.2630893981019975,0.8674419011617349,-10.35301294694852,8.285693285295746
7.156158928911505,1.285376655386535,6.271763817113615,0.9502988340146924,-10.384329422631572,7.971098905473268
7.16901269546537,1.1815333611602192,6.281266805453762,1.030009823069425,-10.425104631961723,7.681556685237979
7.180828029076972,1.0772823148406019,6.291566903684457,1.1068253899218048,-10.474517883652029,7.417941776226189
7.191600852225378,0.9725371360040815,6.3026351575836745,1.1810048076840667,-10.531888830673187,7.181122677475741
7.2013262235854185,0.8672182476973497,6.314445205660515,1.2528160344588242,-10.596684674679448,6.97196523060955
7.209998406062392,0.7612514009505552,6.326973366005103,1.3225356867649196,-10.66852196140095,6.791331148272956
7.217610920071897,0.6545661813365458,6.340198722872753,1.3904489982476491,-10.747163650495219,6.640072098525544
7.224156581885262,0.5470945448315936,6.354103212855229,1.4568497192329046,-10.832511663374468,6.5190196099554285
7.229627527333578,0.4387694281978489,6.368671710047558,1.5220399153324589,-10.924594662658722,6.428970355348026
7.234015221615556,0.3295234815712617,6.3838921092008825,1.586329618885939,-11.023550349318297,6.370665649679258
7.237310456431269,0.21928797807807873,6.399755405389742,1.6500362753827316,-11.129601032150662,6.344763196443709
7.239503336212049,0.10799196775657212,6.41625576814357,1.7134839073471686,-11.243020581410235,6.351798167456822
7.240583255889615,-0.004438238057530228,6.433390607217041,1.7770018890217367,-11.364090073015522,6.392129532083271
7.24053887350904,-0.11807913878768544,6.451160626107258,1.8409231843425695,-11.493038406762675,6.4658660829401455
7.239358082121163,-0.2330095228553122,6.469569857950684,1.905581845171971,-11.62996288563781,6.572764755320291
7.237027986892611,-0.3493091517116903,6.488625676402403,1.971309492725174,-11.774723126917625,6.712091537511723
7.233534895375493,-0.46705638298086655,6.508338771329655,2.0384304081002913,-11.92679972341238,6.882432491925845
7.228864331545685,-0.5863243802149903,6.528723075410658,2.1072547330195497,-12.085106843388482,7.081439229049627
7.223001087743535,-0.7071754486488752,6.549795622740854,2.178069125310046,-12.247745663593525,7.30548989091032
7.215929333257046,-0.8296529052848104,6.571576313993955,2.2511240242191493,-12.411683679710519,7.549244015736451
7.207632804204198,-0.9537697420819156,6.594087554236146,2.3266164643765137,-12.57234456690333,7.80506901925458
7.198095106783379,-1.0794931877509488,6.617353718879911,2.4046671545690597,-12.72309628304473,8.062320128742646
7.18730017490587,-1.2067241505813961,6.641400390425601,2.485290355856486,-12.854634791381056,8.306469053887128
7.175232933400056,-1.3352704984952066,6.666253293984166,2.5683550463953573,-12.954282284902696,8.518106756379265
7.161880228415104,-1.4648133213442336,6.6919368444481195,2.65353611395915,-13.00525941821334,8.671902722086042
7.1472320952016615,-1.594865915526367,6.718472205587711,2.7402551411800102,-12.986059423105061,8.73569942603997
7.131283436046398,-1.7247265097574176,6.745874756999511,2.82761213544041,-12.870154604776229,8.670065613274424
7.114036170948824,-1.8534280558051799,6.774150878353915,2.914312791573154,-12.626398383970086,8.428820081444702
7.095501890390771,-1.9796920396448807,6.803294006269646,2.998600992387601,-12.220617847319502,7.961225867663395
7.075704969994322,-2.101898218118076,6.833280016193522,3.078213251064235,-11.618943444179305,7.216632111853719
7.054685987813142,-2.218087652559869,6.864062148704165,3.1503795721827723,-10.793253603590605,6.152109895481391
7.032505111287543,-2.326020188595775,6.895565944425993,3.2119006711375864,-9.728553048178846,4.742849331143739
7.009244909401586,-2.4233057190775638,6.927684951137369,3.259329164449024,-8.43108141507639,2.9936522222234
6.9850118522108104,-2.507616533228328,6.960278242781859,3.289265686671258,-6.934707783406216,0.9481061120127912
6.959935686878527,-2.57696361106239,6.993170899648572,3.2987467477913857,-5.302427635937314,-1.3090302760217676
6.934166050767903,-2.6299878874217635,7.026158367126485,3.285656445031168,-3.620502931126221,-3.6597127064873045
6.907866171893685,-2.6661929167330256,7.059014931576797,3.249059317966295,-1.9853635785535075,-5.970662957078382
6.881204242726355,-2.686046552518561,7.09150552475646,3.1893526883955112,-0.4867948497627584,-8.116716023325095
6.854343777201169,-2.6909145010161883,7.1233990516404155,3.1081855281622603,0.8069943187093563,-10.001675275937787
6.827434632191007,-2.6828445578290947,7.154480906922038,3.0081687754028823,1.857681510796228,-11.570047320857718
6.8006061866127165,-2.6642677427211323,7.184562594676067,2.892468302194305,2.6570101312748875,-12.807512373668697
6.7739635091855055,-2.6376976414083835,7.21348727769801,2.764393178457618,3.22071004806803,-13.7326939287672
6.747586532771422,-2.605490540927703,7.241131209482586,2.627066239169946,3.57966405427675,-14.385072815608769
6.721531627362145,-2.5696939003849355,7.267401871874285,2.4832155110138583,3.771452316073499,-14.813385110046072
6.695834688358295,-2.5319793772242005,7.292234026984424,2.3350816599133974,3.8340103497278837,-15.066912041672113
6.670514894586053,-2.4936392737269215,7.315584843583558,2.1844125394966762,3.8017847280068473,-15.190199338857859
6.645578501848784,-2.455621426446853,7.337428968978525,2.0325105461080977,3.7039705204635776,-15.220635975414083
6.621022287584315,-2.4185817212422176,7.357754074439606,1.880304186353957,3.564153761419023,-15.187961710379
6.596836470371893,-2.3829401836280275,7.376557116303146,1.728424569250167,3.400741270623392,-15.1148543611368
6.573007068535613,-2.3489327709217935,7.393841361995648,1.577276025638799,3.227734981161637,-15.017988976696564
6.549517740826396,-2.3166554211101773,7.4096141222520355,1.4270961358718333,3.0555818773064978,-14.909200716475842
6.526351186615294,-2.2860996023371123,7.423885083610754,1.278004128707075,2.8919604605876703,-14.796561737425842
6.503490190591923,-2.2571799977312357,7.436665124897825,1.1300385113328164,2.7424468584660886,-14.685295133688394
6.480918390614611,-2.229755529146575,7.447965510011153,0.9831855599959325,2.6110493465704905,-14.578511376778318
6.458620835323145,-2.20364503568087,7.457797365611112,0.8374004462281492,2.50062201017937,-14.477782534074112
6.436584384966336,-2.1786388155790766,7.466171370073393,0.6926226208874081,2.4131765581653153,-14.383580642247782
6.414797996810545,-2.1545070499974233,7.473097596282267,0.5487868144649303,2.3501125254262227,-14.29560806403125
6.393252926310571,-2.131005924743161,7.478585464426916,0.40583073382461776,2.312384149189133,-14.213044799754163
6.371942867063139,-2.10788208325127,7.482643771765162,0.26370028582707616,2.3006191742079665,-14.1347334218663
6.350864046230627,-2.0848758915091903,7.485280774623433,0.12235295160841314,2.3152017522112778,-14.059317939945842
6.330015287315535,-2.0617238739870776,7.486504304139517,-0.018240227791045283,2.3563288807049023,-13.985349064857772
6.309398048575664,-2.0381605851800284,7.486321901861607,-0.158093718439623,2.424047602049688,-13.911365192082826
6.289016442723864,-2.0139201091595313,7.4847409646772105,-0.29720737036045125,2.5182784423052076,-13.835955945238858
6.268877241632269,-1.9887373247364792,7.481768890973606,-0.43556692981283984,2.638829242484702,-13.757813218187833
6.2489898683849034,-1.9623490323116322,7.477413221675477,-0.5731450619947182,2.785402541185434,-13.675773218259678
6.229366378061787,-1.9344950068997777,7.47168177105553,-0.7099027941773149,2.9575989307336576,-13.58885194266232
6.210021427992789,-1.904919017592441,7.464582743113756,-0.8457913136039381,3.1549182644368576,-13.496275730505323
6.190972237816864,-1.8733698349480725,7.456124829977717,-0.9807540709089914,3.376760188516751,-13.397507957311696
6.172238539467384,-1.839602233062905,7.4463172892686265,-1.1147291504821084,3.6224251686758238,-13.292272526521526
6.153842517136755,-1.8033779813761468,7.435169997763805,-1.2476518757473236,3.8911169475793805,-13.180574525236683
6.135808737322994,-1.764466811900353,7.422693479006332,-1.3794576209996905,4.181947183076061,-13.06271822111644
6.11816406920399,-1.7226473400695925,7.408898902796335,-1.510084803210855,4.493942860976358,-12.939322462955888
6.100937595803295,-1.677707911459829,7.393798054764226,-1.6394780278404137,4.826056938461341,-12.81133349319101
6.084160516688696,-1.6294473420752156,7.377403274485822,-1.7675913627723239,5.177182545906388,-12.680035173819135
6.067866043267944,-1.5776755166161518,7.359727360858098,-1.8943917145105151,5.546170949726753,-12.547056657301434
6.052089288101783,-1.5222138071188842,7.3407834437129935,-2.0198622810835296,5.931853352032348,-12.414377590818475
6.036867150030594,-1.4628952735985608,7.320584820902158,-2.1440060569917145,6.333066470420656,-12.284331015077525
6.022238197294609,-1.3995646088943543,7.299144760332241,-2.26684936714249,6.7486816989383795,-12.159604195159368
6.008242551205665,-1.3320777919049704,7.276476266660816,-2.3884454090940834,7.177637493476676,-12.043237684718239
5.994921773286616,-1.2603014169702036,7.252591812569875,-2.508877785941266,7.618974442899954,-11.938622954925231
5.982318759116914,-1.184111672541204,7.2275030347104625,-2.6282640154905184,8.071872266801913,-11.849498886381905
5.970477642391502,-1.103392949873185,7.201220394555557,-2.7467590043543373,8.535687698657878,-11.779947283894037
5.95944371289277,-1.0180360728866062,7.173752804512014,-2.8645584771932775,9.009991831766309,-11.734387269648977
