th1 (rad),w1 (rad/s),th2 (rad),w2 (rad/s)
2.2391471715593703,-0.8804266822734494,0.9695582811266106,-1.269005244593677
2.2303429047366357,-0.9575344930024736,0.9568682286806738,-1.3195411912599675
2.220767559806611,-1.0362325023461478,0.9436728167680741,-1.367823706837969
2.210405234783149,-1.1165727173364688,0.9299945796996945,-1.4136399049838408
2.1992395076097844,-1.1986004889596158,0.915858180649856,-1.4567666223201123
2.1872535027201883,-1.2823542701629274,0.9012905144266549,-1.4969698562410574
2.174429960018559,-1.3678654478941954,0.8863208158642443,-1.534004258606633
2.160751305539617,-1.4551582675220995,0.8709807732781779,-1.5676126966437067
2.146199722864396,-1.5442498704472625,0.8553046463117409,-1.5975258922416915
2.1307572241599235,-1.6351504682522937,0.8393293873893239,-1.6234621501542643
2.1144057194774004,-1.7278636793114688,0.8230947658877813,-1.645127184263621
2.0971270826842856,-1.8223870563345097,0.8066434940451451,-1.6622140488804045
2.0789032121209403,-1.9187128357971002,0.7900213535563411,-1.6744031788840046
2.0597160837629693,-2.0168289425533734,0.773277321767501,-1.6813625381942856
2.0395477943374356,-2.116720285073393,0.7564636963855581,-1.6827478704521208
2.0183805914867015,-2.2183703786470548,0.7396362176810369,-1.6782030387345874
1.996196887700231,-2.3217633354990443,0.7228541872936911,-1.6673604325365547
1.9729792543452405,-2.426886262033461,0.7061805829683255,-1.6498414100642178
1.9487103917249058,-2.533732104349295,0.6896821688676833,-1.6252567321440394
1.923373070681413,-2.642302983722541,0.6734296015462429,-1.5932069309170347
1.8969500408441875,-2.752614063908558,0.6574975322370725,-1.553282542317142
1.8694239002051019,-2.864697991799939,0.641964706813901,-1.5050641167568666
1.8407769202871025,-2.978609951977314,0.6269140656463323,-1.4481219085133166
1.8109908207673293,-3.094433373554995,0.6124328465611992,-1.3820151327035197
1.7800464870317794,-3.2122863235101997,0.598612695234164,-1.3062906721118173
1.7479236237966773,-3.3323286125880127,0.5855497885130458,-1.220481118661626
1.7146003376707972,-3.4547696245802153,0.5733449773264296,-1.1241020526184244
1.680052641424995,-3.579876851393372,0.5621039568002454,-1.016648507207704
1.6442538729110612,-3.70798506460945,0.5519374717281683,-0.8975906541722152
1.6071740222649666,-3.839505961676348,0.5429615651864461,-0.7663689043250121
1.5687789626482032,-3.9749379617898,0.535297876143196,-0.622388891114843
1.5290295830303051,-4.114875543180838,0.5290739872320476,-0.4650172677801764
1.4878808275984967,-4.260017027051137,0.5244238145542458,-0.29358001954850754
1.4452806573279853,-4.411168887104348,0.5214880143587607,-0.10736626662756857
1.4011689684569417,-4.56924327497683,0.520414351692485,0.0943573740073678
1.3554765357071734,-4.735243146609509,0.5213579254325587,0.31231339324232743
1.3081241042410783,-4.910225610606108,0.5244810593649819,0.5471470117792313
1.2590218481350173,-5.095228127822846,0.5299525294827743,0.7993042735829748
1.208069566856789,-5.291133050378007,0.5379455722186041,1.068819113192957
1.1551582363530088,-5.49843308921091,0.5486337633505336,1.354955874030922
1.1001739054608997,-5.716844887940473,0.5621833220908428,1.6556326895816749
1.043005456581495,-5.94470710797629,0.5787396489866595,1.9665376301730642
0.9835583855017321,-6.178115038544772,0.5984050252883901,2.2798750855351484
0.9217772351162844,-6.409835400874076,0.6212037761437416,2.5828157320578806
0.8576788811075436,-6.628293957257084,0.6470319334643204,2.8560851586348597
0.7913959415349728,-6.81738516527087,0.675592785050669,3.0737835421934023
0.7232220898822641,-6.958309083322277,0.706330620472603,3.2061796336013093
0.6536389990490413,-7.034316668484527,0.7383924168086161,3.226747935684921
0.583295832364196,-7.037201827727181,0.7706598961654654,3.12177178202524
0.5129238140869242,-6.971575077641356,0.8018776139857178,2.89678103177035
0.44320806331051066,-6.8531971139535,0.8308454243034212,2.5743881194642757
0.37467609217097564,-6.702382097867121,0.856589305498064,2.1848560471684855
0.3076522711923044,-6.5373352425940086,0.8784378659697488,1.7563542964391439
0.24227891876636434,-6.3708457688559585,0.8960014089341403,1.3099186950549184
0.17857046107780478,-6.210171447477109,0.9091005958846895,0.8590173120105058
0.11646874660303369,-6.058384774042427,0.9176907690047945,0.4113074165570952
0.055884898862609424,-5.915871585163908,0.9218038431703655,-0.029299989429366458
-0.0032738169890296556,-5.781474396994209,0.9215108432760718,-0.46103037787916346
-0.06108856095897175,-5.65323353753926,0.9169005394972801,-0.8831900131041859
-0.11762089633436434,-5.528827834826027,0.9080686393662383,-1.2955395361742308
-0.17290917468262462,-5.4058246919901,0.895113244004496,-1.6979507282522848
-0.22696742160252562,-5.281819495311541,0.8781337367219731,-2.0902368726380387
-0.27978561655564105,-5.154514491760687,0.8572313679955927,-2.472086067973751
-0.3313307614732479,-5.021766099304056,0.8325105073158552,-2.84305486430574
-0.3815484224662885,-4.881616304069353,0.8040799586727978,-3.2025971034295795
-0.43036458550698203,-4.7323158847049624,0.772053987638502,-3.5501130376854686
-0.47768774435403166,-4.572342640024918,0.7365528572616473,-3.885009491195459
-0.5234111707542809,-4.400415243602072,0.6977027623496928,-4.20676493323895
-0.5674153231903016,-4.215502012950912,0.6556351130173033,-4.514995044906106
-0.6095703433198107,-4.016823307139731,0.6104851625682421,-4.809515381682502
-0.649738576391208,-3.8038461960513166,0.5623900087514171,-5.090398466546915
-0.6877770383517212,-3.5762703227807338,0.5114860240859479,-5.358023300219031
-0.7235397415795286,-3.334004408132669,0.45790579108375756,-5.6131159314866315
-0.7568797856608553,-3.0771335550786345,0.4017746317688913,-5.856780384070184
-0.7876511212116417,-2.805878362761817,0.34320682792818946,-6.090519803539193
-0.8157099048392599,-2.520547859271135,0.2823016298927975,-6.316248005515094
-0.8409153834319713,-2.22148949170398,0.21913914983764654,-6.536291409491079
-0.863130278349011,-1.9090410869246435,0.15377623574273575,-6.7533802070743105
-0.8822206892182575,-1.5834922610614708,0.08624243367199264,-6.970624844829002
-0.8980556118288722,-1.245067032286837,0.016536185223702607,-7.191468334313731
-0.9105062821517406,-0.8939468045082073,-0.05537849811943471,-7.419594572577693
-0.9194457501968226,-0.5303657481298836,-0.12957444384521163,-7.658754567862549
-0.9247494076781214,-0.15483224636981524,-0.20616198952383713,-7.912441482505204
-0.9262977301418196,0.23143591660163226,-0.2852864043488892,-8.18329635515914
-0.9239833709758033,0.6257290067278141,-0.3671193679004806,-8.472058814610836
-0.9177260809085251,1.0225427730636665,-0.451839956046589,-8.775815071928195
-0.9075006531778885,1.4116258258971655,-0.5395981067658709,-9.08533919882743
-0.8933843949189169,1.7755695200874553,-0.6304514987541452,-9.38174449207783
-0.8756286997180424,2.088075588012841,-0.7242689436749234,-9.633932529741212
-0.854747943837914,2.3156716210003503,-0.8206082689723355,-9.800567024464963
-0.8315912276279105,2.426369386932153,-0.9186139392169852,-9.841337669227864
-0.807327533758589,2.4045131993151565,-1.0170273159092638,-9.73656079770355
-0.7832824017654374,2.2616596006153307,-1.1143929238862993,-9.501447363836537
-0.7606658057592841,2.0318445729016092,-1.2094073975246646,-9.179517530222714
-0.740347360030268,1.7548143776791996,-1.3012025728268917,-8.820334914718833
-0.722799216253476,1.462151363899898,-1.38940592197408,-8.461668048444007
-0.708177702614477,1.1733529046202458,-1.4740226024585201,-8.125083078723582
-0.6964441735682745,0.8982396050253018,-1.5552734332457558,-7.819697839186231
-0.6874617775180215,0.6406626282742733,-1.6334704116376182,-7.547319991534966
-0.6810551512352788,0.40132309960658624,-1.708943611552968,-7.306187611489274
-0.677041920239213,0.17946368033999427,-1.7820054876678606,-7.093123490706285
-0.675247283435813,-0.026232206200564046,-1.8529367225749234,-6.904621677506328
-0.6755096054978186,-0.2172002678198045,-1.9219829393499865,-6.737337814845034
-0.6776816081760166,-0.3947981696546947,-1.9893563174984368,-6.58827744692374
-0.6816295898725636,-0.5602301479152761,-2.055239091967674,-6.454841759887135
-0.6872318913517164,-0.7145299090908235,-2.1197875095665455,-6.3348113217992035
-0.6943771904426246,-0.8585697105931168,-2.1831356227845373,-6.226306660293427
-0.7029628875485557,-0.9930798156255098,-2.245398689387472,-6.12774352482594
-0.7128936857048108,-1.118670769847147,-2.306676124635731,-6.037790441099233
-0.7240803934032823,-1.2358550626607068,-2.3670540290467232,-5.955331310609448
-0.7364389440298894,-1.3450667538351497,-2.426607342152818,-5.879433597703223
-0.7498896115682409,-1.4466786109222658,-2.48540167812985,-5.8093217132812
-0.7643563976774636,-1.5410167436728281,-2.543494895262662,-5.744354874964327
-0.7797665651141918,-1.6283729055643599,-2.6009384440123053,-5.684008669247535
-0.7960502941698354,-1.7090146940552824,-2.6577785307047805,-5.627859603018133
-0.8131404411103882,-1.7831938874185849,-2.714057126734962,-5.575572034487003
-0.8309723799845741,-1.8511531399319257,-2.769812847079832,-5.526886982580483
-0.8494839113838933,-1.9131312343925946,-2.825081716905637,-5.4816124144271186
-0.8686152237278193,-1.9693670681945579,-2.879897841049908,-5.439614697362591
-0.8883088944097649,-2.0201025290037395,-2.934293988023534,-5.400810973762222
-0.9085099196998023,-2.065584398771412,-2.988302097761156,-5.365162274716188
-0.9291657636875165,-2.1060654099061424,-3.041953720508318,-5.332667233489881
-0.9502264177865779,-2.1418045640525802,-3.0952803928432164,-5.303356293426732
-0.9716444634271038,-2.1730668112675318,-3.1483139557774837,-5.277286328970884
-0.9933751315397791,-2.200122174740566,-3.2010868190671924,-5.25453561420482
-1.0153763532871847,-2.2232443930619463,-3.2536321752092405,-5.235199081962668
-1.037608797217804,-2.242709138067542,-3.305984166028867,-5.21938381930319
-1.0600358885984795,-2.258791851332937,-3.358178004221899,-5.207204742888226
-1.0826238071118088,-2.271765226439623,-3.410250051650781,-5.198780391477759
-1.105341459376205,-2.281896347315523,-3.4622378555655584,-5.194228763092856
-1.1281604228493602,-2.2894434755003417,-3.514180143196487,-5.193663112121549
-1.1510548576043638,-2.2946524614733517,-3.5661167743177025,-5.197187607447443
-1.1740013822190973,-2.2977527377420426,-3.6180886503921768,-5.204892737328075
-1.1969789095965178,-2.298952834990097,-3.6701375777654577,-5.216850331174112
-1.2199684379464186,-2.2984353483221103,-3.722306081077199,-5.233108053840838
-1.2429527914296397,-2.296351270099011,-3.7746371616156074,-5.253683216326479
-1.2659163041306298,-2.292813601279903,-3.8271739937788722,-5.278555740451719
-1.288844440143429,-2.287890157719693,-3.8799595511833895,-5.307660117851133
-1.3117233417206258,-2.2815955058178594,-3.933036152361901,-5.340876220589806
-1.3345392967788043,-2.2738819989668198,-3.986444914567799,-5.378018858917031
-1.3572781167684724,-2.264629949648108,-4.04022510315697,-5.418826050207605
-1.3799244162649535,-2.2536370704827293,-4.094413363659045,-5.462946073341693
-1.402460786969781,-2.2406074607342714,-4.149042824392462,-5.509923547732095
-1.4248668615771236,-2.2251406120749144,-4.204142059869783,-5.559185009496495
-1.4471182676978727,-2.2067211655452597,-4.259733909964748,-5.610024770248782
-1.4691854793533252,-2.1847104705644647,-4.315834157667235,-5.66159224109158
-1.4910325840589698,-2.1583413639600217,-4.372450080078151,-5.712882375947625
-1.51261599769857,-2.126717969320636,-4.429578903837627,-5.762731400778041
-1.5338831773917765,-2.088822652705868,-4.487206217845408,-5.809820479699485
-1.5547714039188352,-2.0435324625330287,-4.545304422642403,-5.852690311687296
-1.5752067285441655,-1.9896472964221312,-4.603831325759276,-5.88976969090461
-1.5951032015083868,-1.9259315208650656,-4.662729022668322,-5.919420603494641
-1.6143625167170375,-1.85116967747735,-4.721923228703268,-5.940001280988924
-1.632874213491811,-1.7642351684528021,-4.7813232415131575,-5.949946664146322
-1.6505165651763392,-1.6641684941167763,-4.8408227081546205,-5.947862994113114
-1.6671582501175068,-1.550259000613891,-4.900301338095751,-5.932630037791142
-1.6826608401236458,-1.4221217050951487,-4.959627638473663,-5.90350136333542
-1.6968820571745973,-1.2797592872841146,-5.018662652107017,-5.860190931114657
-1.7096796500474385,-1.1235994477406772,-5.077264561418164,-5.802933903645031
-1.7209156445248452,-0.9544999433806954,-5.135293900454614,-5.73251157322006
-1.7304606439586523,-0.7737176188137952,-5.192619016186814,-5.650234645690485
-1.7381978201467903,-0.5828429537352419,-5.249121362643719,-5.557885071865615
-1.7440262496841428,-0.3837068798674622,-5.304700213362375,-5.457622874374939
-1.7478633184828174,-0.17827062706019964,-5.3592764421061245,-5.351869492941916
-1.7496460247534193,0.03148878676366193,-5.412795137035544,-5.243181911186623
-1.7493311368857827,0.24368538795720346,-5.46522695614741,-5.134131787326288
-1.7468942830062106,0.45661398764071914,-5.516568274020672,-5.027201334783238
-1.7423281431298034,0.6688172096825713,-5.566840287368505,-4.924703706193164
-1.7356399710329777,0.8791281632860144,-5.616087324430437,-4.82873123834677
-1.7268486894001176,1.0866904762451666,-5.664374636813904,-4.741131062168402
-1.715981784637666,1.2909596976353777,-5.7117859474355885,-4.663504840675877
-1.7030721876613122,1.491691222557319,-5.758420995842347,-4.597227932503975
-1.688155275435739,1.6889200687064738,-5.804393275167387,-4.543482944651791
-1.6712660747486743,1.882937355499674,-5.849828104613905,-4.50330313030943
-1.6524367011936776,2.0742675238366717,-5.894861135916999,-4.477622070774523
-1.6316940259553108,2.263649452056214,-5.939637356624744,-4.467327273735362
-1.6090575314347486,2.4520238498648084,-5.984310629362098,-4.47331653197148
-1.5845372929361006,2.6405287444376397,-6.029043794681813,-4.496557013267925
-1.5581320054917243,2.8305045453989197,-6.074009364814493,-4.538148057035167
-1.529826960037735,3.023510075516896,-6.119390845384844,-4.599389533990692
-1.499591859282566,3.2213510290209237,-6.165384740724751,-4.681858376650585
-1.4673783489923569,3.4261224601800797,-6.212203324491258,-4.787496444117759
-1.433117124390556,3.6402668863766023,-6.260078288932435,-4.918713015610064
-1.39671445552679,3.86664892704156,-6.309265419088536,-5.0785043091219695
-1.3580479662563745,4.108645016845121,-6.360050462179756,-5.270589051578242
-1.3169615160879233,4.370240226233065,-6.4127563526955385,-5.499549974131767
-1.2732591138255926,4.656108236641946,-6.467751852436856,-5.770948712554914
-1.226698031459173,4.971613200883085,-6.525461339562405,-6.091329392299756
-1.1769818994503423,5.322587947584419,-6.586374633485402,-6.4679082629216635
-1.123756019974498,5.71455942160607,-6.651053716114618,-6.907489609510723
-1.0666104257584372,6.15071752429805,-6.7201286122097255,-7.413622418574066
-1.0051032505154567,6.627267900082102,-6.794264836395466,-7.980090324077285
-0.9388305715146357,7.124136672320078,-6.874065739636238,-8.577875555310642
-0.8675892047914349,7.59032958746252,-6.959844495189345,-9.13459053778418
-0.7916859089168097,7.9329368632197985,-7.051190400567187,-9.518938808104252
-0.7123565402846117,8.040628772979987,-7.146379788648229,-9.57342105449338
-0.6319502525548119,7.8653033370160355,-7.242113999193163,-9.228463970179812
-0.5532972191846515,7.482865691967047,-7.334398638894961,-8.587375004435922
-0.478468562264981,7.0277836076912505,-7.4202723889393205,-7.8350610328436705
-0.4081907261880685,6.595033115068551,-7.4986229992677575,-7.101621266405914
-0.342240395037383,6.222250647558745,-7.5696392119318165,-6.437770859072172
-0.28001788856179555,5.914914237291314,-7.634016920522538,-5.849873145878995
-0.22086874618888241,5.666803162081075,-7.692515651981328,-5.32825164359534
-0.16420071456807167,5.4691955511533035,-7.745798168417282,-4.859861414559531
-0.10950875905653863,5.314003438466174,-7.794396782562877,-4.43259016359997
-0.05636872467187689,5.194530000809154,-7.838722684198876,-4.036299170446673
-0.004423424663785348,5.1054363444938025,-7.879085675903343,-3.6627949362272547
0.046630938781152674,5.042497833512736,-7.9157136252656155,-3.3055282643104027
0.09705591711628003,5.002340983246007,-7.948768907908719,-2.9592815077078463
0.1470793269487401,4.9822142052921565,-7.978361722985798,-2.6199154958810382
0.19690146900166167,4.97980031682993,-8.00456087794461,-2.2841850754580277
0.24669947216996096,4.993065893998586,-8.02740272869919,-1.9496136882084223
0.29663013110994685,5.0201407080177125,-8.046898865581275,-1.6144133781327414
0.34683153819012397,5.059222019996754,-8.063042999362603,-1.2774367605259085
0.3974237583900915,5.1085007625907215,-8.075817366967861,-0.9381484249494254
0.4485087660159987,5.166108654271014,-8.085198851217356,-0.5966041170830763
0.5001698525587088,5.230086685736585,-8.091164892388187,-0.25342690841909354
0.5524707194160747,5.298375976006107,-8.093699161472378,0.09022920696315023
0.6054544791761358,5.368831599180106,-8.092796869402747,0.43273584137903937
0.6591427951679368,5.439258639886831,-8.088469510988956,0.7720713790515221
0.7135353815668052,5.507467644557081,-8.08074879719844,1.1059272617214218
0.768610058012376,5.571344215752767,-8.069689524581227,1.4318353010665414
0.8243235001699037,5.628925337570484,-8.055371171570561,1.7473075785200172
0.8806127535456085,5.678473741348769,-8.037898095785362,2.049977313121831
0.9373974909590962,5.718541676523451,-8.017398322654143,2.3377278577714087
0.9945829077243307,5.748016958710727,-7.99402104407643,2.608798081588157
1.0520630773114379,5.7661468437964185,-7.967933063260548,2.86185557584864
1.109724545749402,5.772538526705984,-7.939314507502062,3.0960336151393713
1.1674499310164619,5.767138176292203,-7.908354171350668,3.3109325690250593
1.2251213127793839,5.750192794905503,-7.875244845660418,3.5065905064211553
1.2826232407284388,5.722200503642326,-7.840178940596206,3.683430409207691
1.339845245764862,5.683855081791482,-7.8033446365041295,3.842192502316986
1.3966837965827767,5.6359899526478685,-7.76492271148096,3.983859897117113
1.4530436961092554,5.579525647707183,-7.725084112509789,4.1095844552285925
1.5088389525863273,5.515423437769102,-7.683988267957503,4.220617997700982
1.5639931869640182,5.444646555449001,-7.641782087980493,4.318252129321929
1.6184396525185083,5.368129405221633,-7.598599566687274,4.403768306325023
1.6721209465707245,5.28675442278854,-7.554561883624024,4.478398494044789
1.72498849079861,5.201335793843022,-7.509777898683576,4.543295872845391
1.7770018487370403,5.112609023218494,-7.464344939955122,4.599514517640616
1.828127938969225,5.021225295728103,-7.418349794778716,4.6479967255061805
1.8783401919265061,4.927749629557095,-7.371869827523654,4.689566616484411
1.927617688222077,4.832661942765478,-7.32497416135881,4.724928711974891
1.9759443076497318,4.7363602975189005,-7.277724874239061,4.754670345328955
2.0233079106249208,4.639165731519968,-7.230178170785771,4.779266938728775
2.0696995679401207,4.541328217878242,-7.182385501398483,4.799089361569581
2.115112850118903,4.443033406393906,-7.134394607782787,4.814412751852339
2.159543184182842,4.344409888561186,-7.086250480264264,4.825426324929364
2.202987283068454,4.245536795911348,-7.03799621701497,4.8322438100156795
2.245442651027567,4.146451588534252,-6.989673778914813,4.8349142441925705
2.2869071669129095,4.047157920433648,-6.9413246364728876,4.833432918152376
2.327378746117246,3.947633483818305,-6.892990307291364,4.827752310722947
2.366855080955429,3.8478377386748996,-6.844712784184135,4.817792873904294
2.405333458342178,3.747719430219957,-6.796534855445092,4.803453540686649
2.442810652644378,3.6472237883012695,-6.748500320038225,4.784621828379215
2.4792828905273905,3.546299292685621,-6.700654101754433,4.7611834046763715
2.5147458834542467,3.4449038794764917,-6.6530422677076695,4.733030976253324
2.549194922249012,3.343010459442827,-6.605711957945136,4.700072354105776
2.58262502684344,3.2406116211629685,-6.558711234404078,4.662237549475774
2.6150311430550697,3.137723402311821,-6.51208885890932,4.619484761706131
