th1 (rad),w1 (rad/s),th2 (rad),w2 (rad/s),a1 (rad/s^2),a2 (rad/s^2)
2.4699974607530515,-0.0566835341627882,3.2011399388503694,0.986281439696371,-8.284982961892098,6.748514184690002
2.4694306254114236,-0.1395333637817092,3.211002753247333,1.053766581543271,-8.203358145608313,6.715740719575219
2.4680352917736066,-0.2215669452377923,3.221540419062766,1.1209239887390232,-8.114080105073151,6.666624345301029
2.4658196223212285,-0.3027077462885238,3.2327496589501563,1.1875902321920335,-8.017142090778473,6.601214165032521
2.462792544858343,-0.38287916719630855,3.2446255612720765,1.2536023738423587,-7.912635463303886,6.519637684432255
2.45896375318638,-0.4620055218293474,3.2571615850105,1.3187987506866814,-7.800770647002554,6.422130526537927
2.4543436979680866,-0.5400132282993729,3.270349572517367,1.3830200559520607,-7.681894247412869,6.309060611453471
2.448943565685093,-0.6168321707735016,3.2841797730768874,1.4461106620665953,-7.55650106405357,6.1809449812458155
2.442775243977358,-0.6923971814140373,3.2986408796975533,1.5079201118790535,-7.4252400746510165,6.0384579214608785
2.4358512721632177,-0.7666495821605475,3.313720080816344,1.5683046910936622,-7.288913898412131,5.882429621938268
2.4281847763416122,-0.8395387211446688,3.3294031277272804,1.627128987313045,-7.148471727976896,5.713835280253626
2.4197893891301656,-0.9110234384244378,3.345674417600411,1.6842673401155812,-7.004996206799926,5.533775218319553
2.4106791547459214,-0.9810734004924371,3.3625170910015667,1.7396050922987767,-6.8596851728777,5.343447189893052
2.400868420740997,-1.049670252221214,3.3799131419245545,1.7930395641977073,-6.713829547143459,5.14411254331568
2.390371718218785,-1.1168085476926486,3.3978435375665317,1.844480689630864,-6.568788882380608,4.937058223954321
2.3792036327418584,-1.1824964365164548,3.4162883444628402,1.8938512718704072,-6.425966188434711,4.723556730081152
2.367378668376694,-1.246756098400802,3.4352268571815445,1.9410868391712188,-6.286783611466071,4.504826073986286
2.354911107392686,-1.3096239345154626,3.4546377255732565,1.9861350999110816,-6.15266038492063,4.28199156926108
2.341814868047531,-1.371150538364669,3.4744990765723673,2.0289550156036924,-6.024994216382294,4.056050905322265
2.3281033626638843,-1.431400480528492,3.494788626728404,2.0695155246569152,-5.9051469633572715,3.8278435314973507
2.3137893578585995,-1.4904519501620646,3.5154837819749734,2.1077939599718887,-5.794435119596694,3.598024907714994
2.2988848383569787,-1.5483963013580315,3.5365617215746923,2.1437742090490386,-5.694125315228676,3.367045734530884
2.2834008753433985,-1.6053375545103183,3.557999463665183,2.1774446663943476,-5.6054347545434435,3.1351358894537897
2.267347499798295,-1.6613919020557528,3.579773910329126,2.2087960252888856,-5.529536290881929,2.9022924945107693
2.2507335807777378,-1.7166872649645721,3.601861870582015,2.237818950233993,-5.467567674858019,2.668271334508042
2.233566708128092,-1.7713629417131522,3.6242400600843547,2.2645016635790736,-5.420644407258477,2.4325807388908407
2.2158530787109605,-1.825569385785737,3.6468850767201455,2.288827470967982,-5.389875571379377,2.1944770276868617
2.197597384853103,-1.8794681414995307,3.6697733514298254,2.3107722412448504,-5.376381996044541,1.9529606955344405
2.178802703438108,-1.933231961459976,3.692881073842274,2.330301848200195,-5.381316091434597,1.7067726594126498
2.1594703838235083,-1.987045122374322,3.716184092324276,2.3473695747943215,-5.405882684199101,1.4543901213437953
2.139599932599765,-2.0411039492163128,3.7396577880722193,2.3619134760077594,-5.451360133401264,1.1940218996878338
2.119188893107602,-2.0956175505503256,3.7632769228322966,2.373853695004638,-5.519120909855538,0.9236034736036709
2.0982327176020985,-2.150808759648881,3.787015459782343,2.3830897297406746,-5.610650640539054,0.6407924882421425
2.07672463000561,-2.206915266054272,3.81084635707975,2.389497654623096,-5.727564324667726,0.3429661203424849
2.0546554773450674,-2.2641909093009494,3.834741333625981,2.392927315826521,-5.871617980164479,0.027222557890897055
2.032013568252058,-2.322907089102594,3.858670606784246,2.3931995414054303,-6.044713332179673,-0.30961002652155334
2.008784497361032,-2.3833542224243907,3.8826026021983004,2.390103441140215,-6.248892253906716,-0.6709521429825889
1.9849509551367879,-2.4458431449634577,3.9065036366097026,2.383393919710389,-6.486316451361708,-1.0604324764635231
1.9604925236871533,-2.510706309477075,3.9303375758068064,2.372789594945754,-6.7592262824485365,-1.481818861521564
1.9353854605923826,-2.57829857230156,3.9540654717562638,2.3579714063305386,-7.06987055983293,-1.9389081898755591
1.909602474869367,-2.6489972778998894,3.977645185819569,2.338582324431783,-7.420396682640235,-2.4353587532244534
1.883112502090368,-2.7232012447262917,4.001031009063887,2.3142287368995382,-7.812687524217301,-2.9744438814014003
1.8558804896431051,-2.8013281199684648,4.024173296432882,2.2844842980855242,-8.248128367907922,-3.558700659695197
1.8278672084434204,-2.883809403647544,4.047018139413737,2.2488972914885723,-8.727284280898436,-4.189442641426226
1.799029114406945,-2.9710822464565285,4.069507112328623,2.20700286507431,-9.249466511750024,-4.866102083198278
1.7693182919423798,-3.0635769115740286,4.091577140979366,2.1583418442423272,-9.812167271561686,-5.585367543357189
1.7386825228266396,-3.1616985842896455,4.1131605594217895,2.1024881688087556,-10.410347930513916,-6.3400902359547215
1.707065536983743,-3.2658020635947844,4.134185441109877,2.0390872664492083,-11.035579535528976,-7.117952447469849
1.6744075163477952,-3.3761578589500743,4.154576313774369,1.96790774197451,-11.675060813688779,-7.899930221923291
1.6406459377582945,-3.492908467086962,4.174255391194114,1.888908439755277,-12.310581847881215,-8.658647571178088
1.6057168530874248,-3.616014285565774,4.193144475591667,1.802321964043496,-12.917564272290493,-9.356815890206416
1.5695567102317671,-3.7451899282886787,4.211167695232102,1.708753805141432,-13.464389387024568,-9.946078564394993
1.5321048109488804,-3.8798338221589246,4.228255233283516,1.609293019497482,-13.91231312406686,-10.366721621122602
1.4933064727272911,-4.018956953399593,4.244348163478491,1.505625803286256,-14.216336444083252,-10.54882958646687
1.4531169031932951,-4.1611203178404255,4.259404421511353,1.4001375074215872,-14.327410686974238,-10.415498324199428
1.411505700014891,-4.304394424710168,4.2734057965855685,1.2959825241795928,-14.196258682864142,-9.888581691240816
1.3684617557677892,-4.446357011538809,4.286365621827365,1.1970967072671845,-13.778841431961286,-8.897072806275697
1.323998185652401,-4.584145425858422,4.298336588900036,1.1081259792044276,-13.043093319284774,-7.38758632324166
1.2781567313938167,-4.71457635905127,4.309417848692081,1.034250115972011,-11.97605295130295,-5.335607173487972
1.231010967803304,-4.834336888564299,4.319760349851801,0.9808940442371312,-10.59007752363646,-2.755426967707438
1.1826675989176612,-4.940237663800664,4.329569290294173,0.9533397745600568,-8.92663431567473,0.2936906105508451
1.1332652222796544,-5.029504006957412,4.339102688039773,0.9562766806655653,-7.056364153076601,3.7073189746863084
1.0829701822100803,-5.100067648488178,4.3486654548464285,0.9933498704124284,-5.074736924891924,7.342877923919322
1.0319695057251985,-5.150815017737097,4.358598953550553,1.0667786496516216,-3.093539910362781,11.033544670924094
0.9804613555478275,-5.181750416840725,4.3692667400470695,1.1771140963608626,-1.2294109227127739,14.60710247557913
0.9286438513794203,-5.194044526067852,4.381037881010678,1.3231851211166539,0.40862305135486565,17.906449736641363
0.8767034061187418,-5.1899582955543035,4.3942697322218445,1.5022496184830676,1.730333060552787,20.807952993625108
0.8248038231631987,-5.172654964948776,4.409292228406676,1.7103291484193186,2.672173231418501,23.23427284066889
0.7730772735137109,-5.145933232634591,4.426395519890868,1.9426718768260076,3.2005862056824044,25.159637031675413
0.721617941187365,-5.113927370577767,4.445822238659129,2.194268247142762,3.310511375353593,26.60738755723785
0.6704786674815874,-5.080822256824231,4.467764921130557,2.4603421227151405,3.01992556363824,27.641400256404655
0.619670444913345,-5.050623001187848,4.492368342357708,2.736756125279187,2.3619546559525877,28.35411496133368
0.5691642149014665,-5.027003454628322,4.5197359036105,3.020297274892524,1.3762796145850955,28.854148217760706
0.5188941803551833,-5.013240658482471,4.549938876359425,3.308838757070131,0.10125222618410852,29.25589382362516
0.4687617737703586,-5.01222813622063,4.583027263930126,3.6013976953063827,-1.432461888561812,29.672525663631315
0.4186394924081523,-5.026552755106248,4.61904124088319,3.8981229519426956,-3.206532117365947,30.21283010464208
0.3683739648570898,-5.058618076279908,4.658022470402617,4.2002512529891165,-5.218215529342097,30.98160222062417
0.3177877840942907,-5.110800231573329,4.700024982932509,4.510067275195358,-7.482805716799946,32.08303047496112
0.26667978177855745,-5.185628288741328,4.745125655684462,4.83089757994497,-10.035957651356146,33.62649751867161
0.21482349889114416,-5.2859878652548895,4.793434631483912,5.167162555131686,-12.936508763883026,35.73438272625726
0.16196362023859526,-5.41535295289372,4.845106257035229,5.524506382394258,-16.270207033465745,38.551548889108496
0.10781009070965805,-5.578055023228377,4.900351320859172,5.910021871285343,-20.15424352265995,42.2558766757605
0.05202954047737428,-5.779597458454977,4.959451539572025,6.332580638042948,-24.741144138587643,47.06768416329946
-0.0057664341071754915,-6.027008899840854,5.022777345952455,6.803257479675943,-30.216933724936776,53.25108595008902
-0.06603652310558403,-6.329178237090222,5.090809920749214,7.335768339176833,-36.77860930003634,61.086848085293646
-0.12932830547648624,-6.6969643300905854,5.1641676041409825,7.946636820029769,-44.54964032880951,70.75984982858684
-0.1962979487773921,-7.14246073337868,5.24363397234128,8.654235318315637,-53.325237583855774,82.01093119551939
-0.2677225561111789,-7.675713109217238,5.3301763255244365,9.474344630270831,-61.89014588359811,93.19427083121128
-0.3444796872033513,-8.29461456805322,5.4249197718271445,10.406287338582944,-66.45726691931598,99.10671530139862
-0.4274258328838835,-8.959187237246379,5.528982645212974,11.39735449159693,-58.3196650358647,87.70871777432254
-0.5170177052563473,-9.542383887605027,5.642956190128943,12.274441669340156,-25.361193857657277,42.21415608064247
-0.6124415441323976,-9.7959958261816,5.765700606822344,12.696583230146581,30.50883200890956,-34.62188775878574
-0.7104015023942136,-9.490907506092503,5.89266643912381,12.350364352558724,76.52624925593385,-97.23898086808805
-0.8053105774551387,-8.725645013533164,6.016170082649397,11.377974543877844,88.52755966150626,-112.45590298222447
-0.8925670275904704,-7.840369416918102,6.129949828088176,10.2534155140556,79.50485381295925,-98.6708827119289
-0.9709707217596514,-7.045320878788509,6.2324839832287315,9.266706686936311,66.20720269399996,-79.09782213552367
-1.0414239305475366,-6.383248851848509,6.3251510500980945,8.475728465581074,54.72283652597459,-62.04084969638749
-1.1052564190660217,-5.8360204865887635,6.409908334753905,7.8553199686171995,45.937634712718655,-48.6297478098285
-1.1636166239319092,-5.376644139461577,6.488461534440077,7.369022490518915,39.431296726343746,-38.22602137341782
-1.217383065326525,-4.98233117219814,6.562151759345266,6.986762276784736,34.650958975562475,-30.03068606697192
-1.2672063770485065,-4.635821582442515,6.632019382113113,6.686455416115017,31.153917701271332,-23.409461275967864
-1.3135645928729316,-4.324282405429801,6.698883936274264,6.452360803355338,28.620375815279765,-17.906223360321025
-1.3568074169272295,-4.038078647277003,6.763407544307817,6.273298569752128,26.82368993988362,-13.20166796457574
-1.3971882033999996,-3.769841747878167,6.826140530005339,6.14128189010637,25.600650563190374,-9.074661577250305
-1.4348866208787814,-3.5138352422462633,6.887553348906403,6.050535274333867,24.82860680114829,-5.375213289403756
-1.470024973301244,-3.2655491742347804,6.9480587016497415,5.996783141439829,24.408510877958964,-2.0076740391705457
-1.5026804650435919,-3.021464065455191,7.00802653306414,5.976706401048124,24.251975632296936,1.0785913042633686
-1.5328951056981437,-2.7789443091322217,7.067793597074621,5.987492314090757,24.270950083497024,3.893487958891958
-1.5606845487894658,-2.5362348082972512,7.127668520215528,6.026427193679677,24.369425645492274,6.407593162862604
-1.5860468968724384,-2.2925405518423285,7.187932792152325,6.090503125308302,24.437488471171783,8.552996219260883
-1.6089723023908618,-2.0481656671306108,7.248837823405408,6.176033087500911,24.34899604866518,10.226443670530522
-1.629453959062168,-1.804675706643959,7.310598154280417,6.2782975242062165,23.96500826058387,11.298272675304405
-1.6475007161286075,-1.5650256240381202,7.373381129522479,6.391280250959261,23.145371871235763,11.630603197300504
-1.6631509723689888,-1.3335719053257624,7.4372939320320715,6.507586282932266,21.769753930408662,11.106556937594029
-1.6764866914222465,-1.115874366021676,7.502369794861394,6.618651852308206,19.766208396586123,9.66794803318598
-1.6876454350824632,-0.9182122820558146,7.568556313384477,6.715331332640066,17.140289197143233,7.352351398846075
-1.6968275579030214,-0.7468093900843823,7.635709626710877,6.788854846628526,13.993083768907995,4.314748568871909
-1.7042956518038652,-0.6068785523953023,7.703598175177163,6.832002332317245,10.516425502462546,0.8193141224246154
-1.7103644373278182,-0.5017142973706769,7.771918198500336,6.840195473541491,6.960925501095462,-2.8031334555786165
-1.7153815803015249,-0.43210504235972225,7.8403201532357505,6.812164138985705,3.585080329249543,-6.220311671103438
-1.7197026307251222,-0.3962542390672268,7.908441794625608,6.749961022274671,0.6036846903256653,-9.162514127338058
-1.7236651731157944,-0.3902173921639701,7.975941404848355,6.658335881001291,-1.8462795806442587,-11.462875442084473
-1.727567347037434,-0.4086801879704127,8.042524763658367,6.543707126580446,-3.713981320802253,-13.064534767634651
-1.7316541489171382,-0.44582000117843523,8.107961834924172,6.413061778904099,-5.021170051329739,-14.000792092687478
-1.7361123489289225,-0.4960317016917326,8.172092452713214,6.273053857977224,-5.837469683801465,-14.362485688179454
-1.7410726659458398,-0.5544063985297473,8.234822991292987,6.1294290010954295,-6.255109701676471,-14.265879366410148
-1.7466167299311373,-0.616957495546512,8.29611728130394,5.986770207431328,-6.36940003998715,-13.828572875321248
-1.7527863048866024,-0.6806514959463835,8.355984983378255,5.848484478678116,-6.266723414272887,-13.155190615348904
-1.7595928198460662,-0.7433187300891124,8.414469828165036,5.716932572524627,-6.018992505759509,-12.33118957160396
-1.7670260071469572,-0.8035086551467076,8.471639153890282,5.593620676808587,-5.682511061230868,-11.422033860873793
-1.7750610936984244,-0.8603337657590162,8.527575360658368,5.4794003381998495,-5.299290524673661,-10.475250760729422
-1.7836644313560146,-0.9133266710057528,8.582369364040366,5.374647830592555,-4.899413916824748,-9.523626435502278
-1.792797698066072,-0.9623208101740003,8.63611584234629,5.279411566237532,-4.503597238608685,-8.588522052694652
-1.802420906167812,-1.007356782560087,8.688909958008667,5.193526345710586,-4.125518692208081,-7.682816422637492
-1.812494473993413,-1.0486119694821678,8.740845221465772,5.116698181484211,-3.7737503361781832,-6.813302825045904
-1.8229805936882346,-1.0863494728439496,8.792012203280613,5.048565153233752,-3.453270809651003,-5.982537401819173
-1.833844088416674,-1.1208821809404597,8.842497854812951,4.98873977921556,-3.1666041615482885,-5.190210966141174
-1.8450529102260786,-1.1525482225559425,8.892385252605106,4.936837669554149,-2.914652156671892,-4.434138009344182
-1.8565783924516381,-1.1816947441226613,8.941753629300647,4.8924962894607065,-2.6972876498153164,-3.710953271277619
-1.8683953398928648,-1.2086676206208145,8.990678592195254,4.85538675674793,-2.513767461341256,-3.0165928966874187
-1.880482016099073,-1.233805295234227,9.039232459762733,4.825220827781056,-2.363011316855526,-2.346621808046399
-1.8928200690514152,-1.2574354084027823,9.087484668040544,4.801754609700592,-2.243781906691571,-1.6964550337647868
-1.905394423135443,-1.279873227469698,9.13550221413755,4.784790059362944,-2.154791111878138,-1.0615096264994508
-1.91819315541014,-1.3014211385884793,9.183350114731178,4.774174963097949,-2.094749097450521,-0.43731571711770484
-1.9312073667960248,-1.3223686295629844,9.231091864362158,4.769801805926773,-2.0623660204484167,0.18039000600113467
-1.9444310530916546,-1.3429922897674686,9.278789882421426,4.771605705986784,-2.056310101253944,0.7955677918073298
-1.9578609759893293,-1.3635553907800082,9.326505939481294,4.779561383904857,-2.075120286953195,1.4117550256376796
-1.9714965298971294,-1.3843065936495402,9.374301553320342,4.7936789341612345,-2.117066242967676,2.031900945756267
-1.9853395958336248,-1.405477256079217,9.422238342661954,4.813997943618797,-2.179942571555322,2.658129579754625
-1.999394368394417,-1.4272766817947702,9.470378322098142,4.840579239416344,-2.2607777718545234,3.2913984252652937
-2.0136671352123647,-1.4498844595133153,9.518784114492306,4.873493223668997,-2.355431692947476,3.931012640401514
-2.028165979807498,-1.47343877644279,9.567519046728995,4.912803350073012,-2.4580490194185516,4.57394657319037
-2.0429003675719257,-1.4980192666369756,9.616647080229725,4.958542815804916,-2.5603330999383425,5.213919697416715
-2.0578805602382957,-1.523622597636359,9.666232508387775,5.010682012779083,-2.650609381138741,5.840179492433211
-2.0731167862146593,-1.5501286914477466,9.716339328515566,5.069083807703415,-2.712670731518079,6.435972962633245
-2.088618073129137,-1.5772553987629274,9.767030166592601,5.133443537329748,-2.7244549833111815,6.976764542632745
-2.104390627116766,-1.6044999485960392,9.818364601965898,5.203211182756075,-2.6567235258659827,7.42841618356226
-2.1204356266027267,-1.631067183854699,9.87039671379346,5.2774953445916974,-2.472119031416776,7.745827755386327
-2.1367462984412735,-1.6557883741688668,9.923171667239377,5.354953622145561,-2.125297566317717,7.872967733951238
-2.1533041821829624,-1.677041349832044,9.976721203460832,5.4336832994850734,-1.5652127534862594,7.745749540564585
-2.170074595681283,-1.6926934773669067,10.031058036455683,5.51114079489072,-0.7408897764398618,7.299573683144638
-2.187001530454952,-1.7001023751313054,10.08616944440459,5.584136531722166,0.38825676258014663,6.482983690360092
-2.204002554206265,-1.696219807505504,10.14201080972181,5.648966368625767,1.837938086148447,5.276946809983688
-2.22096475228132,-1.6778404266440194,10.198500473408068,5.701735836725604,3.583616730126382,3.715325544958927
-2.23774315654776,-1.6420042593427557,10.255517831775324,5.738889092175193,5.5509645385738215,1.8974236716008794
-2.2541631991411877,-1.5864946139570175,10.312906722697075,5.757863328891202,7.620039332492792,-0.018050043327210427
-2.270028145280758,-1.5102942206320895,10.370485355985988,5.75768282845793,9.646726595569497,-1.8422594715201455
-2.2851310874870787,-1.4138269546763946,10.428062184270567,5.739260233742728,11.495623585403045,-3.400611546709389
-2.2992693570338427,-1.2988707188223643,10.485454786607995,5.705254118275634,13.070590931884357,-4.573367371278096
-2.3122580642220663,-1.1681648095035206,10.542507327790752,5.659520444562853,14.330006890816138,-5.3150481028291106
-2.3239397123171015,-1.0248647405953593,10.59910253223638,5.606369963534561,15.28313018440627,-5.648203374652674
-2.334188359723055,-0.8720334387512966,10.655166231871725,5.549887929788035,15.973870433154019,-5.640550839555178
-2.342908694110568,-0.7122947344197563,10.710665111169606,5.493482421392483,16.461719497446587,-5.37891810113746
-2.3500316414547657,-0.5476775394452904,10.76559993538353,5.439693240381108,16.806766815231146,-4.949272540707367
-2.3555084168492186,-0.37960987129297896,10.819996867787342,5.390200514974034,17.061029606441195,-4.425608154674996
-2.3593045155621484,-0.208999575228567,10.873898872937083,5.3459444334272845,17.265141087272923,-3.866152034110812
