th1 (rad),w1 (rad/s),th2 (rad),w2 (rad/s),a1 (rad/s^2),a2 (rad/s^2)
5.308092203699602,-2.903779054495837,2.148694178313866,0.4397810172046096,7.867523962101542,-0.49245461624245845
5.279054413154644,-2.8251038148748213,2.153091988485912,0.434856471042185,8.472155565221327,0.4108805600667418
5.250803375005896,-2.740382259222608,2.157440553196334,0.4389652766428524,9.006474326733121,1.1965826432567073
5.22339955241367,-2.650317515955277,2.1618302059627625,0.45093110307541945,9.467527528194683,1.8611513321501802
5.1968963772541175,-2.5556422406733303,2.1663395169935167,0.46954261639692124,9.85504719870231,2.4052076795432544
5.171339954847384,-2.457091768686307,2.171034943157486,0.4935946931923538,10.171053365535025,2.8328961887107744
5.146769037160521,-2.355381235030957,2.1759708900894097,0.5219236550794615,10.41940871001151,3.15119657503149
5.123215224810211,-2.2511871479308416,2.1811901266402045,0.5534356208297764,10.60536224260336,3.369209252916978
5.100703353330903,-2.145133525504808,2.1867244828485024,0.5871277133589462,10.735111868418633,3.4974661394851396
5.079252018075855,-2.0377824068206216,2.1925957599820918,0.6221023747537976,10.815407523969302,3.5473045437694974
5.0588741940076485,-1.9296283315809286,2.19881678372963,0.6575754201914925,10.853208761516338,3.5303284116686093
5.039577910691839,-1.8210962439657652,2.205392537931545,0.6928787043081786,10.8554037726615,3.4579691603962956
5.021366948252181,-1.7125422062391502,2.2123213249746265,0.7274583959121415,10.828591180987555,3.3411484312109985
5.00424152618979,-1.6042562944292746,2.219595908933748,0.7608698802242514,10.778921618034362,3.190037599445205
4.988198963245497,-1.496467078248931,2.2272046077359904,0.7927702562187035,10.711993112440316,3.013903789421112
4.973234292463008,-1.389347147124528,2.2351323102981775,0.8229092941129146,10.632792549415528,2.821029215586943
4.959340820991763,-1.2830192216303726,2.2433614032393066,0.851119586268784,10.545674707650551,2.618689542349244
4.946510628775459,-1.177562474553867,2.2518725991019943,0.8773064816922764,10.454370427563973,2.413177195187289
4.93473500402992,-1.0730187702782275,2.260645663918917,0.9014382536441493,10.362016076414069,2.2098567365962953
4.924004816327138,-0.9693986095140867,2.2696600464553587,0.9235368210101123,10.271197437953512,2.013241158322281
4.914310830231997,-0.8666866351345516,2.2788954146654596,0.943669232593335,10.184002286409465,1.827079922401512
4.905643963880652,-0.7648466122704569,2.288332106991393,0.9619400318173501,10.102077067419723,1.6544515736109064
4.897995497757948,-0.6638258415962597,2.2979515073095667,0.9784845475534591,10.02668420496057,1.4978555879462123
4.891357239341985,-0.563558999546654,2.3077363527851014,0.9934631034329213,9.958757523772736,1.3592997248561112
4.885721649346518,-0.4639714243089266,2.3176709838194305,1.0070561006814824,9.898954092454268,1.2403804762509338
4.8810819351034285,-0.364981883384384,2.3277415448262455,1.0194599054439917,9.847701447028813,1.1423552508266392
4.877432116269585,-0.26650486891409586,2.3379361438806856,1.030883457952258,9.80523965733692,1.0662057196316916
4.874767067580444,-0.16845247234072666,2.348244978460208,1.041545515148575,9.771658066779125,1.0126923124911837
4.873082542857037,-0.07073589167293541,2.358660433611694,1.051672438273487,9.746926791496529,0.9824002341906269
4.872375183940307,0.026733376242029885,2.3691771579944287,1.0614964406153933,9.730923230366706,0.9757776030803957
4.872642517702728,0.12404260854569694,2.3797921224005827,1.0712542166461971,9.723453933099709,0.9931664382878985
4.8738829437881845,0.22127714787669403,2.3905046645670445,1.0811858810290762,9.724272218504584,1.0348272652077595
4.876095715266952,0.3185198700617399,2.4013165233773353,1.0915341536811538,9.733091943874967,1.1009580970409074
4.879280913967569,0.41585078950048954,2.4122318649141468,1.102543734651563,9.749597811589746,1.191708502257067
4.883439421862573,0.513346767616387,2.4232573022606623,1.1144608196741337,9.77345256986107,1.3071893987073124
4.888572889538738,0.6110812933149977,2.4344019104574035,1.1275327136612068,9.804301428150936,1.4474791355994368
4.894683702471887,0.709124307596507,2.4456772375940155,1.1420075050172012,9.84177396927001,1.6126263424947838
4.901774945547852,0.8075420472892071,2.4570973126441875,1.158133768442149,9.885483803220511,1.8026499453868243
4.909850366020744,0.9063968853214122,2.468678650328609,1.1761602678960172,9.935026174977661,2.017536677572687
4.918914334873958,1.0057471470711887,2.480440253007569,1.1963356346717442,9.989973711327597,2.2572363500293173
4.92897180634467,1.1056468841844647,2.4924036093542865,1.2189079981720374,10.04987047172399,2.5216550941538682
4.940028275186514,1.2061455889017045,2.504592689336007,1.2441245491135762,10.11422445561971,2.8106467503053283
4.952089731075532,1.3072878334579017,2.517033934827143,1.2722310166166295,10.182498714325396,3.124002549547516
4.96516260941011,1.4091128206011556,2.529756244993309,1.3034710421121047,10.25410121938534,3.461439224076356
4.979253737616122,1.511653832795009,2.5427909554144303,1.3380854343528683,10.328373651798472,3.8225856845624584
4.994370275944072,1.614937569312994,2.556171809757959,1.376311291198493,10.404579296997339,4.206968420369316
5.010519651637202,1.7189833622829673,2.569934922669944,1.418380975402186,10.481890258918982,4.613995811311729
5.027709485260032,1.8238022648721572,2.5841187324239656,1.4645209335153033,10.559374241994849,5.042941586811194
5.045947507908753,1.9293960072921057,2.5987639417591186,1.5149503493834153,10.635981191226877,5.492927728824477
5.065241467981674,2.0357558192043745,2.613913445252953,1.5698796266716601,10.71053012588829,5.962907186695258
5.085599026173718,2.1428611204632575,2.6296122415196694,1.6295086985386127,10.781696549259491,6.451646851878983
5.1070276373783505,2.2506780859558524,2.6459073285050554,1.6940251670574025,10.848000861830167,6.9577113236947925
5.129534418237909,2.359158094574154,2.6628475801756295,1.7636022802943505,10.90779824433717,7.479448077666861
5.153125999183651,2.468236077017526,2.680483602978573,1.838396761071019,10.959270504773746,8.014974717766902
5.177808359953826,2.5778287820652634,2.6988675705892833,1.918546508248688,11.00042039428363,8.562169043506518
5.203586647774478,2.6878329860081,2.7180530356717703,2.0041681986837534,11.029068884387593,9.118662681600975
5.2304649776345595,2.7981236748519756,2.738094717658608,2.095354825499763,11.042855856046883,9.681839008363042
5.2584462143830795,2.9085522334124443,2.7590482659136057,2.1921732155833937,11.039244574101629,10.248836011799979
5.287531736717204,3.0189446791534604,2.78096999806944,2.2946615757013937,11.0155302046266,10.81655460173352
5.317721183508739,3.1290999811997264,2.8039166138264537,2.402827121718729,10.968852476271167,11.381672665315897
5.349012183320736,3.238788505962438,2.827944885043641,2.516643848371888,10.896212391891671,11.94066488208533
5.38140006838036,3.347750629881355,2.8531113235273597,2.636050497192741,10.794492670649676,12.489827961939154
5.414877574679174,3.4556955565878518,2.879471828499287,2.760948776812133,10.660481355727384,13.025310564343659
5.449434530245052,3.5623003701451257,2.9070813162674085,2.891201882455569,10.490897777479438,13.543146720822717
5.485057533946503,3.66720934791992,2.9359933350919643,3.0266333496637965,10.282419840827485,14.03929114879688
5.521729627425702,3.770033546328195,2.9662596685886022,3.1670262611517654,10.031711438959407,14.509654456766485
5.559429962888984,3.870350660717789,2.9979299312001197,3.3121228057194303,9.735448716671705,14.950135950693335
5.598133469496162,3.967705147884506,3.031051159257314,3.4616241652263637,9.39034395124065,15.356651616855746
5.637810520975007,4.061608587396912,3.065667400909578,3.615190681394921,8.993166020256583,15.725154936518468
5.678426606848976,4.151540247599478,3.101819307723527,3.7724422307601055,8.540756813052365,16.051648537933076
5.7199420093249715,4.236947815730002,3.139543730031128,3.9329587161394364,8.03004353481807,16.332185357526125
5.762311487482272,4.317248251078182,3.1788733171925228,4.096280569714698,7.458047656625824,16.56285899518721
5.805483969993054,4.391828727644441,3.21983612288967,4.26190915966657,6.821892269179384,16.739784317081583
5.849402257269498,4.460047650336235,3.2624552144863355,4.429307002837386,6.118810769564844,16.85907106386615
5.89400273377286,4.521235758031883,3.3067482845147094,4.597897713476048,5.346161087264135,16.91679520783792
5.939215091353178,4.574697368904525,3.35272726164947,4.767065665554427,4.5014509428464615,16.908974971480795
5.9849620650422235,4.61971187833299,3.400397918305014,4.936155415269235,3.58238079363517,16.831560621732173
6.031159183825554,4.655535686269341,3.4497594724577065,5.104471021486557,2.5869119706115136,16.680449175842334
6.077714540688247,4.681404805975457,3.500804182672572,5.27127551324498,1.513367811900056,16.451536709965627
6.124528588748002,4.696538484094457,3.553516937805022,5.435790880344636,0.3605750599149288,16.140821686244244
6.171493973588946,4.700144234693607,3.6078748466084685,5.597199097207079,-0.8719489185278742,15.744572170750951
6.218495415935882,4.6914247455083276,3.663846837580539,5.7546448189145885,-2.1837607441557423,15.259567518978612
6.265409663390965,4.66958713806677,3.7213932857696848,5.907240494104375,-3.573210127752274,14.683420585079215
6.312105534771633,4.633855036789248,3.7804656907107286,6.054074699955168,-5.037123046703173,14.014979406929934
6.358444085139525,4.583483806322216,3.84100643771028,6.194224494024467,-6.57046727867761,13.254797535583124
6.404278923202748,4.5177791335354405,3.902948682650525,6.326772469380298,-8.166028477942374,12.40565006834083
6.449456714538102,4.436118848756017,3.966216407344328,6.450828970063706,-9.814134960775815,11.473059001602744
6.493817903025662,4.337977499148259,4.030724697044965,6.565559560079734,-11.502477699987184,10.465778501924577
6.537197678017145,4.222952722148388,4.096380292645763,6.67021734509898,-13.216076488465502,9.39618060818733
6.579427205238629,4.090791957263733,4.1630824660967525,6.764179151180853,-14.937441410932394,8.28047771953142
6.620335124811266,3.9414175431544085,4.230724257608561,6.846983928376167,-16.64696863284616,7.138722922211678
6.65974930024281,3.774947856825947,4.299194096892323,6.918371157598283,-18.32359015864325,5.994544813308347
6.697498778811069,3.5917119552395147,4.368377808468305,6.978316605731367,-19.945669550679522,4.874600251147387
6.733415898363464,3.3922552597327194,4.438160974525619,7.027062608242841,-21.4921028416662,3.8077641659917534
6.767338450960792,3.1773342313160575,4.508431600608048,7.0651402499027585,-22.94355137489809,2.824115313917833
6.799111793273952,2.9478987175670768,4.579083003107075,7.093381403041937,-24.28370769651059,1.9538137761784697
6.828590780449623,2.7050616406019707,4.6500168171374945,7.112919540803722,-25.500483258300775,1.2259927170811729
6.855641396855643,2.450056808018963,4.721146012545532,7.125179467974533,-26.5870118456854,0.6677975057147625
6.880141964935833,2.1841866895621087,4.792397807225277,7.131857443031681,-27.54238606706191,0.3036971701021937
6.901983831831454,1.9087628288914895,4.8637163816555935,7.1348944147327025,-28.37208262388733,0.1551679772111705
6.921071460120369,1.6250420026526162,4.9350653258029205,7.136446094504814,-29.088078779230045,0.24081244570613577
6.937321880146895,1.3341612148603157,5.006429786747969,7.1388542189618756,-29.70870919949419,0.5769375587926601
6.950663492295498,1.0370741228653737,5.077818328937587,7.1446235945498024,-30.2583514195492,1.178581885669
6.961034233524152,0.7344906086698817,5.149264564883085,7.156409413406492,-30.76705406832444,2.060959244893808
6.9683791396108505,0.4268200679866373,5.220828659017149,7.17701900585543,-31.270232024648077,3.2412790989564066
6.972647340290717,0.11411774774015654,5.292598849075704,7.209431796844995,-31.808546103550224,4.740908501269785
6.973788517768118,-0.2039677132953457,5.3646931670441536,7.256840881857693,-32.4280601065381,6.587847664889312
6.971748840635165,-0.5282483143607266,5.43726157586273,7.322719358506586,-33.18071734969467,8.819480630766858
6.966466357491558,-0.8600554878576733,5.510488769447796,7.410914164814255,-34.125078159530574,11.485491985631421
6.957865802612981,-1.201306269452979,5.584597911095939,7.525769084670569,-35.32704873340476,14.650620468577783
6.945852739918451,-1.5545767567870266,5.6598556019426445,7.672275289356347,-36.8598688995381,18.39635325851247
6.930306972350581,-1.9231754457824075,5.736578354836208,7.856238821941472,-38.8015924108814,22.81930988829569
6.9110752178927575,-2.3111913698912216,5.815140743055623,8.084431920824429,-41.225981087182596,28.02094134757771
6.887963304193845,-2.7234511807630475,5.895985062263867,8.364641334300206,-44.17762746107219,34.07615904471221
6.860728792386215,-3.1652274553737696,5.97963147560687,8.705402924747329,-47.61123424329329,40.95339334156089
6.829076517832478,-3.6413397978067024,6.066685504854343,9.114936858162938,-51.25376531986483,48.32881246632851
6.792663119854411,-4.153877451005351,6.157834873435973,9.598224982826224,-54.31641189710116,55.19207154276342
6.7511243453443575,-4.697041569976363,6.253817123264235,10.150145698253858,-54.98018868044155,59.1332329765808
6.704153929644594,-5.246843456780778,6.355318580246774,10.741478028019667,-49.806751799791506,55.51030392767661
6.651685495076786,-5.744910974778693,6.46273336052697,11.296581067296433,-34.193201709533675,38.03361968448289
6.594236385328999,-6.08684299187403,6.575699171199934,11.676917264141261,-6.385178525499142,4.244909500651153
6.5333679554102595,-6.150694777129021,6.692468343841347,11.719366359147774,26.0221444847521,-35.58699017873761
6.471861007638969,-5.8904733322815,6.809662007432825,11.363496457360398,49.209514365385026,-62.85214585103952
6.412956274316154,-5.39837818862765,6.92329697200643,10.734974998850003,57.55196368563675,-70.3073418028963
6.358972492429878,-4.822858551771282,7.03064672199493,10.03190158082104,56.001726409874856,-64.97353260941998
6.310743906912165,-4.262841287672534,7.13096573780314,9.38216625472684,50.76125814179789,-55.259344121088866
6.26811549403544,-3.7552287062545546,7.224787400350409,8.829572813515952,45.09652510582906,-45.4349312743231
6.230563206972894,-3.304263455196264,7.313083128485569,8.375223500772721,40.137620994584736,-36.872040183956884
6.197520572420931,-2.9028872452504166,7.396835363493296,8.006503098933152,36.104091450738,-29.7513167038885
6.168491699968427,-2.5418463307430366,7.4769003944826276,7.7089899318942665,32.91710875317167,-23.88960646373451
6.143073236660996,-2.21267524321132,7.55399029380157,7.470093867256922,30.429511803962097,-19.040162563781895
6.120946484228883,-1.908380125171699,7.628691232474139,7.279692241619102,28.4993128437029,-14.98276106656421
6.101862682977166,-1.62338699673467,7.70148815489033,7.129864630953461,27.00781283289503,-11.542060709951842
6.085628813009819,-1.3533088684057195,7.772786801199865,7.014444023853942,25.860010419798144,-8.584446174036712
6.072095724325762,-1.094708764207738,7.8429312414384045,6.9285995621135745,24.980323823989114,-6.010107963175503
6.061148636683685,-0.8449055259678468,7.91221723705954,6.86849848248182,24.307829001775087,-3.7454311124560906
6.052699581424006,-0.601827235950096,7.980902221884358,6.8310441713572585,23.792191207703745,-1.7368864278686136
6.046681309064505,-0.3639053238730586,8.049212663597931,6.813675307078572,23.39048104319889,0.05357866382022159
6.043042255825775,-0.13000051344106966,8.117349416668716,6.814211093716774,23.06478431259105,1.6519559620203226
6.041742250691364,0.10064732968484086,8.185491527605883,6.830730653336977,22.780467123159227,3.0747290627492325
6.042748723988212,0.3284520009164331,8.253798834139253,6.86147794396447,22.50497931832234,4.3308421832717245
6.0460332439973765,0.5535017940996565,8.322413613578899,6.904786365797187,22.20711407308592,5.423304398601614
6.051568261938373,0.7755729348305157,8.39146147723687,6.9590194097832025,21.856670549315865,6.350594396457098
6.059323991286678,0.9941396403236744,8.461051671334703,7.022525353747773,21.424483958629274,7.107983719243219
6.0692653876899145,1.2083844799099672,8.53127692487218,7.093605190940205,20.882791547557023,7.688852761750136
6.081349232489014,1.4172123953855373,8.602212976781583,7.170493718557706,20.205894053084634,8.086030341213217
6.09552135644287,1.6192713359163837,8.673917913967161,7.2513540219698385,19.37105187273384,8.293143490047191
6.111714069802034,1.8129818546437222,8.74643145418686,7.33428545687031,18.359527567388916,8.305921515066322
6.1298438883484705,1.9965771303176114,8.819774308755562,7.417344672020973,17.15765803567999,8.123363059530957
6.1498096596516465,2.168153710674411,8.893947755475772,7.498578302616282,15.757819693766097,7.7486552015527845
6.1714911967583905,2.325731907612072,8.968933538501934,7.57606485463181,14.159147748936212,7.189738037881158
6.194748515834512,2.4673233851014342,9.044694187048252,7.647962235010622,12.367893202538335,6.459441810471744
6.219421749685526,2.5910023171268177,9.121173809398359,7.71255665311534,10.397349600002098,5.575184172739498
6.245331772856794,2.6949758131268386,9.198299375929512,7.768308494842735,8.267348311244627,4.558290770071189
6.272281530988062,2.777649296239285,9.27598246087794,7.8138914025434465,6.003390654228928,3.4330726605880013
6.300058023950455,2.8376832027815744,9.354121374903373,7.848222129149327,3.6355378207243665,2.2258362191435452
6.328434855978271,2.874038580988818,9.432603596194866,7.870480491340762,1.1971987611832526,0.9639979047355844
6.357175241788159,2.8860105686006507,9.511308401108273,7.8801204703881185,-1.2760642797435373,-0.32457561425200476
6.386035347474166,2.8732499258032154,9.590109605812154,7.876874714245599,-3.747645062587976,-1.6119679963649771
6.414767846732198,2.835773475177336,9.66887835295461,7.860755034281949,-6.180913781212019,-2.8704140813300465
6.4431255814839705,2.7739643373652156,9.74748590329743,7.832050893468648,-8.540195650197829,-4.072430221751759
6.470865224857623,2.6885623808632375,9.825806412232117,7.7913265912511305,-10.791772816606917,-5.191025304440754
6.497750848666255,2.5806446526971683,9.903719678144629,7.739416338206723,-12.904953674332946,-6.2001114945165625
6.5235572951932275,2.4515951159538387,9.981113841526696,7.677415223261558,-14.853202016930192,-7.075159120892903
6.548073246352766,2.3030630957845366,10.057887993759312,7.606663632052628,-16.615256452875503,-7.794048495482356
6.571103877310612,2.1369105312557815,10.133954630079838,7.528723147097804,-18.176121789269775,-8.337992335255711
6.592472982623169,1.9551493133630837,10.209241861550817,7.4453432237452475,-19.527796948908293,-8.692359241838979
6.6120244757568,1.7598713438740008,10.28369529378827,7.358419631326858,-20.669625143270864,-8.847231580093732
6.62962318919554,1.5531750924412921,10.357279490101538,7.26994731552592,-21.60820526247034,-8.79757527002592
6.645154940119952,1.3370930398165888,10.429978963256797,7.181971562825661,-22.356873040889912,-8.542968147773207
6.658525870518118,1.1135243094076896,10.501798678885054,7.096541881347928,-22.93482763354509,-8.086906641240677
6.669661113612195,0.8841760330722388,10.572764097698533,7.015672814935521,-23.366028201474883,-7.4357689517910375
6.678502873942917,0.6505157510574899,10.642920825847888,6.941315125417611,-23.678007818101676,-6.59754545310279
6.685008031453492,0.41373567287647317,10.712333977102064,6.875339670886583,-23.900748655342735,-5.580451077792411
6.689145388182257,0.17472818632304582,10.78108737381093,6.819535160108659,-24.065739540537567,-4.391514647705745
6.690892670045487,-0.06592920908232985,10.849282725412017,6.775620013631602,-24.205304165373185,-3.035204833875307
6.690233377954664,-0.3079822507360617,10.917038925548333,6.7452679652928484,-24.35225481914379,-1.512110598860561
6.687153555447304,-0.5515047989274997,10.984491605201262,6.730146859304243,-24.539899425997703,0.18234737459846023
6.681638507458029,-0.7969037931874767,11.051793073794304,6.731970333050228,-24.80241242483961,2.0592342572559885
