th1 (rad),w1 (rad/s),th2 (rad),w2 (rad/s)
0.6285742106301206,-0.5058072903553927,2.9638177909988643,2.0400952211193912
0.6235161377265667,-0.5705563367332226,2.984218743210058,1.9761030502746761
0.6178105743592345,-0.6370845401706895,3.003979773712805,1.9111983746704868
0.6114397289575276,-0.7053159234322909,3.02309175745951,1.8453009881868947
0.6043865697232047,-0.7751685021300606,3.0415447673413794,1.7783426814101468
0.5966348847019041,-0.8465524402144982,3.059328194155481,1.7102699952970588
0.5881693602997591,-0.9193680540256008,3.0764308941084515,1.6410472576264032
0.578975679759503,-0.9935036847782885,3.0928413666847154,1.570659880406264
0.5690406429117202,-1.06883346941729,3.108547965488778,1.4991178812192727
0.5583523082175473,-1.1452150513953048,3.123539144300971,1.4264595733025232
0.5469001577035942,-1.222487285859349,3.137803740033996,1.3527553482193717
0.5346752848450007,-1.300468007526022,3.15133129351619,1.2781114518467316
0.5216706047697405,-1.3789519435066586,3.1641124080346574,1.202673630016238
0.5078810853346739,-1.4577088665814653,3.1761391443348197,1.1266304958790907
0.49330399666885927,-1.536482095758563,3.187405449293611,1.0502164487128594
0.47793917571127364,-1.6149874590475017,3.1979076137807394,0.973713955638138
0.46178930112079863,-1.6929128367960948,3.207644753337121,0.8974549960137957
0.4448601727528377,-1.7699184013020397,3.216619303297259,0.8218214656532377
0.4271609887398173,-1.8456376585592036,3.2248375179537914,0.7472443467764253
0.40870461215422527,-1.919679380196038,3.2323099614215556,0.6742014715938774
0.3895078183522649,-1.9916304877829472,3.2390519761374943,0.6032137435707658
0.3695915134744354,-2.0610599183524734,3.245084113573202,0.5348397305591289
0.34898091429091066,-2.127523460631862,3.250432510878793,0.4696686065949164
0.327705679684592,-2.1905695083358987,3.255129196944742,0.40831149134350075
0.30579998460123303,-2.2497456326951744,3.259212311858177,0.35139131384280026
0.28330252827428126,-2.3046058342715123,3.2627262249966047,0.2995314053905423
0.26025646993156615,-2.354718297015877,3.26572153905051,0.25334309988006765
0.2367092869614074,-2.399673437949585,3.268254970049311,0.21341268361225005
0.21271255258191155,-2.439092025483553,3.2703890968854332,0.18028808645024613
0.18832163232707602,-2.4726331289231203,3.2721919777499355,0.15446573925972215
0.1635953010378448,-2.500001660832056,3.2737366351425328,0.1363780374711549
0.13859528442952423,-2.520955281543465,3.2751004155172443,0.12638184727291873
0.11338573161408959,-2.535310449658179,3.2763642339899737,0.12474847040813943
0.0880326271175078,-2.542947422305373,3.277611718694055,0.13165544739540364
0.06260315289445406,-2.543814033100902,3.278928273168009,0.14718052889631175
0.03716501256344504,-2.5379281036550365,3.2804000784569722,0.17129808229993887
0.011785731526894671,-2.5253783764335203,3.2821130592799714,0.20387812636659045
-0.013468052237440534,-2.5063238936165306,3.2841518405436374,0.24468810172054511
-0.03853129117360584,-2.4809917893470907,3.2865987215608428,0.29339739006879256
-0.06334120906707674,-2.4496735120455324,3.2895326954615305,0.34958449203593756
-0.08783794418753207,-2.4127195489656925,3.29302854038189,0.4127466656397276
-0.111965139677189,-2.3705327851615032,3.297156007038287,0.48231171966292624
-0.13567046752880405,-2.323560690228961,3.3019791242349164,0.5576515552417209
-0.15890607443109367,-2.27228658390709,3.3075556397873336,0.6380969628784882
-0.18162894027016457,-2.2172202803363295,3.3139366094161185,0.722953119071321
-0.20380114307352787,-2.1588884449451062,3.321166140606832,0.8115151941112662
-0.22539002752297893,-2.097825012974095,3.3292812925479445,0.9030834852773272
-0.24636827765271987,-2.034562011790903,3.3383121274007177,0.996977529192251
-0.2667138977706289,-1.9696211000642767,3.3482819026926403,1.0925487210465672
-0.2864101087712717,-1.9035060878334342,3.359207389903106,1.1891910704542656
-0.30544516964960605,-1.836696637119367,3.3710993006076486,1.286349844512574
-0.3238121360207997,-1.7696432691989974,3.3839627990527745,1.3835279771046043
-0.3415085687127897,-1.7027637289002564,3.3977980788238207,1.4802902483390648
-0.35853620600179226,-1.636440684871278,3.4126009813072113,1.5762653493188588
-0.374900612850505,-1.5710206831782532,3.4283636348004,1.671146037691989
-0.39061081968228756,-1.5068142235381503,3.44507509517732,1.7646876542866299
-0.40567896191766906,-1.4440967948187278,3.4627219717201863,1.8567053093705572
-0.42011992986585633,-1.38311068914743,3.4812890248138917,1.9470700602922704
-0.43395103675733065,-1.3240674105990642,3.5007597254168146,2.035704394120821
-0.4471917108633213,-1.267150502517992,3.5211167693580228,2.122577304298018
-0.45986321588850126,-1.2125186341134035,3.542342542401003,2.2076992145617984
-0.4719884022296353,-1.1603088090264921,3.5644195345466207,2.291116961555324
-0.48359149031990023,-1.1106395833591813,3.587330704162174,2.3729090039552294
-0.49469788615349203,-1.0636142059075682,3.611059794201726,2.4531809840293204
-0.5053340282125677,-1.019323617360837,3.6355916040420193,2.532061729642693
-0.515527264386176,-0.9778492668765044,3.6609122213384464,2.60969975229503
-0.5253057570549411,-0.9392657230970044,3.6870092188613968,2.686260270416764
-0.5346984142859111,-0.9036430721077638,3.7138718215655646,2.7619227668951947
-0.5437348450069888,-0.8710491071273645,3.7414910492345164,2.8368790752407698
-0.5524453360782624,-0.8415513241352771,3.769859839986924,2.9113319792826218
-0.5608608493196152,-0.8152187445576662,3.79897315977975,2.9854943060242194
-0.5690130367651919,-0.7921235909587011,3.828828102839992,3.05958848949245
-0.5769342726747789,-0.7723428448181083,3.8594239877349166,3.1338465843086802
-0.58465770112296,-0.7559597172525627,3.890762453578003,3.2085107105929587
-0.5922172982954856,-0.7430650642076779,3.9228475606839326,3.2838339160407535
-0.5996479489375625,-0.7337587773402413,3.9556858998443403,3.3600814459838726
-0.6069855367109649,-0.7281511805075174,3.989286714304179,3.437532417354319
-0.6142670485160401,-0.7263644592643204,4.023662038477722,3.5164818970185867
-0.6215306931086833,-0.7285341465506644,4.058826857447908,3.5972433880478722
-0.6288160345741899,-0.7348106809589389,4.094799291328386,3.6801517278726994
-0.6361641413837793,-0.7453610431581491,4.131600808607113,3.7655663980415
-0.6436177518153607,-0.7603704589288218,4.169256472587528,3.8538752335320567
-0.651221456404649,-0.7800441302287974,4.207795224922848,3.9454984956714343
-0.659021897706937,-0.8046089131680935,4.247250209879563,4.040893229509987
-0.6670679868386179,-0.834314795029104,4.287659142174663,4.14055775266211
-0.6754111347889089,-0.8694359180577498,4.329064719701284,4.245036000422161
-0.6841054939694864,-0.9102707348415816,4.371515079705506,4.354921253600828
-0.6932082013179022,-0.9571406265924292,4.415064292241514,4.470858457704106
-0.7027796075838265,-1.0103859224931775,4.459772876818555,4.593543837857471
-0.7128834668087582,-1.0703576514090498,4.505708315197129,4.723719721179742
-0.7235870433228487,-1.137402427579647,4.552945512408926,4.862161244984358
-0.7349610675986452,-1.2118364651636133,4.60156712485877,5.009649737328701
-0.7470794322502814,-1.2939026313420765,4.651663622232057,5.166924716257262
-0.7600184585637022,-1.3837014637946918,4.70333286939463,5.334602337001514
-0.7738554732016492,-1.4810830694563157,4.756678892764644,5.513042501503763
-0.7886663038962123,-1.5854820741027453,4.811809317779682,5.702140045045322
-0.8045211246372397,-1.6956737671229032,4.868830718230135,5.901009312222536
-0.8214778623084688,-1.8094304890966546,4.92784081135236,6.107531639909785
-0.8395721671994353,-1.9230727416050557,4.988916127751458,6.317754798858973
-0.8588028946154859,-2.03095721823331,5.052093675740048,6.525196667838442
-0.879112466797819,-2.125047405990382,5.1173456424184325,6.720244869202925
-0.9003629408577227,-2.19487838268059,5.184548091110462,6.890070091737393
-0.9223117246845286,-2.2283845912211073,5.253448792027836,7.019686890397165
-0.9445955705967397,-2.2139822724380642,5.323645660931808,7.094693734926182
-0.9667353933211204,-2.1436871242841895,5.394592598281069,7.105393816103386
-0.9881722645639622,-2.01599643008241,5.465646536442104,7.050571620729927
-1.0083322288647862,-1.836737342956804,5.536152252649403,6.93850201161455
-1.0266996022943542,-1.6171263834343272,5.605537272765549,6.784218038649403
-1.0428708661286974,-1.3702307787167554,5.673379453152043,6.604709365994728
-1.056573173915865,-1.1078526055036364,5.73942654681199,6.414799216864915
-1.0676516999709014,-0.8389654516410259,5.803574538980639,6.22517900193125
-1.0760413544873115,-0.5695605350645285,5.865826328999952,6.042342257228912
-1.081736959837957,-0.30322010994106435,5.926249751572241,5.869458899864781
-1.0847691609373675,-0.04185503042234373,5.984944340570889,5.7074249547150275
-1.0851877112415909,0.21366590517382578,6.042018590118039,5.55573250658585
-1.0830510521898526,0.46306412852382306,6.0975759151838975,5.413081284242117
-1.0784204109046145,0.7063570566887016,6.151706728026319,5.277770105877333
-1.0713568403377274,0.9436789048333987,6.204484429085093,5.1479325407689345
-1.0619200512893934,1.1751780236395137,6.255963754492782,5.021672516124836
-1.0501682710529983,1.4009626686771925,6.306180479654031,4.897139507068904
-1.0361586443662263,1.621076629672298,6.3551518747247195,4.772568964452643
-1.0199478780695033,1.8354930551773232,6.402877564369246,4.646303681664297
-1.00159294751773,2.044119340506125,6.449340601185889,4.516805312226266
-0.9811517541126689,2.246808759424066,6.494508654308151,4.382661201779097
-0.9586836665184282,2.4433762014315845,6.538335266325943,4.242589229198124
-0.9342499045041124,2.633616350665018,6.580761158617924,4.095441863665736
-0.9079137409974622,2.817323189596182,6.621715577254581,3.9402097564291343
-0.8797405091015005,2.994310008794496,6.661117674818873,3.77602466621126
-0.8497974090135555,3.1644292642767713,6.698877921480985,3.6021612291828493
-0.8181531163707878,3.327591715542883,6.734899533772814,3.4180369487342013
-0.7848771992153589,3.483784342845714,6.769079903260156,3.223209751012054
-0.7500393557869018,3.633086606914822,6.8013120007702765,3.0173725018870585
-0.7137084897177536,3.7756846917744102,6.831485725789147,2.8003439921001227
-0.6759516428000095,3.911883466182338,6.859489165710148,2.572056057219239
-0.6368328081381861,4.042116008990313,6.88520972628234,2.332536698032149
-0.596411648048283,4.1669506590331515,6.908535093262661,2.0818892983131585
-0.5547421414579514,4.287095654495544,6.9293539862457925,1.8202682986538008
-0.511871184912996,4.403401494927022,6.9475566692323305,1.5478519845786034
-0.46783716996372576,4.516861154089112,6.963035189078116,1.2648134084359228
-0.42266855842283463,4.628608138260382,6.9756833231624755,0.9712909400809167
-0.3763824770402308,4.739912037357435,6.985396232563285,0.6673606313000395
-0.32898335666665646,4.852170520299731,6.992069838876285,0.35301366138702867
-0.28046165146365915,4.966895463201384,6.995599975490155,0.028143910260574334
-0.2307926968316453,5.0856887147283665,6.995881414592761,-0.3074463159624695
-0.17993580968436163,5.210199330432039,6.992806951433136,-0.6540093990297057
-0.12783381638004124,5.342048079436587,6.986266857442839,-1.0117631443160437
-0.07441333558567537,5.482695438467887,6.976149225999679,-1.3807148079862532
-0.01958638120099649,5.633214841823734,6.962342077919816,-1.760344309214115
0.03674576721724085,5.7939134259024865,6.944738634827675,-2.1490659173536333
0.09468490147626571,5.9637224170662595,6.923247975654139,-2.5433609434058972
0.15432212564692832,6.139277254575514,6.8978143662200795,-2.9364737430725394
0.21571489819268347,6.313674592348035,6.868449628789354,-3.316662295132052
0.2788516441161638,6.475133371451181,6.835283005838034,-3.6653395889493483
0.3436029778306756,6.606323455216109,6.79862960994854,-3.956205527706417
0.40966621238283674,6.6858574470249446,6.759067554671476,-4.157503437251813
0.4765247868530862,6.69350374806096,6.717492520298958,-4.239606419807064
0.5434598243336958,6.618455008883145,6.675096456100887,-4.186952072293876
0.6096443744225273,6.465748085871827,6.633226935377948,-4.0072965461632375
0.6743018552812455,6.25495483937862,6.593153969916315,-3.7298600392681003
0.7368514036750318,6.011581595655099,6.555855369523634,-3.3929435005205826
0.7969672196315828,5.758075662571979,6.521925934518428,-3.030861689152537
0.8545479762573026,5.509633223672303,6.491617317626903,-2.6676901670517816
0.9096443084940257,5.274461671654957,6.464940415956385,-2.3174305500188725
0.9623889252105753,5.055841612660827,6.4417661104561965,-1.9868424234034157
1.0129473413371834,4.8541607715243735,6.421897686222162,-1.678313779900403
1.061488949052427,4.668336645104162,6.405114548423158,-1.3919025517368053
1.1081723155034686,4.496662851053704,6.3911955229057895,-1.1265723624313333
1.1531389440140056,4.337264369275448,6.379929799281476,-0.8808722257500599
1.19651158770676,4.188322131732323,6.371121077023976,-0.6532830472918696
1.2383948090240833,4.048171808006313,6.364588246551057,-0.44237888457007857
1.2788765271041465,3.915337713380483,6.360164457705356,-0.2468902046768943
1.3180299042379513,3.788535124677495,6.357695555658587,-0.06571762085329683
1.3559152554847262,3.666658471411634,6.357038379450055,0.1020778624590796
1.3925818401988426,3.5487642448886496,6.358059158074646,0.2572944743289657
1.4280694826477291,3.434052899509016,6.360632102817935,0.40061223554179426
1.4624100116428194,3.321851656324948,6.364638225173353,0.5326150588443962
1.4956285282060688,3.2115989281560537,6.369964375761797,0.6538108535760819
1.5277445174876294,3.1028305108770886,6.376502484297558,0.7646490504251752
1.5587728225964004,2.9951674296121187,6.38414897480181,0.8655354400828631
1.5887244968925216,2.8883052341826354,6.392804329202638,0.9568444490368548
1.617607549234348,2.7820045224760763,6.402372773693007,1.0389290769764739
1.6454275944591088,2.676082490201879,6.412762064462772,1.1121287566500846
1.6721884193611276,2.5704053385446968,6.423883352029272,1.1767754015433647
1.6978924727465745,2.4648814063966085,6.435651106044706,1.2331978963317203
1.7225412868105405,2.359454925932229,6.4479830850080235,1.281725268121196
1.746135836069863,2.254100327165563,6.460800337689236,1.3226887570637917
1.7686768393415184,2.148817038288968,6.474027225259873,1.3564229848489942
1.7901650097244082,2.0436247443447493,6.4875914551083635,1.383266399617721
1.8106012571678556,1.9385590777950932,6.5014241191045405,1.4035611563427763
1.8299868479458066,1.833667721651439,6.515459730667969,1.4176525728257348
1.848323525162321,1.7290069098259129,6.529636256396226,1.4258882832859854
1.86561359426058,1.624638311044138,6.543895139229086,1.4286171941791812
1.8818599773710214,1.5206262826885317,6.558181311170878,1.426188330505811
1.8970662401979068,1.4170354798971547,6.572443194475936,1.418949645583537
1.9112365949968784,1.3139288035913244,6.586632690931771,1.407246853174924
1.9243758830327917,1.2113656692096473,6.60070515946352,1.391422328077295
1.9364895397248882,1.1094005760584467,6.614619382744293,1.371814109854637
1.9475835454854726,1.008081955539329,6.6283375238428395,1.3487550343490304
1.9576643650408658,0.9074512752058977,6.64182507418633,1.322572008942902
1.9667388777929249,0.8075423746993491,6.655050794275759,1.2935854402138312
1.9748143015399184,0.7083810091384736,6.667986648677897,1.2621088165642493
1.9818981116313032,0.6099845754814667,6.680607736843539,1.2284484435315708
1.987997957386118,0.5123619976987331,6.692892221278855,1.1929033256873036
1.9931215773631052,0.41551374724526463,6.704821254535728,1.1557651862043568
1.997276714835558,0.31943197623644415,6.716378906397772,1.1173186131937454
2.0004710345979224,0.2241007418464802,6.727552092529709,1.0778413206693174
2.002712042016387,0.1294963016983537,6.7383305057364025,1.037604511380255
2.0040070050333707,0.03558746133556347,6.748706550850205,0.9968733286513928
2.0043628796467265,-0.05766404379829772,6.758675284136719,0.955907384695627
2.0037862392087438,-0.15030314814685267,6.768234357983675,0.914961353526477
2.002283207727275,-0.2423810526507219,6.77738397151894,0.8742856175295372
1.9998593972007679,-0.33395483213265476,6.786126827694236,0.8341269578884635
1.9965198488794413,-0.42508706645379374,6.79446809727312,0.7947292803555757
1.9922689782149035,-0.5158455076480022,6.802415390076676,0.7563343692718422
1.9871105231384234,-0.6063027946372878,6.809978733769394,0.7191826642493485
1.9810474951920505,-0.6965362267239554,6.8171705604118875,0.6835140555142951
1.9740821329248108,-0.7866276068512928,6.824005700967031,0.649568695561312
1.966215856856298,-0.8766631656274553,6.830501387922644,0.6175878264881149
1.9574492252000235,-0.9667335773162666,6.836677266187525,0.5878146241653293
1.9477818894268608,-1.0569340794095718,6.842555412429179,0.5604950622533238
1.9372125486327652,-1.147364707999678,6.848160363051712,0.5358788010076148
1.9257389015527684,-1.2381306619520713,6.853519151061788,0.514220107810973
1.9133575949332478,-1.3293428098132074,6.858661352139898,0.4957788184132324
1.9000641668351157,-1.4211183544359554,6.8636191403240305,0.4808213499030187
1.8858529832907562,-1.5135816714026789,6.868427353823061,0.4696217783922039
1.8707171665767295,-1.6068653383717286,6.873123571606983,0.4624629961124973
1.8546485131930122,-1.7011113733066838,6.8777482015681075,0.45963796385376354
1.8376373994599453,-1.7964726999153526,6.882344581206645,0.4614510750135089
1.8196726724607917,-1.8931148581285264,6.88695909195678,0.46821964634423546
1.8007415238795064,-1.9912179754626809,6.891641288420223,0.4802755467977877
1.7808293441248795,-2.090979010663212,6.8964440438882,0.49796696815950336
1.7599195540182473,-2.1926142726033646,6.901423713569796,0.5216603271178246
1.7379934112922137,-2.2963622026755197,6.906640316840974,0.5517422644753084
1.7150297892654585,-2.4024863842330606,6.912157739485727,0.5886216679514327
1.6910049254231279,-2.5112787024343413,6.918043956165242,0.6327315821857482
1.6658921383987844,-2.623062513508674,6.924371271987099,0.6845307705286499
1.6396615132636976,-2.738195580832146,6.931216579692386,0.7445045388806788
1.612279557455376,-2.8570723761865504,6.938661625081193,0.813164193295312
1.5837088336935106,-2.980125097833531,6.9467932670141455,0.8910441369262012
1.5539075827151752,-3.1078223773458236,6.955703708383408,0.9786950539944946
1.522829358941717,-3.240664068594524,6.965490658923352,1.0766707858931126
1.4904227182557717,-3.3791696423852304,6.976257366782283,1.1855052479720558
1.4566310218319194,-3.5238564275025768,6.988112419262004,1.3056738968838597
1.4213924575568937,-3.6752021041560727,7.001169158230843,1.4375316485533343
1.3846404365153329,-3.8335833605514638,7.015544474716376,1.5812156275521356
1.3463046029098182,-3.999179526573507,7.031356630991898,1.7364968107704626
1.306312807644083,-4.171826849949694,7.048721599099602,1.9025603360663945
1.264594539144586,-4.35080758600324,7.067747202460266,2.077692468883899
1.2210864632845537,-4.534562260244741,7.088524127149105,2.258858765100078
1.1757408406821064,-4.720331184764131,7.111112714800106,2.4411840813457566
1.128537528834465,-4.903774637285199,7.135524555613563,2.6174079614559007
1.079499782461613,-5.078701088395025,7.161698635228122,2.7775041526240503
1.0287127715776627,-5.2371401312783235,7.189473676754362,2.9088068680044508
0.9763413702648794,-5.37006451002965,7.218561745434407,2.9970830887750357
0.922640725164583,-5.4689479206808835,7.248532576322157,3.0288209275858557
0.8679512459577741,-5.527910341474149,7.278820785598016,2.9943800347416407
0.8126721425430325,-5.5455976405495715,7.308764585945432,2.890779526425568
0.7572161661375368,-5.525732394500787,7.337672381209687,2.722588205483961
0.7019588421925289,-5.475924763227845,7.364898263264527,2.5003028495788735
0.6471995945602504,-5.4054165396360725,7.3899012917603155,2.2371522495902343
0.5931454291638897,-5.322933174056485,7.412272814256218,1.9460017612877465
0.5399160974233248,-5.235406173480718,7.431732831869096,1.6374669248610068
0.48756203568851764,-5.147617698718803,7.448107501117706,1.3193375220709873
