th1 (rad),w1 (rad/s),th2 (rad),w2 (rad/s),a1 (rad/s^2),a2 (rad/s^2)
4.552286389488989,0.22730069518780674,1.9417572065868522,-1.9749966433324548,7.577430925987851,-2.5734489898027832
4.554559396440867,0.30307500444768526,1.9220072401535278,-2.0007311332304827,7.60370548012163,-2.517361597124649
4.557590146485344,0.37911205924890157,1.9019999288212228,-2.0259047492017292,7.6455283193144234,-2.440021512491633
4.5613812670778335,0.4555673424420458,1.8817408813292056,-2.0503049643266458,7.703741962687097,-2.3412732208330005
4.565936940502254,0.5326047620689167,1.861237831685939,-2.0737176965349757,7.779036296264425,-2.2211693709004536
4.5712629881229425,0.610395125031561,1.8405006547205893,-2.09592939024398,7.871871512802086,-2.0800794227789705
4.577366939373258,0.6891138401595819,1.8195413608181494,-2.11673018447177,7.982384873465288,-1.9188227312347197
4.584258077774853,0.7689376888942347,1.7983740589734318,-2.1359184117841172,8.110281721512138,-1.7388259750078683
4.591947454663796,0.8500405061093561,1.7770148748555907,-2.153306671534196,8.254713270763723,-1.5423019577820398
4.6004478597248895,0.9325876388169934,1.7554818081402488,-2.1687296911120164,8.414146686944012,-1.3324426116911783
4.609773736113059,1.0167291056864334,1.7337945112291286,-2.1820541172289283,8.586236907532598,-1.1136134554869377
4.619941027169923,1.1025914747617593,1.7119739700568393,-2.193190251783798,8.767714330580072,-0.8915300059024334
4.63096694191754,1.1902686180675601,1.6900420675390013,-2.202105551842822,8.954307451023608,-0.6733893717130536
4.642869628098216,1.2798116925777963,1.6680210120205732,-2.2088394455599527,9.140723821815333,-0.46792373851978536
4.655667745023994,1.3712189307959495,1.6459326175649736,-2.2135186829451508,9.320715007103425,-0.28533860370777425
4.669379934331953,1.4644260808669838,1.623797430735522,-2.2163720689822286,9.48724978936241,-0.13709988596027953
4.684024195140623,1.559298578760608,1.6016337100456999,-2.2177430678418313,9.632813119982513,-0.03554290469161385
4.699617180928229,1.6556267099604332,1.5794562793672815,-2.2180984968887474,9.749835090740763,0.0067055755782225
4.716173448027833,1.7531250608678408,1.557275294398394,-2.218031441132965,9.83123481406413,-0.022526374561279722
4.733704698636512,1.8514374090084822,1.5350949799870643,-2.218256704878578,9.871040771901997,-0.1340935657593326
4.7522190727265965,1.9501478167275021,1.5129124129382785,-2.2195976405361715,9.865026321102498,-0.3366416483666024
4.771720550893871,2.048798079938527,1.4907164365329169,-2.2229640570198375,9.81128254738941,-0.6357972399899913
4.792208531693256,2.146910905412421,1.4684867959627186,-2.2293220294197376,9.710646447675035,-1.0335608687243207
4.813677640747381,2.2440173698891717,1.4461935756685211,-2.239657638106981,9.566914293115346,-1.5280091520131451
4.836117814446272,2.3396865128203252,1.4237969992874513,-2.2549377296271125,9.386797824739741,-2.113374989570521
4.859514679574475,2.4335544910677225,1.4012476219911802,-2.276071479522818,9.179619852244064,-2.7805197610427754
4.883850224485152,2.525350689590163,1.378486907195952,-2.3038766771332457,8.956787433603788,-3.5177513794064206
4.9091037313810535,2.614918563926201,1.3554481404246195,-2.33905419092731,8.731115570389095,-4.311890435474786
4.935252917020316,2.702229719630092,1.3320575985153464,-2.3821730952820577,8.516094643433366,-5.1494551730604625
4.962275214216617,2.7873906660644256,1.3082358675625259,-2.4336676470126624,8.325197223306828,-6.017830489862352
4.990149120877261,2.870642638297494,1.2838991910923991,-2.4938459519112857,8.171305879690976,-6.906305374180665
5.018855547260236,2.952355697094404,1.2589607315732863,-2.562909005653092,8.066318482285535,-7.806900170040495
5.04837910423118,3.033018881917259,1.2333316415167552,-2.640978007353497,8.020958284670385,-8.714949907428478
5.078709293050353,3.1132284647639628,1.2069218614432202,-2.7281275064277817,8.044789422107717,-9.62945303791143
5.109841577697993,3.19367635898504,1.1796405863789423,-2.824422036806896,8.146418970953548,-10.553229375336858
5.141778341287843,3.2751405486945755,1.1513963660108733,-2.9299543305602644,8.33385651540119,-11.492953679269398
5.174529746774788,3.3584791138485874,1.1220968227052706,-3.0448838673529584,8.615001115096467,-12.45914243735769
5.208114537913274,3.444629124999552,1.091647984031741,-3.169475291726535,8.998232082088823,-13.466173744556983
5.24256082916327,3.53461144582044,1.0599532311144757,-3.304137029172105,9.493091903104144,-14.532417649844255
5.277906943621474,3.6295423648514813,1.0269118608227545,-3.4494612056705476,10.111064942666014,-15.68055090617428
5.3142023672699885,3.7306530142781416,0.9924172487660491,-3.6062667147322904,10.866472645222402,-16.938128932023535
5.35150889741277,3.8393177407303654,0.9563545816187262,-3.7756480040525258,11.777523590047354,-18.338490837076634
5.389902074820074,3.9570929766308387,0.918598101578201,-3.959032912423292,12.867573408684315,-19.922080286053337
5.429473004586383,4.085768710717682,0.8790077724539681,-4.158253715283825,14.166661776660677,-21.73827147999985
5.470330691693559,4.2274353284842885,0.8374252353011299,-4.375636430083824,15.713392302301608,-23.84778270481467
5.512605044978402,4.384569251507305,0.7936688710002917,-4.614114257131971,17.55718280886325,-26.325706814513186
5.556450737493475,4.560141079595938,0.747527728428972,-4.877371325277102,19.760780655312512,-29.26500830133985
5.6020521482894345,4.757748886149063,0.698754015176201,-5.170021408290501,22.402570985589342,-32.77983643453813
5.649629637150925,4.981774596004956,0.6470538010932959,-5.497819772635882,25.577270474352517,-37.006717788863774
5.699447383110974,5.237547300748481,0.5920756033669371,-5.86788695052452,29.391296410731734,-42.09850589161114
5.7518228561184594,5.531460264855799,0.5333967338616918,-6.288872009440631,33.94355213114163,-48.19825553074458
5.807137458767017,5.870895786167215,0.4705080137672855,-6.770854564748077,39.26934713397791,-55.3620304716098
5.865846416628689,6.263589257506994,0.4027994681198047,-7.324474869464175,45.19630530880095,-63.35927802150837
5.928482309203759,6.715552310595004,0.32955471942516296,-7.958067649679259,51.006275226530605,-71.20242883818811
5.9956378323097095,7.22561506286031,0.2499740429283704,-8.67009193806114,54.740583998656824,-76.17711645327516
6.067893982938313,7.773020902846879,0.163273123547759,-9.43186310259389,52.16913929798645,-72.39872951882208
6.145624191966782,8.294712295826743,0.0689544925218201,-10.155850397782112,36.76034132858591,-50.76240838412642
6.228571314925049,8.662315709112603,-0.03260401145600103,-10.663474481623377,4.9016899506533,-6.232441277756798
6.3151944720161755,8.711332608619136,-0.1392387562722348,-10.725798894400945,-33.34675779747481,47.15124605053545
6.402307798102367,8.377865030644388,-0.24649674521624426,-10.25428643389559,-58.1582416668183,81.79978395958096
6.486086448408811,7.796282613976206,-0.3490396095552002,-9.43628859429978,-63.24304908068686,89.0740435485851
6.564049274548573,7.163852123169337,-0.443402495498198,-8.54554815881393,-57.28685649087748,81.11582412134923
6.6356877957802665,6.590983558260563,-0.5288579770863373,-7.734389917600437,-48.510145935723976,69.32130940246047
6.701597631362872,6.105882098903323,-0.6062018762623417,-7.041176823575832,-40.32902249837814,58.38941112366557
6.762656452351905,5.702591873919542,-0.6766136444981,-6.457282712339176,-33.55829607773885,49.42079511254622
6.8196823710911,5.367008913142153,-0.7411864716214918,-5.963074761213714,-28.144408377911976,42.3247053534291
6.873352460222522,5.085564829363033,-0.8008172192336289,-5.539827707679423,-23.83694563594741,36.74476501062146
6.924208108516153,4.847195373003559,-0.8562154963104232,-5.172380057573209,-20.38923363039396,32.33281363760942
6.972680062246188,4.643303036699619,-0.9079392968861553,-4.849051921197114,-17.603075342466425,28.808489572461003
7.019113092613185,4.467272283274955,-0.9564298160981264,-4.560967025472504,-15.32906703054426,25.958378011323706
7.063785815445934,4.3139816129695125,-1.0020394863528514,-4.301383245359267,-13.457042439022244,23.622082879971483
7.1069256315756295,4.17941118857929,-1.0450533188064441,-4.065162416559552,-11.906334645685792,21.67837027982123
7.148719743461422,4.060347842122432,-1.0857049429720396,-3.8483787137613397,-10.618006220978506,20.034241389737947
7.189323221882646,3.9541677799126473,-1.124188730109653,-3.64803629986396,-9.549083771754223,18.61694936519706
7.228864899681773,3.858676942195105,-1.1606690931082926,-3.4618668062119897,-8.668357061034248,17.368362619405065
7.267451669103725,3.7719933715847627,-1.1952877611704125,-3.2881831800179393,-7.953288915781187,16.24108267739428
7.305171602819573,3.692460482426951,-1.2281695929705918,-3.1257723532439963,-7.387673802922113,15.195861839997727
7.342096207643842,3.61858374439773,-1.2594273165030319,-2.9738137348440192,-6.959780515371747,14.19999671493938
7.378282045087819,3.5489859392440124,-1.289165453851472,-2.8318137676946256,-6.660796623902585,13.226466571737607
7.413771904480259,3.4823779730049864,-1.3174835915284184,-2.6995491019772495,-6.48346005689345,12.253638874483462
7.448595684210309,3.417543372436052,-1.344479082548191,-2.5770127132324148,-6.420821311920889,11.265384501037083
7.48277111793467,3.3533351593168432,-1.370249209680515,-2.464358868222044,-6.465131596771621,10.251440919176508
7.516304469527838,3.2886838433491272,-1.3948927983627355,-2.3618444590302787,-6.6068972306841784,9.207844175245322
7.549191307961329,3.2226148710422855,-1.4185112429530382,-2.2697660172778256,-6.8341746456156285,8.137233915401849
7.581417456671752,3.1542731245861293,-1.4412089031258164,-2.188393678123807,-7.1321963391175,7.0488354945931775
7.612960187917613,3.0829511611949543,-1.4630928399070544,-2.117905323177875,-7.4834090380400164,5.95795375715515
7.643789699529563,3.008117070814554,-1.4842718931388332,-2.0583257856063235,-7.867967533520502,4.8848820522032455
7.6738708702377085,2.9294373954793493,-1.5048551509948964,-2.009476965084291,-8.26466457747468,3.8532337568534265
7.703165244192502,2.8467907497046023,-1.5249499206457393,-1.9709446275157567,-8.65220102359543,2.8878245454492695
7.7316331516895485,2.760268739468648,-1.5446593669208968,-1.942066382061264,-9.010630148665479,2.012343479414996
7.759235839084235,2.6701624379819933,-1.5640800307415095,-1.9219429472671141,-9.32276651352133,1.2471187421232826
7.785937463464055,2.57693477284678,-1.5832994602141806,-1.9094717598458812,-9.57534788399888,0.6072871856846219
7.811706811192523,2.481181294006791,-1.6023941778126394,-1.9033988879890351,-9.759781991857368,0.10161139974674524
7.836518624132591,2.3835834740882174,-1.6214281666925296,-1.9023827739915677,-9.872388025406169,-0.2679299053416208
7.860354458873473,2.2848595938341556,-1.6404519944324454,-1.9050620730449839,-9.91413522097805,-0.5057910957798137
7.883203054811815,2.1857182416243752,-1.6595026151628953,-1.910119984002782,-9.88996431054758,-0.6218849529354172
7.905060237228058,2.0868185985188994,-1.6786038150029232,-1.9163388335321363,-9.807833284205337,-0.6302015311781269
7.925928423213247,1.988740265676846,-1.6977672033382445,-1.9226408488439175,-9.677648484462125,-0.5472638121405806
7.945815825870016,1.8919637808322247,-1.7169936118266838,-1.9281134869653234,-9.510227997589624,-0.3906391116430344
7.964735463678338,1.7968615008563285,-1.736274746696337,-1.9320198780817537,-9.316407155435385,-0.17766718634035308
7.982704078686901,1.7036974293019747,-1.7555949454771547,-1.9337965499451573,-9.106349255299909,0.07550502224204665
7.99974105297992,1.6126339367489755,-1.7749329109766063,-1.9330414997227368,-8.8890803529277,0.3545581465620924
8.01586739234741,1.5237431332196985,-1.7942633259738336,-1.9294959182571159,-8.672232933340341,0.647330711844608
8.031104823679607,1.437020803886295,-1.8135582851564047,-1.9230226111386697,-8.46196235005572,0.9439009256591864
8.04547503171847,1.3524011803857379,-1.8327885112677915,-1.9135836018820778,-8.262991276755132,1.2364873707291697
8.058999043522327,1.2697712676181865,-1.8519243472866123,-1.901218728174786,-8.078738025367878,1.5192340054456075
8.07169675619851,1.1889838873645078,-1.8709365345683602,-1.88602638812033,-7.911490839311199,1.7879348123415977
8.083586595072154,1.1098689789713958,-1.8897967984495634,-1.868147039996914,-7.762598991274269,2.039740072704167
8.094685284861868,1.032242989058653,-1.9084782688495325,-1.8477496392698722,-7.632660424388316,2.2728729039264426
8.105007714752453,0.9559163848147699,-1.9269557652422313,-1.8250209102306079,-7.521693445496662,2.486373253089246
8.1145668786006,0.8806994503598033,-1.9452059743445373,-1.8001571776997154,-7.429286046756992,2.6798777390044792
8.123373873104198,0.8064065898922335,-1.9632075461215346,-1.7733584003096705,-7.354720744834912,2.8534375803143686
8.13143793900312,0.7328593824438844,-1.9809411301246314,-1.7448240245065267,-7.297075612010267,3.0073729544544063
8.13876653282756,0.6598886263237818,-1.9983893703696967,-1.7147502949619826,-7.255303765902835,3.1421599767178976
8.145365419090798,0.5873355886647534,-2.0155368733193164,-1.6833286951948037,-7.228294323740869,3.258345555454304
8.151238774977445,0.5150526454273447,-2.0323701602712645,-1.6507452396402607,-7.214918004336721,3.356485235760693
8.156389301431718,0.4429034653839775,-2.048877612667667,-1.6171803872826538,-7.214060401141156,3.4370994610003085
8.160818336085557,0.370762861372566,-2.0650494165404933,-1.5828093926726508,-7.224645613239823,3.5006442284776407
8.164525964699282,0.29851640524016776,-2.0808775104672197,-1.5478029503878743,-7.245652514172832,3.547492742582386
8.167511128751682,0.22605988009843944,-2.0963555399710985,-1.5123280229620504,-7.276125526143269,3.57792528593499
8.169771727552666,0.15329862483700674,-2.111478820200719,-1.4765487701027005,-7.315181385657453,3.592125088698324
8.171304713801035,0.0801468109804322,-2.1262443079017457,-1.4406275192157172,-7.362013052823499,3.5901784577469167
8.17210618191084,0.006526680452197217,-2.140650583093903,-1.404725734638248,-7.415891635446312,3.5720778268646693
8.172171448715362,-0.0676322359022659,-2.1546978404402855,-1.3690049563696014,-7.4761669689258,3.5377267118203934
8.171495126356339,-0.1423939055915239,-2.1683878900039812,-1.3336276892513974,-7.542267308588019,3.4869458096905066
8.170071187300424,-0.2178165786774041,-2.1817241668964953,-1.2987582311544923,-7.613698445906432,3.4194796812709414
8.16789302151365,-0.2939535631364684,-2.1947117492080404,-1.2645634343417829,-7.690042447416897,3.335003609755178
8.164953485882286,-0.37085398761063737,-2.207357383551458,-1.231213398244231,-7.770956128802792,3.2331303479237516
8.16124494600618,-0.4485635488986653,-2.2196695175339003,-1.1988820947649934,-7.85616931121039,3.113416558368845
8.156759310517193,-0.5271252420107692,-2.2316583384815503,-1.1677479291813049,-7.945482857772354,2.9753688237973157
8.151488058097085,-0.6065800705884927,-2.2433358177733633,-1.1379942409433317,-8.038766451794151,2.8184491628898463
8.1454222573912,-0.6869677351064343,-2.2547157601827967,-1.1098097493144332,-8.135956051025493,2.642080036016056
8.138552580040136,-0.7683272956166892,-2.265813857675941,-1.0833889489542727,-8.237050932425504,2.445648867771606
8.13086930708397,-0.8506978049409443,-2.276647747165484,-1.0589324602765566,-8.342110226862575,2.228512152413133
8.12236232903456,-0.93411890720957,-2.2872370717682493,-1.0366473387524253,-8.451248831703445,1.9899992457164388
8.113021139962465,-1.0186313955266044,-2.2976035451557735,-1.016747346295261,-8.564632580021938,1.7294159838822598
8.102834826007198,-1.1042777213268238,-2.307771018618726,-0.9994531864564384,-8.682472537278569,1.446048307670931
8.09179204879393,-1.1911024466996094,-2.31776555048329,-0.9849927033797291,-8.80501828915014,1.1391661083365572
8.079881024326934,-1.2791526295911109,-2.3276154775170874,-0.9736010422963636,-8.932550077365331,0.8080275511128894
8.067089498031022,-1.3684781303647642,-2.337351487940051,-0.9655207667852347,-9.065369633864954,0.4518841715320177
8.053404716727375,-1.4591318267034137,-2.347006695607903,-0.9610019250699146,-9.203789557622121,0.0699870788455449
8.038813398460341,-1.551169722279635,-2.3566167148586024,-0.9603020542814591,-9.348121073669814,-0.3384053621073946
8.023301701237544,-1.6446509330163332,-2.366219735401417,-0.9636861079025331,-9.49866001136911,-0.7740179660356575
8.00685519190738,-1.7396375331300242,-2.3758565964804426,-0.9714262875628896,-9.655670840278214,-1.2375468480689995
7.9894588165760805,-1.8361942415328063,-2.3855708593560716,-0.9838017560435797,-9.819368609270667,-1.7296447822875949
7.971096874160753,-1.934387927625513,-2.3954088769165076,-1.0010982038664555,-9.989898650508492,-2.2509033472111617
7.951752994884497,-2.0342869141305977,-2.405419858955172,-1.0236072373385672,-10.167313937815427,-2.801831424415001
7.9314101257431915,-2.135960053508752,-2.415655931328558,-1.051625551582717,-10.351550032786228,-3.382829659063364
7.910050525208104,-2.2394755538366145,-2.426172186844385,-1.0854538481733507,-10.542397615922312,-3.9941605667458555
7.887655769669737,-2.3448995299958377,-2.4370267253261186,-1.1253954538408093,-10.73947268871926,-4.635914087485173
7.864206774369779,-2.45229425688303,-2.448280679864527,-1.1717545947156611,-10.942184650295095,-5.307968553325044
7.839683831800949,-2.561716103385981,-2.4599982258116837,-1.2248342802489116,-11.14970260244492,-6.0099472581849644
7.814066670767089,-2.6732131294104304,-2.472246568614173,-1.2849337528307612,-11.360920422021204,-6.74117110375987
7.787334539472985,-2.7868223336306426,-2.4850959061424804,-1.3523454638683599,-11.574421358815686,-7.500608146091327
7.759466316136678,-2.9025665472187994,-2.498619360781164,-1.427351545329273,-11.78844316644162,-8.28682128187774
7.73044065066449,-3.0204509788832157,-2.512892876234457,-1.5102197581480505,-12.000845043743585,-9.097915782021857
7.700236140875658,-3.1404594293206514,-2.5279950738159376,-1.6011989159682691,-12.209077939175009,-9.931488882747118
7.668831546582451,-3.2625502087124016,-2.5440070629756204,-1.7005138047957402,-12.410160026968558,-10.784584149861436
7.636206044495327,-3.386651808982087,-2.5610122010235776,-1.8083596462943545,-12.60065937026064,-11.653653793231255
7.6023395264055065,-3.5126584026846936,-2.579095797486521,-1.9248961842266672,-12.776685903475387,-12.53453246538934
7.567212942378659,-3.6404252617194475,-2.598344759328788,-2.0502415088805606,-12.933894849449462,-13.422426256531743
7.530808689761464,-3.769764210213942,-2.6188471744175934,-2.184465771445878,-13.06750348947522,-14.311920515598057
7.493111047659325,-3.900439245108694,-2.640691832132052,-2.327584976601859,-13.172322784480357,-15.197009701047731
7.454106655208238,-4.032162472953498,-2.6639676818980704,-2.479555073612336,-13.24280467324092,-16.07115162447337
7.413785030478703,-4.164590519685907,-2.688763232634194,-2.64026658985707,-13.27310494119188,-16.927347151508453
7.372139125281844,-4.297321569097826,-2.7151658985327645,-2.8095400613721546,-13.257160385226426,-17.75824466782222
7.329165909590866,-4.4298931729500906,-2.743261299146486,-2.9871225080503767,-13.188777659937001,-18.556266463680238
7.284866977861365,-4.56178094954946,-2.7731325242269897,-3.172685172687179,-13.061729787126591,-19.313751770519172
7.239249168365871,-4.692398247420726,-2.8048593759538614,-3.365822690392371,-12.869854993091824,-20.023108703800947
7.192325185891663,-4.821096797351645,-2.838517602857785,-3.56605377743038,-12.607151489211855,-20.676965100518732
7.144114217918147,-4.947168312243764,-2.8741781406320888,-3.7728234284355677,-12.267861227225874,-21.26830650341039
7.094642534795709,-5.069846924516023,-2.9119063749164447,-3.985506493469672,-11.846535728341944,-21.790588663266785
7.043944065550549,-5.188312281799442,-2.9517614398511416,-4.20341238010234,-11.338077956603412,-22.23781220012385
6.992060942732555,-5.3016930613654765,-2.993795563652165,-4.425790502103578,-10.737755974350248,-22.604548704837658
6.9390440121189,-5.409070621108979,-3.038053468673201,-4.651835989151955,-10.041186798745214,-22.885910689530768
