th1 (rad),w1 (rad/s),th2 (rad),w2 (rad/s),a1 (rad/s^2),a2 (rad/s^2)
2.9695404034503765,-1.2918600449431694,0.09556513062822555,2.3962964058884837,-5.000606749074546,-5.316401790956142
2.956621803000945,-1.3418661124339148,0.1195280946871104,2.343132387978922,-5.368135280385055,-5.7499259676176795
2.943203141876606,-1.3955474652377653,0.14295941856689962,2.285633128302745,-5.676951480089809,-6.09368905320836
2.9292476672242285,-1.4523169800386633,0.16581574984992706,2.2246962377706616,-5.929352962076265,-6.349223716968066
2.9147244974238418,-1.511610509659426,0.18806271222763368,2.161204000600981,-6.129169157080588,-6.520112639337599
2.8996083923272473,-1.5729022012302318,0.20967475223364349,2.0960028742076053,-6.2813471732611,-6.611461525621948
2.883879370314945,-1.6357156729628428,0.23063478097571954,2.029888258951386,-6.391551138603202,-6.629384270560629
2.8675222135853162,-1.699631184348875,0.2509336635652334,1.9635944162457795,-6.46580414909091,-6.580537628938386
2.8505259017418276,-1.764289225839784,0.2705696077276912,1.8977890399563957,-6.510190212656253,-6.471728064248133
2.83288300948343,-1.8293911279663466,0.2895474981272551,1.8330717593139143,-6.530623200838455,-6.3096003901453885
2.8145890982037662,-1.8946973599747312,0.30787821572039425,1.7699757554124604,-6.532681816035243,-6.100407674379079
2.795642124604019,-1.9600241781350836,0.3255779732745189,1.7089716786686697,-6.521504228961193,-5.8498550043719355
2.776041882822668,-2.0252392204246954,0.34266769006120557,1.6504731286249503,-6.501733105773679,-5.563005843993406
2.755789490618421,-2.0902565514824323,0.3591724213474551,1.5948430701850163,-6.477500726619215,-5.2442382320064995
2.7348869251035968,-2.1550315587486244,0.37512085204930523,1.5424006878649512,-6.452444220517937,-4.8972382753206505
2.7133366095161104,-2.2195560009538036,0.39054485892795476,1.4934283051117447,-6.429742076431242,-4.5250196202829
2.6911410495065726,-2.283853421718116,0.4054791419790722,1.4481781089089156,-6.412164616069943,-4.129959318841925
2.6683025152893913,-2.3479750678788154,0.41996092306816135,1.4068785157204964,-6.402132732890351,-3.7138423695161085
2.6448227646106033,-2.411996395207719,0.4340297082253663,1.3697400920253353,-6.401780727954424,-3.27790896803282
2.6207028006585262,-2.476014202487263,0.44772710914561964,1.3369610023450071,-6.413020409281098,-2.822900019483434
2.595942658633654,-2.5401444065800742,0.4610967191690697,1.3087320021501727,-6.437604731895833,-2.3490976895602946
2.5705412145678532,-2.6045204538990325,0.4741840391905714,1.2852410252545698,-6.4771901458331795,-1.8563587023799029
2.5444960100288627,-2.6692923553573644,0.4870364494431171,1.2666774382307708,-6.533397516188267,-1.3441387492511028
2.517803086475289,-2.734626330519247,0.4997032238254248,1.2532360507382598,-6.607872020573513,-0.8115067913084061
2.4904568231700965,-2.800705050724982,0.5122355843328074,1.2451209828251757,-6.70234285518263,-0.25714825644660116
2.462449772662847,-2.8677284792768085,0.5246867941610591,1.2425495002607096,-6.8186839293191595,0.32064381819534915
2.433772487870079,-2.93591531857,0.5371122891636663,1.245755938442663,-6.9589770336379955,0.9239907336142477
2.404413334684379,-3.0055050889063804,0.5495698485480929,1.2549958457788055,-7.125579257845083,1.5554644014100638
2.3743582837953148,-3.076760881484831,0.5621198070058809,1.270550489792906,-7.321196730882912,2.218139467771877
2.3435906749804665,-3.1499728487936602,0.57482531190381,1.2927318844706248,-7.54896707366072,2.9156631739769376
2.3120909464925297,-3.2254625195302675,0.5877526307485162,1.3218885162103942,-7.812553291120892,3.652345229347054
2.279836321297227,-3.3035880524414765,0.6009715159106201,1.3584119685038647,-8.116252165105765,4.4332703349062585
2.2468004407728124,-3.3847505740925343,0.6145556355956588,1.4027446718529273,-8.4651204818175,5.264436215800048
2.212952935031887,-3.469401778910709,0.6285830823141881,1.4553890340109277,-8.865122507276226,6.152919883482939
2.17825891724278,-3.5580530039834715,0.6431369726542974,1.516918232845757,-9.323301752194876,7.1070739537917875
2.1426783872029453,-3.6512860215054204,0.6583061549827549,1.587988972383675,-9.847978749146034,8.136752450839767
2.106165526987891,-3.7497658089968806,0.6741860447065917,1.6693564968920727,-10.448973370999234,9.253560259287582
2.068667868897922,-3.854255542706873,0.6908796096755124,1.7618920994849485,-11.137843423899513,10.471109733665129
2.0301253134708532,-3.965633976945868,0.708498530670362,1.8666031968216,-11.92811765702104,11.805247322082035
1.9904689737013945,-4.084915153516079,0.727164562638578,1.9846556700424203,-12.835475055441888,13.274173968704224
1.9496198221662338,-4.213269904070497,0.7470111193390022,2.1173974097294623,-13.877772496684875,14.898310091978963
1.9074871231255288,-4.3520476290373455,0.7681850934362968,2.266380510649252,-15.074729784302722,16.699621040465026
1.8639666468351554,-4.502794926880373,0.7908488985427894,2.4333767210539023,-16.446909082322527,18.69987174733514
1.8189386975663517,-4.667264017703598,0.8151826657533284,2.6203754385272537,-18.01331231341878,20.916831818749415
1.7722660573893156,-4.847397140837786,0.841386420138601,2.829543756714748,-19.786361274277326,23.356658991867643
1.7237920859809377,-5.045260753580559,0.8696818577057485,3.063110346633424,-21.7620686228468,25.99933774842216
1.673339478445132,-5.262881439809027,0.9003129611720827,3.323103724117646,-23.901698959269858,28.77193037021611
1.620710664047042,-5.5018984294017255,0.9335439984132592,3.6108230278198072,-26.099258542387084,31.501668923990245
1.5656916797530247,-5.7628910148255965,0.9696522286914573,3.9258397170597097,-28.128001650377584,33.839394860968454
1.5080627696047688,-6.044171031329372,1.0089106258620544,4.264233665669394,-29.56369280461754,35.15050702765613
1.447621059291475,-6.339807959375547,1.0515529625187483,4.615738735945955,-29.70576021923738,34.40405424320624
1.3842229796977197,-6.636865561567921,1.097710349878208,4.959779278378018,-27.58184166962011,30.182189564045864
1.3178543240820404,-6.9126839782641225,1.1473081426619882,5.261601174018477,-22.2226442424142,21.07609897651985
1.2487274842993992,-7.134910420688264,1.199924154402173,5.472362163783675,-13.378946479910486,6.712745619289756
1.1773783800925166,-7.2686998854873694,1.2546477760400099,5.539489619976573,-2.3670719247176937,-11.032691974789397
1.1046913812376429,-7.292370604734546,1.3100426722397756,5.429162700228679,8.052122272559632,-28.195382779613876
1.0317676751902973,-7.21184938200895,1.3643342992420624,5.14720887243254,15.312407297499698,-41.0452348520662
0.9596491813702078,-7.058725309033953,1.4158063879663878,4.736756523911878,18.61564506409047,-48.3430110440315
0.8890619282798683,-6.872568858393048,1.4631739532055066,4.253326413471563,18.785222554806303,-51.168088069516955
0.8203362396959378,-6.684716632844985,1.5057072173402222,3.741645532776394,17.13110192393704,-51.32598342885874
0.7534890733674879,-6.513405613605615,1.543123672667986,3.2283856984878065,14.69179505353529,-50.26624765786828
0.6883550172314318,-6.366487663070262,1.575407529652864,2.725723221909124,12.084985470864602,-48.85504656815719
0.6246901406007291,-6.245637808361616,1.6026647618719552,2.237172756227552,9.619111636864496,-47.52121505511184
0.562233762517113,-6.149446691992972,1.6250364894342306,1.7619606056764334,7.42649046721608,-46.438432799446254
0.5007392955971832,-6.075181787320811,1.642656095490995,1.2975762776819708,5.552473121876257,-45.648890657569645
0.4399874777239751,-6.019657056102048,1.6556318582678147,0.8410873711062743,4.004510018796673,-45.13215325619435
0.37979090716295466,-5.9796119559140815,1.6640427319788773,0.3897658385443308,2.7765236150131236,-44.84004373715479
0.31999478760381384,-5.95184671976395,1.6679403903643206,-0.05863459882721711,1.8600397462511475,-44.71336459428382
0.2604763204061743,-5.933246322301439,1.6673540443760484,-0.5057682447700553,1.2486368730642086,-44.689634607631724
0.2011438571831599,-5.920759953570797,1.6622963619283477,-0.9526645908463726,0.9391123606882315,-44.70666175162585
0.14193625764745194,-5.911368829963915,1.652769716019884,-1.3997312083626312,0.9310514530123049,-44.70436566697444
0.08282256934781279,-5.902058315433792,1.6387724039362577,-1.8467748650323756,1.2256249402142363,-44.62601599016976
0.023801986193474865,-5.88980206603165,1.620304655285934,-2.293035024934073,1.8240313052873607,-44.41941540900931
-0.03509603446684163,-5.871561752978776,1.5973743050365932,-2.7372291790241663,2.725813586229304,-44.03822533749924
-0.09381165199662939,-5.844303617116483,1.5700020132463515,-3.177611432399159,3.927203525163356,-43.44345450787659
-0.15225468816779422,-5.80503158186485,1.5382258989223598,-3.6120459774779246,5.419616203230934,-42.60503339664224
-0.21030500398644272,-5.750835419832541,1.5021054391475805,-4.038096311444347,7.188406993864333,-41.503346566856884
-0.26781335818476815,-5.6789513498938975,1.4617244760331372,-4.453129777112916,9.211994329816362,-40.130575103316154
-0.3246028716837071,-5.586831406595734,1.417193178262008,-4.854435528146078,11.461439803397596,-38.491703942511045
-0.38047118574966443,-5.472217008561758,1.3686488229805471,-5.2393525675711885,13.900559251236018,-36.605068056410616
-0.435193355835282,-5.333211416049398,1.3162552973048351,-5.6054032481352944,16.48661431628734,-34.50234220858443
-0.488525469995776,-5.1683452728865245,1.2602012648234822,-5.950426670221138,19.17160330969559,-32.22791791068679
-0.5402089227246413,-4.976629239789569,1.2006969981212707,-6.272705849328006,21.90413236513955,-29.837656915535813
-0.5899752151225369,-4.757587916138173,1.1379699396279908,-6.571082418483364,24.631802502413414,-27.39706349271092
-0.6375510942839187,-4.511269891114039,1.072259115443157,-6.845053053410473,27.303996893396228,-24.97897823210484
-0.682663793195059,-4.238229922180077,1.0038085849090523,-7.094842835731522,29.874900751305677,-22.66096195937969
-0.7250460924168598,-3.93948091466702,0.9328601565517372,-7.321452455325319,32.306543607926926,-20.522602545640293
-0.76444090156353,-3.6164154785877507,0.859645631998484,-7.5266784807817215,34.5716326614258,-18.643028172919383
-0.8006050563494075,-3.2706991519734925,0.7843788471906668,-7.713108762510915,36.65595710557777,-17.098933925926545
-0.8333120478691424,-2.9041395809177146,0.7072477595655576,-7.8840981017701806,38.560190484205464,-15.963412188375225
-0.8623534436783196,-2.51853767607566,0.6284067785478559,-8.043732223653933,40.300992599376386,-15.305813836473693
-0.8875388204390762,-2.1155277500818963,0.5479694563113165,-8.19679036201867,41.911390288734204,-15.192752445511859
-0.9086940979398951,-1.6964138471945542,0.46600155269112986,-8.348717886473787,43.44045498606832,-15.69018639295808
-0.9256582364118406,-1.262009297333871,0.382514373826392,-8.505619750403369,44.95222559937671,-16.866231429065156
-0.9382783293851793,-0.812487041340104,0.29745817632235827,-8.67428206469402,46.52352862049119,-18.79384711660907
-0.9464031997985803,-0.347251755135192,0.21071535567541805,-8.86222053586011,48.23959198079571,-21.551506518090658
-0.9498757173499323,0.13514416467276508,0.12209315031681695,-9.077735601041017,50.18465328653493,-25.217728604409313
-0.9485242757032046,0.6369906975381143,0.03131579430640678,-9.32991288708511,52.421121890029674,-29.85049781463218
-0.9421543687278235,1.161201916438411,-0.06198333456444431,-9.628417865231432,54.94331053030405,-35.432305523622325
-0.9305423495634394,1.7106350217414517,-0.15826751321675864,-9.982740920467656,57.57723912044849,-41.74132876873454
-0.9134359993460249,2.2864074129459366,-0.25809492242143517,-10.400154208155001,59.77530303035284,-48.076805920295556
-0.8905719252165656,2.884160443249465,-0.36209646450298516,-10.880922267357956,60.242586368091786,-52.74686254809492
-0.861730320784071,3.4865863069303833,-0.4709056871765647,-11.408390892838906,56.43751883466404,-52.36661210454525
-0.8268644577147671,4.050961495277024,-0.5849895961049538,-11.932057013884359,44.53126140678082,-41.75416164438281
-0.7863548427619969,4.496274109344832,-0.7043101662437974,-12.349598630328186,21.553584191730874,-16.792295934039974
-0.7413921016685485,4.711809951262141,-0.8278061525470792,-12.517521589668586,-9.31687575648734,18.41541622057119
-0.6942740021559272,4.618641193697267,-0.9529813684437651,-12.333367427462875,-36.954052981529266,49.17005941817131
-0.6480875902189545,4.249100663881975,-1.0763150427183938,-11.841666833281161,-52.0841749473543,63.5046908982661
-0.6055965835801347,3.7282589144084315,-1.1947317110512055,-11.2066199242985,-55.49217706161028,62.975918460904374
-0.5683139944360504,3.173337143792329,-1.3067979102941905,-10.576860739689456,-52.82789939809781,55.3050186649551
-0.536580622998127,2.6450581498113506,-1.412566517691085,-10.023810553039905,-48.29976367464942,45.97541691698065
-0.5101300415000135,2.1620605130648562,-1.5128046232214842,-9.564056383870097,-43.797539681866255,37.28898475235228
-0.48850943636936495,1.7240851162461936,-1.6084451870601852,-9.191166536346575,-39.92555053481513,29.86566368725615
-0.471268585206903,1.3248296108980424,-1.700356852423651,-8.892509899474014,-36.772939396997266,23.69405723268415
-0.4580202890979226,0.9571002169280698,-1.789281951418391,-8.655569327147173,-34.261319802268154,18.58542799380082
-0.4484492869286419,0.6144870189053883,-1.8758376446898628,-8.469715047209165,-32.27514974148538,14.333961804601628
-0.442304416739588,0.29173552149053444,-1.9605347951619545,-8.326375429163148,-30.704517644575688,10.76334384963654
-0.43938706152468265,-0.015309654955222463,-2.043798549453586,-8.218741990666782,-29.456038903146723,7.73425637328557
-0.43954015807423485,-0.3098700439866897,-2.125985969360254,-8.141399426933926,-28.453115063576504,5.140165049561157
-0.44263885851410173,-0.5944011946224548,-2.207399963629593,-8.089997776438315,-27.633233524619143,2.9007290015167086
-0.4485828704603263,-0.8707335298686463,-2.2882999413939764,-8.060990486423147,-26.94492916590815,0.9557028071627985
-0.45729020575901275,-1.1401828215277279,-2.368909846258208,-8.05143345835152,-26.345199398683818,-0.7400143167295329
-0.46869203397429005,-1.403634815514566,-2.449424180841723,-8.058833601518815,-25.797526333572502,-2.220223361047375
-0.4827283821294357,-1.661610078850291,-2.530012516856911,-8.081035835129288,-25.27045524860217,-3.510376937920771
-0.4993444829179386,-1.9143146313363126,-2.610822875208204,-8.116139604508495,-24.73662628163126,-4.629850184147872
-0.5184876292313018,-2.1616808941526253,-2.691984271253289,-8.162438106349974,-24.17215297919208,-5.593697465742572
-0.540104438172828,-2.403402423944546,-2.7736086523167884,-8.2183750810074,-23.556250180014445,-6.414009092528306
-0.5641384624122735,-2.6389649257446903,-2.8557924031268622,-8.282515171932683,-22.87102290843021,-7.100937320625757
-0.5905281116697204,-2.8676751548289925,-2.9386175548461893,-8.35352454513894,-22.101335205049985,-7.66342637342822
-0.6192048632180104,-3.0886885068794925,-3.0221528002975786,-8.430158808873223,-21.234684395828722,-8.10965764382279
-0.6500917482868053,-3.30103535083778,-3.106454388386311,-8.51125538531145,-20.26101464333756,-8.447208782840299
-0.683102101795183,-3.5036454972711555,-3.1915669422394255,-8.595727473139853,-19.17241625635974,-8.68292409584312
-0.7181385567678946,-3.695369659834753,-3.277524216970824,-8.682556714098284,-17.96267609276599,-8.82250333725332
-0.7550922533662422,-3.874996420762413,-3.364349784111807,-8.770781747470817,-16.62667038446438,-8.869835792833785
-0.7938422175738663,-4.041263124607057,-3.452057601586515,-8.859480105399156,-15.159624075258494,-8.826134854356901
-0.8342548488199368,-4.1928593653596415,-3.540652402640507,-8.947741453942724,-13.556298632513673,-8.688962797433033
-0.8761834424735333,-4.328422351684778,-3.630129817179934,-9.034631081917054,-11.81021049141104,-8.451273374232299
-0.9194676659903811,-4.446524456598889,-3.7204761279991048,-9.119143815659376,-9.913021117380993,-8.10063806244443
-0.96393291055637,-4.545654667772698,-3.8116675661556987,-9.20015019628382,-7.854272468398746,-7.618856811685157
-1.009389457234097,-4.6241973924566855,-3.903669068118537,-9.276338764400672,-5.621662236765279,-6.982180868875772
-1.0556314311586636,-4.680414014824338,-3.9964324557625437,-9.34616057308943,-3.202052890470898,-6.16238543817615
-1.102435571306907,-4.712434543729047,-4.089894061493438,-9.40778442747119,-0.5833747235935844,-5.128909856659898
-1.1495599167441974,-4.718268290964983,-4.18397190576815,-9.45907352603779,2.2425003323955988,-3.852212634912871
-1.1967425996538472,-4.6958432876410265,-4.278562641028528,-9.497595652386918,5.275987196664298,-2.3083443980473937
-1.2437010325302575,-4.643083415674384,-4.373538597552397,-9.520679096367392,8.505416397887691,-0.4845050164710083
-1.2901318666870014,-4.5580292516955065,-4.468745388516071,-9.525524146532101,11.90264746680763,1.6149743438626847
-1.3357121592039565,-4.43900277702743,-4.564000629981392,-9.509374403093474,15.419546401415678,3.963150703632179
-1.3801021869742307,-4.284807313013274,-4.659094374012327,-9.469742896057152,18.98640932030981,6.506719473346026
-1.4229502601043635,-4.094943219810176,-4.7537918029728985,-9.404675701323692,22.513389557246963,9.16530719076721
-1.4638996923024652,-3.8698093242377065,-4.847838559986135,-9.31302262941602,25.895613991435674,11.834826610036634
-1.5025977855448422,-3.61085318432335,-4.940968786280295,-9.194674363315654,29.021932854883868,14.395183312040693
-1.5387063173880757,-3.320633855774511,-5.032915529913452,-9.050722530195246,31.786278001458086,16.721568676441393
-1.5719126559458207,-3.0027710757599304,-5.123422755215405,-8.883506843430832,34.09971681584438,18.69750961044573
-1.60194036670342,-2.6617739076014866,-5.212257823649713,-8.696531747326373,35.90085052307465,20.227182152042335
-1.628558105779435,-2.3027654023707402,-5.299223141122977,-8.49425992580595,37.1624587342001,21.244545513340654
-1.6515857598031423,-1.9311408150287392,-5.384165740381037,-8.281814470672543,37.89319984732293,21.717644895483435
-1.6708971679534297,-1.55220881655551,-5.466983885087762,-8.064638021717709,38.13441560524821,21.647674922492552
-1.6864192561189848,-1.1708646605030277,-5.54763026530494,-7.848161272492783,37.95320481699997,21.063624557225477
-1.698127902724015,-0.791332612333028,-5.626111878029867,-7.637525026920528,37.43356866206173,20.014131620764992
-1.7060412288473452,-0.41699692571241065,-5.702487128299072,-7.437383710712878,36.66747493561509,18.558386546567743
-1.7102111981044694,-0.05032217635625974,-5.776860965406201,-7.251799845247201,35.747269921875954,16.757623374974408
-1.710714419868032,0.30715052286249983,-5.8493789638586735,-7.084223611497457,34.76023789121611,14.66815589960117
-1.707642914639407,0.654752901774661,-5.920221199973648,-6.9375420525014455,33.78551008050324,12.336305078894629
-1.7010953856216604,0.9926080025796933,-5.989596620498663,-6.814179001712499,32.89310181706028,9.795084956588063
-1.6911693055958634,1.3215390207502962,-6.057738410515788,-6.716228152146618,32.14464490674763,7.062227898042084
-1.6779539153883605,1.6429854698177726,-6.124900692037254,-6.645605873166197,31.595345452412023,4.139017763105522
-1.6615240606901827,1.9589389243418929,-6.191356750768916,-6.604215695535141,31.29676728133833,1.009409659715792
-1.6419346714467637,2.2719065971552763,-6.2573989077242675,-6.594121598937983,31.300149379330794,-2.3610012381989236
-1.619215605475211,2.584908090948584,-6.323340123713647,-6.6177316113199725,31.660050153229655,-6.026459887468924
-1.5933665245657251,2.901508592480881,-6.389517439826847,-6.677996210194662,32.438102415687325,-10.063045931295697
-1.5643514386409163,3.225889616637754,-6.4562974019287935,-6.778626669507619,33.70644157191042,-14.570779925515625
-1.5320925424745389,3.5629540323568585,-6.52408366862387,-6.924334468762775,35.549673170725065,-19.674372025808655
-1.4964630021509702,3.9184507640641093,-6.593327013311498,-7.121078189020862,38.0624594091966,-25.518612358919462
-1.457278494510329,4.299075358156076,-6.664537795201706,-7.376264312610057,41.335492682530486,-32.248387220536635
