th1 (rad),w1 (rad/s),th2 (rad),w2 (rad/s)
0.3547548329327323,-2.967997107479923,2.145126849201635,-0.21556206266421082
0.32507486185793305,-3.0214024453301978,2.142971228574993,-0.3954461037611483
0.2948608374046311,-3.0744310967928716,2.1390167675373815,-0.579323536027361
0.26411652643670236,-3.1266318596623557,2.133223532177108,-0.767027966201883
0.23285020784007882,-3.1775157915274415,2.125553252515089,-0.9583281708382394
0.2010750499248044,-3.2265564131367896,2.1159699708067063,-1.1529260687038456
0.16880948579343652,-3.273190791028585,2.104440710119668,-1.3504556679309843
0.13607757788315067,-3.3168215842641757,2.090936153440358,-1.5504831585601342
0.1029093620405089,-3.3568201190749267,2.0754313218547566,-1.7525083001055703
0.06934116084975964,-3.39253052968515,2.057906238853701,-1.9559672248137288
0.03541585555290814,-3.423274974735859,2.0383465666055636,-2.1602367420213993
0.0011831058055495475,-3.4483599081077894,2.0167441991853496,-2.36464018975307
-0.033300493275528344,-3.4670833520716227,1.993097797287819,-2.568454839091478
-0.06797132679624457,-3.4787430908722663,1.9674132488969043,-2.770920817534741
-0.10275875770496723,-3.482645674835692,1.9397040407215569,-2.9712514816196727
-0.13758521445332417,-3.4781160988635706,1.9099915259053601,-3.1686451376786193
-0.17236637544195987,-3.464507993905034,1.8783050745285739,-3.362297982562096
-0.2070114553810102,-3.4412141441013158,1.844682094702953,-3.5514181120087773
-0.24142359682202336,-3.4076771138589677,1.809167913582865,-3.735240420485334
-0.27550036796061306,-3.363399736394849,1.7718155093780117,-3.9130421896467866
-0.30913436532456157,-3.307955177493116,1.7326850874815438,-4.084159130343218
-0.3422139170994927,-3.2409962461239323,1.6918434961781117,-4.248001603976091
-0.37462387956073206,-3.162263580168849,1.6493634801383508,-4.404070704023379
-0.40624651536242057,-3.0715922961222066,1.605322773098117,-4.551973831821071
-0.4369624383236426,-2.96891666369777,1.5598030347799063,-4.6914393595720085
-0.4666516049606203,-2.854272358336594,1.5128886411841862,-4.822329948134647
-0.49519432854398626,-2.727795864971734,1.4646653417028397,-4.944654088953054
-0.5224722871937036,-2.5897206612377195,1.415218800813309,-5.058575479598474
-0.5483694938060808,-2.440369899828963,1.3646330460173244,-5.1644199291981465
-0.5727731928043704,-2.280145434669914,1.312988846725343,-5.26267962715817
-0.5955746471510696,-2.109513184586308,1.2603620504537614,-5.354014793461056
-0.6166697789969326,-1.9289849861925612,1.206821902519151,-5.439252952275148
-0.6359596288588583,-1.7390972356257943,1.1524293729963995,-5.519386317854817
-0.6533506012151162,-1.5403867361064727,1.0972355098178512,-5.595568034442709
-0.6687544685761809,-1.3333642366080636,1.0412798294734242,-5.66910825118996
-0.6820881109422615,-1.1184861530966597,0.9845887469615247,-5.7414712222528115
-0.6932729724732282,-0.8961249033243385,0.9271740347389965,-5.81427478835687
-0.7022342215064715,-0.6665381659026712,0.8690312868554279,-5.889293709634815
-0.7088996031654983,-0.4298372159733037,0.8101383497590797,-5.96846836949484
-0.7131979753252313,-0.18595433541346376,0.7504536660641313,-6.053920332448728
-0.715057518679366,0.0653907798725282,0.6899144627396441,-6.14797605794522
-0.7144036108806406,0.3247255555252685,0.6284347021601919,-6.253199614310925
-0.7111563553253879,0.5928593596072956,0.5659027060170827,-6.372434213175319
-0.7052277617293149,0.8709164236546623,0.5021783638853295,-6.508850195366671
-0.6965185974927682,1.1603613107924244,0.4370898619316628,-6.665992529166998
-0.684914984384844,1.463004396568083,0.37042993663999285,-6.847811510132331
-0.6702849404191632,1.7809608051810324,0.3019518215386695,-7.058641435165478
-0.6524753323673529,2.1165087096121167,0.23136540718701473,-7.303054525976688
-0.6313102452712317,2.471740344428397,0.15833486192724783,-7.585445061240169
-0.6065928418269477,2.847803737592162,0.08248041131484614,-7.909066142876703
-0.5781148044510261,3.243378309917436,0.0033897498860791103,-8.27402368474578
-0.5456810213518518,3.6518416188859866,-0.07935048696137868,-8.673464720568587
-0.5091626051629919,4.056600658002511,-0.16608513416706455,-9.087197046777796
-0.4685965985829668,4.425093971235728,-0.2569571046348425,-9.473370234405323
-0.42434565887060954,4.705621960757336,-0.35169080697889576,-9.763866853268794
-0.3772894392630362,4.837190672735361,-0.4493294755115837,-9.877402595126556
-0.32891753253568257,4.780213929887238,-0.5481035014628493,-9.761164543782787
-0.2811153932368102,4.548947272119329,-0.6457151469006771,-9.434681287174314
-0.23562592051561687,4.205552542104164,-0.7400619597724203,-8.981099775774435
-0.19357039509457524,3.8190602583489355,-0.8298729575301647,-8.49117936791024
-0.15537979251108588,3.4357934578048557,-0.914784751209267,-8.02394050788097
-0.12102185793303732,3.077448065605484,-0.9950241562880767,-7.605119721459963
-0.09024737727698248,2.75048555603339,-1.0710753535026765,-7.240456799466101
-0.06274252171664858,2.4542488006897387,-1.1434799214973375,-6.926770394914589
-0.0382000337097512,2.1854579284250155,-1.2127476254464833,-6.657924307884858
-0.01634545442550104,1.9402554893281194,-1.2793268685253318,-6.4274393616340735
0.003057100467780155,1.7150135073319819,-1.3436012621416726,-6.229453131593201
0.020207235541099974,1.50659055748704,-1.4058957934576046,-6.058969217748584
0.03527314111597037,1.312365223831216,-1.4664854856350904,-5.91183251409101
0.048396793354282534,1.1301887576946108,-1.5256038107760006,-5.784616134971679
0.05969868093122864,0.9583160940780442,-1.5834499721257174,-5.674493719783943
0.06928184187200909,0.795338044777748,-1.6401949093235568,-5.579123450721077
0.07723522231978656,0.6401222150905854,-1.6959861438307675,-5.496550919030051
0.08363644447069242,0.49176404400634466,-1.750951653021068,-5.425130702940818
0.08855408491075586,0.3495471001479964,-1.8052029600504762,-5.363464158576117
0.09204955591223583,0.2129111050532224,-1.8588376016362373,-5.310350497574405
0.09417866696276805,0.08142612660892676,-1.9119411066119814,-5.26474848964958
0.09499292822885733,-0.04522842333165056,-1.964588591508477,-5.225746580741479
0.09454064399554082,-0.1672811099630349,-2.0168460573158917,-5.192539665284351
0.09286783289591047,-0.28488300628648766,-2.0687714539687354,-5.164411131211702
0.09001900283304559,-0.3981201239856041,-2.1204155652808523,-5.140719096967452
0.08603780159318955,-0.5070242671115999,-2.171822756250527,-5.1208859881921365
0.08096755892207355,-0.6115826927907112,-2.223031616132448,-5.104390770549861
0.07485173199416643,-0.7117468488316023,-2.2740755238379466,-5.09076327734643
0.0677342635058504,-0.8074403635410462,-2.324983156611411,-5.079580157804874
0.059659859870439945,-0.8985663851161879,-2.3757789581894597,-5.070462034071427
0.05067419601927806,-0.9850143047976231,-2.426483578530174,-5.0630715006143605
0.04082405297130183,-1.0666658486984886,-2.4771142935363177,-5.057111635665123
0.030157394484316945,-1.1434004877298254,-2.527685409892969,-5.052324726510669
0.018723389607018692,-1.2151000935108376,-2.5782086571580756,-5.048490943359417
0.006572388671910316,-1.281652760739859,-2.6286935665916698,-5.0454267335399825
-0.006244138935488273,-1.3429557230075755,-2.6791478339270696,-5.042982751061916
-0.01967369616556403,-1.3989173086544673,-2.7295776614376885,-5.041041186896991
-0.0336628692521087,-1.4494579144560447,-2.7799880733066584,-5.0395124223039085
-0.04815744839666915,-1.4945100153299677,-2.8303831975296974,-5.038330989564942
-0.06310254854996883,-1.5340172748744398,-2.8807665074253466,-5.037450889154486
-0.07844272129871323,-1.567932870834403,-2.9311410163168916,-5.03684037649766
-0.09412205000705726,-1.596217197752865,-2.9815094200818684,-5.036476391648592
-0.11008422198458591,-1.618835152295307,-3.0318741839983545,-5.03633885793072
-0.12627257350753898,-1.635753241459478,-3.082237572577662,-5.036405117544727
-0.14263010592213377,-1.6469367769308112,-3.132601623753109,-5.036644800433628
-0.15909947369144187,-1.6523474275667347,-3.182968071757445,-5.037015434811549
-0.1756229479671092,-1.651941394335824,-3.2333382261055608,-5.037459101701696
-0.19214236191046744,-1.64566844660284,-3.2837128171225776,-5.0379004100962845
-0.20859904637649584,-1.6334720148052648,-3.33409182122354,-5.038246023081657
-0.2249337665245485,-1.6152904726277038,-3.3844742814543567,-5.0383858984589995
-0.24108667125082553,-1.5910596632876504,-3.434858140438947,-5.038196321250884
-0.25699726788370203,-1.560716632590654,-3.4852401036514555,-5.03754470290932
-0.27260443420960856,-1.524204430930153,-3.5356155506805487,-5.036296008041962
-0.2878464785189101,-1.481477744305545,-3.585978510760968,-5.034320551439285
-0.3026612559619655,-1.4325090194096868,-3.636321716275361,-5.031502795789386
-0.3169863461560624,-1.3772946697667887,-3.6866367442332546,-5.027750685050016
-0.3307592928537303,-1.3158608987438236,-3.7369142510837547,-5.023004981827953
-0.34391790184116855,-1.2482686595867623,-3.7871443009020345,-5.017248049904281
-0.35640058843703615,-1.1746172980011953,-3.837316781401077,-5.010511542719536
-0.3681467614170481,-1.0950464902907568,-3.8874218968282723,-5.002882527781718
-0.3790972263199557,-1.0097361954218493,-3.9374507221060897,-4.994507692129642
-0.3891945882741742,-0.9189044729846748,-3.9873957990273863,-4.985595425530433
-0.39838363300402097,-0.8228031669179335,-4.037251753282691,-4.976415751202563
-0.4066116646732003,-0.7217116006871485,-4.087015910794716,-4.967298250649327
-0.4138287806800718,-0.615928557023102,-4.136688893301209,-4.958628291471907
-0.4199880662503028,-0.505762910532936,-4.186275176215928,-4.950841999179175
-0.4250456953556322,-0.39152333519756505,-4.23578359620772,-4.944420505318328
-0.4289609287076078,-0.2735075172571076,-4.285227801260904,-4.939884050314923
-0.4316960038801789,-0.15199126914212685,-4.334626641764053,-4.937786522334142
-0.4332159165716002,-0.027217868425891523,-4.384004506987394,-4.938710980967239
-0.43348809525585913,0.10061215329658249,-4.433391616797067,-4.943266658267923
-0.4324819737228933,0.23135066266716214,-4.482824283379746,-4.952087863248439
-0.4301684670962217,0.36491103217678034,-4.532345162012231,-4.965835153155497
-0.4265193567744539,0.5012768401127504,-4.5820035135437855,-4.985199088168475
-0.4215065883733264,0.6405104176101946,-4.63185550442547,-5.01090686601532
-0.4151014841972244,0.7827616090064762,-4.681964573085623,-5.043732147533358
-0.40727386810715965,0.9282772183194699,-4.732401894560957,-5.0845084395080375
-0.397991095923965,1.0774117202104796,-4.783246978956037,-5.134146501585119
-0.38721697872186017,1.2306399228791605,-4.834588443971889,-5.193656392342105
-0.37491057949306855,1.3885723863900878,-4.88652500789531,-5.264174965608782
-0.3610248556291677,1.5519745213694016,-4.939166757551398,-5.346999865458729
-0.34550511041547366,1.721790405920955,-4.992636756205985,-5.443631325771877
-0.3282872063562641,1.8991724219044899,-5.047073069463703,-5.555823302959105
-0.30929548213721925,2.0855177265078364,-5.102631302493294,-5.685645528987084
-0.2884403048721409,2.282512120907884,-5.159487757783165,-5.835557676252388
-0.2656151836630621,2.4921805794308995,-5.217843334545688,-6.008495343236413
-0.24069337786875308,2.716940550020468,-5.277928287978052,-6.207963639177205
-0.2135239723685484,2.9596469995289683,-5.340007924369824,-6.438124865965573
-0.18392750237325872,3.223602591565175,-5.40438917302948,-6.703846033216606
-0.15169147645760697,3.5124731243594374,-5.471427633361646,-7.0106269241740575
-0.1165667452140126,3.829978965717247,-5.541533902603387,-7.364234417783242
-0.07826695555684013,4.179093610126406,-5.615176246781219,-7.769675838416573
-0.03647601945557607,4.560220144813056,-5.692873005165385,-8.228781275042751
0.009126181992554494,4.967415212220597,-5.775160817915813,-8.735099603238554
0.05880033411476046,5.381449689134715,-5.862511813948198,-9.264400456686522
0.11261483100610761,5.759696793959915,-5.955155818515063,-9.760697423198708
0.17021179894570676,6.029120841174682,-6.052762792747051,-10.126378454997461
0.23050300735745358,6.101538334762782,-6.154026577297025,-10.242920383429034
0.2915183907050814,5.927480651234986,-6.256455781131316,-10.04471349454498
0.35079319721743124,5.546943025354324,-6.356902916076765,-9.588107335489875
0.40626262747097447,5.061276902604572,-6.452783989431664,-9.011602899847867
0.4568753964970202,4.559513905165641,-6.542900018430142,-8.43472466040861
0.5024705355486766,4.087465205886199,-6.627247265034228,-7.917062727050619
0.5433451876075386,3.6590986218026993,-6.706417892304734,-7.4750409205582375
0.5799361738255656,3.2735676259061575,-6.781168301510316,-7.105579495774256
0.6126718500846272,2.9250439288477112,-6.852224096468059,-6.799453541767812
0.6419222893731044,2.6068810539113727,-6.920218631885737,-6.54679236328812
0.6679910999122181,2.313053833698563,-6.985686555518618,-6.338877258467852
0.6911216382492037,2.0385119071610784,-7.049075328103297,-6.168499327940972
0.7115067573208145,1.7791528750324215,-7.110760321382706,-6.0298337749912285
0.7292982860711387,1.5316881638712065,-7.171058659132618,-5.918192246765026
0.7446151677098507,1.2934988885965866,-7.230240581600269,-5.829777244360186
0.7575501565958166,1.062511762800583,-7.288538354043871,-5.761473844614392
0.7681752742238224,0.8371006807178503,-7.346153092490015,-5.710682953100868
0.7765462810310009,0.6160115053047509,-7.403259922021023,-5.675190881270278
0.7827063960840484,0.39830552394760566,-7.460011830833726,-5.653068325974451
0.7866894513235244,0.18331702573544736,-7.51654251409347,-5.642592605987566
0.7885226215808789,-0.02937896212128155,-7.572968440153346,-5.642188372213796
0.7882288319596661,-0.2399920820998883,-7.629390323875484,-5.650383303424037
0.7858289111386672,-0.44853791656227937,-7.685894156909724,-5.665776336388287
0.7813435319730444,-0.6548573408371458,-7.742551920273606,-5.687016727249776
0.774794958564673,-0.8586357385395555,-7.799422087546104,-5.712792718238617
0.7662086011792774,-1.0594234345003732,-7.856550014728491,-5.741828820890802
0.7556143668342736,-1.256658261988997,-7.913968302937398,-5.77289075825269
0.7430477842143837,-1.4496907110550068,-7.971697210519925,-5.804796974388985
0.7285508771038336,-1.6378116070407036,-8.029745180263815,-5.83643537017064
0.7121727610334265,-1.8202817668494846,-8.088109533965522,-5.866783622330717
0.6939699433649317,-1.9963626180942815,-8.146777370188829,-5.894931160790606
0.6740063171839888,-2.165346397068677,-8.205726681796735,-5.92010069265264
0.652352853213302,-2.3265843204195837,-8.264927688723262,-5.941667136211143
0.6290870100091062,-2.4795110945444367,-8.324344360085373,-5.959172007965873
0.6042918990636618,-2.623664302980397,-8.383936080165032,-5.972331698127291
0.5780552560338578,-2.7586975792480675,-8.443659397146305,-5.981038643195801
0.5504682802413771,-2.8843869812938543,-8.503469783578263,-5.985355088735898
0.5216244104284385,-3.0006305592653857,-8.563323334465622,-5.985499838474967
0.49161810483578466,-3.107441666011864,-8.623178332850372,-5.981829009946671
0.46054368817566604,-3.204937021733212,-8.682996622949839,-5.974812280773422
0.4284943179583339,-3.2933208551091386,-8.742744745757573,-5.965006363976389
0.39556110940724254,-3.372866578420639,-8.802394809397336,-5.953027485084978
0.3618324436230361,-3.443897420617546,-8.861925084248186,-5.939524474327422
0.32739346941686065,-3.506767272177086,-8.921320328991461,-5.925153785820597
0.2923257966950898,-3.5618427357358664,-8.980571866849667,-5.910557376247101
0.25670736933773114,-3.6094870769145704,-9.039677440612138,-5.8963439799673765
0.22061249856858545,-3.6500464745628487,-9.098640880411812,-5.883073955945286
0.18411203382295696,-3.6838387113318,-9.157471619971265,-5.87124758742109
0.14727364670963897,-3.711144243176274,-9.216184095845476,-5.861296503770166
0.11016220427787624,-3.7321994470733966,-9.274797060883177,-5.853577766807187
0.07284020980714226,-3.74719176763381,-9.333332838551248,-5.848370112310598
0.03536829213080416,-3.7562564572741683,-9.391816539674354,-5.845871847739082
-0.0021942724419375254,-3.759474620390066,-9.450275258151745,-5.846199963389328
-0.039789018645838184,-3.756872318279273,-9.508737257785638,-5.849390101993986
-0.07735774182863092,-3.7484205581488124,-9.567231158805578,-5.855397138712152
-0.11484194741011905,-3.7340360676667004,-9.6257851301927,-5.864096240027763
-0.15218230808678607,-3.713582838947979,-9.684426092592977,-5.875284388941947
-0.18931813647626586,-3.6868745063978836,-9.743178936482396,-5.888682479211748
-0.2261868815402447,-3.6536776956957016,-9.802065761274513,-5.903938187953073
-0.2627236584972017,-3.613716540406762,-9.861105143154044,-5.92062992795946
-0.29886082390126933,-3.566678601595279,-9.920311442433638,-5.938272251674654
-0.33452760991722214,-3.512222436876786,-9.979694164950384,-5.956323119407417
-0.36964983428598996,-3.4499870405492,-10.039257396144459,-5.97419344517731
-0.404149704691482,-3.37960330805739,-10.098999330596232,-5.991259284038233
-0.43794573777205587,-3.300707560207929,-10.158911923436614,-6.006876915440164
-0.47095281337413514,-3.2129569933548545,-10.218980692591016,-6.020400902330901
-0.5030823833076837,-3.116046705751481,-10.279184701614325,-6.031204966098983
-0.5342428503651986,-3.009727700684221,-10.339496751275314,-6.0387052237705525
-0.5643401273720408,-2.893825007320429,-10.39988380351302,-6.042385008981067
-0.593278377445245,-2.7682548236755093,-10.46030765360283,-6.041820177836327
-0.6209609256820001,-2.633039412884108,-10.520725855381194,-6.036703531048997
-0.6472913198108412,-2.488318415255669,-10.581092890691684,-6.026866815592132
-0.672174503963398,-2.334355308432888,-10.641361558847604,-6.012298749159622
-0.6955180570477268,-2.1715379740404854,-10.7014845463392,-5.9931576705073715
-0.7172334367881317,-2.0003727051626345,-10.761416123044274,-5.969777764787732
-0.737237163839758,-1.8214714808505246,-10.82111390069215,-5.942668320744035
-0.7554518786482632,-1.6355328825801883,-10.880540583899592,-5.912506091015919
-0.7718072074740652,-1.4433175580887945,-10.93966564480975,-5.880121470267253
-0.7862403830549531,-1.2456195732048154,-10.998466859512423,-5.846479792743118
-0.7986965787870013,-1.0432352683985087,-11.056931657439854,-5.8126595046755725
-0.8091289314709864,-0.8369313160579855,-11.11505825248661,-5.779829235788843
-0.8174982446315663,-0.6274135516084325,-11.1728565448445,-5.749225860331331
-0.8237723801476506,-0.4152978523009075,-11.230348803447813,-5.722135519632817
-0.8279253586706598,-0.20108391046283408,-11.28757015864414,-5.699879322594494
-0.829936197775288,0.014867747502114947,-11.344568951870086,-5.68380511299903
-0.8297875203002669,0.2323556519418494,-11.401407003000076,-5.67528636284619
-0.8274639637808484,0.4513548195602778,-11.458159866628538,-5.675728981863832
-0.8229504155852456,0.6720327634875995,-11.514917156447176,-5.686586672989307
-0.8162300879503697,0.8947654684132396,-11.571783023177069,-5.709385441592202
-0.8072824332662373,1.1201549923800869,-11.62887687759299,-5.745757992287007
-0.7960808833424364,1.3490505751157378,-11.68633445751586,-5.7974890085764015
-0.782590377591279,1.5825752859771791,-11.744309347601625,-5.866572661721089
-0.7667646247315072,1.822160283018611,-11.802975074218836,-5.955284028876719
-0.748543021901321,2.0695885274660695,-11.862527914507602,-6.066266177632611
-0.7278471366266603,2.3270489332349964,-11.923190576283929,-6.202633965496098
-0.7045766472943104,2.597199581106972,-11.98521691593889,-6.368092940359369
-0.6786046514832407,2.883232916745522,-12.048897845342484,-6.567064541710158
-0.6497723223157854,3.188922692007394,-12.114568490759586,-6.804791467505633
-0.6178830953957115,3.518602985814483,-12.182616405434642,-7.087357391043527
-0.5826970655375667,3.8769653611557127,-12.253489979345076,-7.421467296664101
-0.5439274119260096,4.268423835566687,-12.327704652311716,-7.8136463584980635
-0.5012431735703426,4.695523621585515,-12.405841115896697,-8.268134293719488
-0.45428793735448747,5.1553871968771805,-12.488522458833891,-8.782075174873025
-0.40273406538571566,5.632625063491125,-12.576343210582621,-9.335794777839618
