th1 (rad),w1 (rad/s),th2 (rad),w2 (rad/s),a1 (rad/s^2),a2 (rad/s^2)
3.316787026636735,1.0348193503359109,0.305228633070813,1.2923497029733733,0.41034017441940324,-2.3992791353833374
3.3271352201400943,1.038922752080105,0.3181521301005467,1.26835691161954,0.49722257260396635,-2.4299857613401867
3.337524447660895,1.0438949778061446,0.3308356992167421,1.244057054006138,0.5877375121446752,-2.454409484761172
3.3479633974389564,1.0497723529275913,0.3432762697568035,1.2195129591585263,0.6819743805840318,-2.4724301217828657
3.3584611209682325,1.0565920967334317,0.35547139934838873,1.1947886579406977,0.7800188171877094,-2.483938897672603
3.3690270419355666,1.0643922849053087,0.3674192859277957,1.1699492689639717,0.8819536695245829,-2.4888377104367168
3.3796709647846197,1.0732118216005546,0.3791187786174354,1.1450608918596046,0.9878598311223951,-2.4870385665494914
3.390403083000625,1.0830904199117786,0.3905693875360315,1.1201905061941098,1.097816929249496,-2.4784632322577074
3.401233987199743,1.0940685892042736,0.40177129259797256,1.0954058738715327,1.2119038316534496,-2.4630431449609937
3.4121746730917857,1.1061876275208082,0.41272535133668786,1.0707754424219227,1.3301989407291872,-2.4407196304369685
3.423236549366994,1.1194896169281001,0.4234331057609071,1.046368246117553,1.452780243061159,-2.411444473209611
3.434431445536275,1.1340174193587118,0.4338967882220826,1.022253801385457,1.5797250815729633,-2.375180889159952
3.4457716197298622,1.1498146701744414,0.4441193262359372,0.9985019924938574,1.7111096166361652,-2.3319049515259818
3.4572697664316068,1.166925766340803,0.45410434616087575,0.9751829429785975,1.8470079414766816,-2.2816075236698508
3.4689390240950146,1.1853958457555698,0.4638561755906617,0.952366867741899,1.9874908161408036,-2.224296754296649
3.4807929825525705,1.2052707539169778,0.4733798442680807,0.9301239001989325,2.1326239832480614,-2.160001193027629
3.49284569009174,1.2265969937494585,0.48268108327007003,0.9085238882686563,2.2824660279053095,-2.0887735861405283
3.5051116600292347,1.2494216540285117,0.4917663221527566,0.887636152407251,2.437065743670599,-2.010695413599391
3.5176058765695197,1.2737923114652177,0.5006426836768292,0.8675291982712571,2.5964589665656206,-1.9258822288390174
3.530343799684172,1.2997569011308738,0.5093179756595417,0.8482703759828669,2.7606648401239218,-1.8344898616911878
3.5433413686954807,1.327363549532113,0.5178006794193704,0.829925477365955,2.9296814766627612,-1.7367215417937905
3.556615004190802,1.3566603642987407,0.5260999341930299,0.8125582619480171,3.103480983772009,-1.6328359941616724
3.5701816078337894,1.3876951741364607,0.5342255168125101,0.7962299020064003,3.2820038308731583,-1.5231565495661994
3.584058559575154,1.4205152124451923,0.542187815832574,0.7809983365107384,3.4651525391224194,-1.4080812991087488
3.5982637116996057,1.4551667378364166,0.5499977991976814,0.7669175235196508,3.6527846894722376,-1.2880943039217587
3.61281537907797,1.491694584731139,0.5576669744328779,0.7540365804804332,3.8447052589679727,-1.1637778462393489
3.6277323249252813,1.5301416373208185,0.5652073402376823,0.7423988020180398,4.040658314972708,-1.0358256760323965
3.6430337412984897,1.5705482204705457,0.5726313282578627,0.7320405452577158,4.240318121624333,-0.9050571668530011
3.6587392235031952,1.612951401686789,0.5799517337104398,0.7229899735891858,4.443279743058102,-0.7724322443522118
3.6748687375200633,1.65738419911737,0.5871816334463317,0.7152656511456637,4.649049264343332,-0.6390668900816441
3.691442579511237,1.7038746917608032,0.5943342899577884,0.7088749822448472,4.857033794154968,-0.5062489507990303
3.708481326428845,1.7524450297023528,0.6014230397802368,0.703812492736857,5.066531463246973,-0.37545389899271103
3.7260057767258687,1.8031103443348226,0.6084611647076054,0.7000579537469299,5.276721689917167,-0.24836009356848934
3.744036880169217,1.8558775612339944,0.6154617442450747,0.697574352811245,5.486656047667345,-0.12686298103918697
3.7625956557815567,1.9107441217106678,0.6224374877731872,0.6963057230008531,5.695250140613322,-0.01308755833709562
3.7817030969986636,1.967696623116801,0.6294005450031958,0.6961748474174821,5.901276967871831,0.09060170925744664
3.8013800632298316,2.026709392795519,0.6363622934773706,0.6970808645100566,6.1033623375615385,0.18159445415643222
3.821647157157787,2.0877430161711343,0.6433331021224712,0.6988968090516209,6.299982971934238,0.25703252811259325
3.842524587319498,2.150742845890477,0.6503220702129874,0.7014671343327468,6.489468024395195,0.313813876840961
3.864032015778403,2.215637526134429,0.6573367415563148,0.7046052731011564,6.670004802668264,0.3486034749141933
3.8861883910397474,2.2823375741611116,0.6643827942873264,0.7080913078502983,6.839649554777035,0.35785271089748344
3.9090117667813584,2.350734069708882,0.6714637073658294,0.7116698349592732,6.996344219035666,0.3378286537356323
3.932519107478447,2.4206975118992387,0.6785804057154221,0.7150481214966294,7.137940057283828,0.28465461329201786
3.9567260825974393,2.492076912472077,0.6857308869303884,0.7178946676295496,7.262229071493091,0.19436330972659527
3.98164685172216,2.5646992031870077,0.6929098336066839,0.7198383007268155,7.366984034613652,0.06296376377124398
4.00729384375403,2.638369043533144,0.7001082166139521,0.7204679383645279,7.450007831687268,-0.11347731431707558
4.033677534189361,2.7128691218500167,0.7073128959975974,0.7193331652213572,7.509192589198306,-0.3387393542578297
4.060806225407862,2.787961047742,0.714506227649811,0.7159457716787788,7.542588750378709,-0.6163373748729702
4.088685835885282,2.863386935245787,0.7216656853665988,0.7097823979300492,7.54848381308805,-0.9493983514273686
4.1173197052377395,2.9388717733766674,0.7287635093458993,0.7002884144157755,7.525489869639857,-1.34052692495942
4.146708422971506,3.014126672073066,0.735766393490057,0.6868831451661813,7.472638367029471,-1.7916642270589445
4.1768496896922365,3.088853055743361,0.7426352249417189,0.6689665028955919,7.389479647849333,-2.303945137008263
4.20773822024967,3.1627478522218544,0.7493248899706748,0.6459270515255092,7.276183864556853,-2.8775609562529443
4.239365698771889,3.235509690867423,0.7557841604859299,0.6171514419629798,7.133638839836928,-3.5116361596402794
4.2717207956805625,3.306846079265792,0.7619556749055597,0.582035080366577,6.96353946686558,-4.204129389506154
4.304789256473221,3.3764814739344478,0.7677760257092254,0.5399937864715155,6.768462437916988,-4.951769967522854
4.338554071212565,3.4441660983136178,0.7731759635739406,0.49047608679628696,6.551919626204845,-5.750041637082535
4.372995732195701,3.5096852945756662,0.7780807244419035,0.4329756704254616,6.3183835144281035,-6.593224728560509
4.408092585141458,3.572869129719947,0.7824104811461581,0.3670434231398565,6.073278850898888,-7.474506207215432
4.4438212764386575,3.633601918228936,0.7860809153775566,0.2922983610677022,5.822936365949489,-8.386163962282879
4.480157295620947,3.691831281888431,0.7890038989882336,0.2084367214448734,5.574506956930425,-9.319827238575911
4.517075608439831,3.7475763514577354,0.7910882662026824,0.11523844905911429,5.335838178938485,-10.266809543841259
4.554551371954409,3.80093473324712,0.7922406506932735,0.012570353620701705,5.115318930449903,-11.218504198640865
4.59256071928688,3.852087922551619,0.7923663542294805,-0.09961468836570694,4.9217025081142385,-12.166826694297834
4.631081598512396,3.9013049476327617,0.7913702073458234,-0.2212829553086853,4.763922211898115,-13.104683122870698
4.670094647988724,3.948944169751743,0.7891573777927365,-0.3523297865373923,4.650916859771755,-14.02644110297693
4.709584089686241,3.9954533383494604,0.7856340799273626,-0.4925941975671616,4.591485443104374,-14.928379652330804
4.749538623069736,4.041368192780504,0.7807081379516909,-0.6418779940904696,4.59419043785732,-15.809097821235003
4.7899523049975405,4.087310097159077,0.7742893580107862,-0.7999689723028197,4.667327993293565,-16.669868608339424
4.830825405969131,4.1339833770920125,0.766289668287758,-0.9666676583862139,4.818980696606786,-17.514934252145277
4.872165239740052,4.1821731840580805,0.7566229917038959,-1.1418170009076667,5.057165515125329,-18.351750561527126
4.913986971580632,4.232744839209333,0.7452048216948193,-1.325334506522938,5.390086717513613,-19.191200461740852
4.956314419972726,4.286645706384469,0.7319514766295899,-1.5172465111403466,5.826502013592218,-20.047809402483256
4.99918087703657,4.344910726520391,0.7167790115181865,-1.717724605165179,6.376210687444606,-20.940007012831565
5.042629984301774,4.408672833394837,0.6996017654665346,-1.9271246752934947,7.050675757762771,-21.89049012270242
5.086716712635723,4.479179590972465,0.6803305187135997,-2.146029576520519,7.863798426221581,-22.92675206357922
5.131508508545448,4.557817575234681,0.6588702229483946,-2.375297097156311,8.832871885299001,-24.08185199286974
5.1770866842977945,4.646146294087671,0.6351172519768314,-2.6161156170850086,9.97975138872191,-25.395504751971337
5.223548147238671,4.74594380797489,0.6089560958059813,-2.870070664604722,11.332284244990324,-26.91557208126006
5.27100758531842,4.859266650424793,0.5802553891599341,-3.139226385417323,12.92603719058024,-28.700017360395524
5.319600251822668,4.9885270223305955,0.5488631253057609,-3.426226559021278,14.806316085242011,-30.819316833908633
5.369485522045974,5.136590183183015,0.514600859715548,-3.7344197273603643,17.03033932947916,-33.35912471103795
5.420851423877804,5.306893576477807,0.47725666244194437,-4.068010974470744,19.669073999117078,-36.42248913992657
5.473920359642582,5.503584316468978,0.43657655269723694,-4.43223586587001,22.80737430497287,-40.12969377533465
5.528956202807271,5.731658059518707,0.39225419403853684,-4.833532803623356,26.538983938989347,-44.610887062809866
5.586272783402459,5.9970478989086,0.34391886600230326,-5.2796416742514545,30.948100379926764,-49.97984942513624
5.646243262391544,6.306528902707868,0.2911224492597887,-5.779440168502817,36.05813377226477,-56.26174721465871
5.709308551418623,6.667110240430516,0.23332804757476053,-6.342057640649404,41.70462219511422,-63.214545335753186
5.775979653822928,7.0841564623816575,0.1699074711682665,-6.974203094006937,47.246313888339614,-69.92351299936199
5.8468212184467445,7.556619601265053,0.10016544022819712,-7.673438224000557,50.98855181591431,-73.99231881599374
5.922387414459395,8.066505119424196,0.023431057988191548,-8.413361412160494,49.34422217060541,-70.36659218624376
6.003052465653638,8.55994734113025,-0.060702556133413396,-9.117027334022932,36.7573392322602,-51.23097039140158
6.08865193906494,8.927520733452852,-0.15187282947364272,-9.629337037936947,9.640436607431564,-11.548067200486729
6.177927146399469,9.023925099527167,-0.2481661998530122,-9.744817709941815,-24.823817251708384,38.57551231112324
6.268166397394741,8.775686927010083,-0.34561437695243036,-9.359062586830582,-49.68826758764155,75.3164040766642
6.355923266664842,8.278804251133668,-0.43920500282073616,-8.60589854606394,-56.94357213234894,87.3853843574951
6.4387113091761785,7.709368529810178,-0.5252639882813755,-7.73204470248899,-52.68235949134362,83.2607194997883
6.51580499447428,7.182544934896742,-0.6025844353062655,-6.899437507491107,-44.656979356304866,73.77016839316416
6.587630443823247,6.735975141333694,-0.6715788103811766,-6.161735823559465,-36.65212858116731,64.21638078760394
6.654990195236584,6.369453855522021,-0.7331961686167713,-5.519572015683426,-29.787613305845728,56.1850544310658
6.718684733791804,6.071577722463564,-0.7883918887736056,-4.957721471372768,-24.16310084189338,49.833589956686744
6.77940051101644,5.82994671404463,-0.8379691034873332,-4.459385571805901,-19.59656538997859,44.9191298939917
6.837699978156886,5.633981060144844,-0.8825629592053922,-4.010194272865983,-15.871695264440765,41.143625804017645
6.8940397887583345,5.475264107500436,-0.922664901934052,-3.598758014825807,-12.804705309215526,38.24759035825365
6.948792429833339,5.347217054408281,-0.9586524820823101,-3.2162821112432702,-10.254172609168672,36.024412155448125
7.002264600377422,5.244675328316594,-0.9908153031947429,-2.856037989688789,-8.115505084112517,34.313164407671955
7.054711353660588,5.163520277475469,-1.0193756830916307,-2.5129063456120693,-6.312869802320963,32.987857762272526
7.1063465564353425,5.10039157945226,-1.0445047465477515,-2.183027767989344,-4.792045182380773,31.948075965779143
7.157350472229865,5.0524711276284515,-1.066335024227645,-1.8635470083315528,-3.5147820897397617,31.111919623111874
7.207875183506149,5.017323306731054,-1.0849704943109606,-1.5524278121004342,-2.45447163261697,30.411066870079814
7.25804841657346,4.9927785904048845,-1.100494772431965,-1.248317143399636,-1.5927811188498862,29.78753557159544
7.307976202477509,4.976850779216385,-1.1129779438659613,-0.9504417876836817,-0.9169689731280866,29.191751056409558
7.357744710269673,4.9676810894851045,-1.1224823617427981,-0.658524277119586,-0.41767839950908703,28.581584169200703
7.407421521164523,4.963504305490013,-1.129067604513994,-0.37270843542757903,-0.08709473627518322,27.92207169787952
7.457056564219424,4.9626333581272615,-1.1327946888682698,-0.09348771844878384,0.08257956271962145,27.18555889946036
7.5066828978006965,4.9634591537544575,-1.1337295660527578,0.17836787054581976,0.10032973390263975,26.352021451124294
7.556317489338241,4.964462451093484,-1.1319458873472996,0.44188808505706273,-0.02281539925725866,25.409344810182475
7.605962113849176,4.964234297100911,-1.127527006496729,0.6959815331588874,-0.2733080353815924,24.353373636131586
7.6556044568201855,4.961501216747095,-1.1205671911651403,0.9395152695202034,-0.6349999258888597,23.187597860275048
7.705219468987656,4.955151217488207,-1.1111720384699382,1.1713912481229538,-1.0894348390004454,21.922412873137173
7.7547709811625385,4.9442568690982025,-1.0994581259887086,1.3906153768543255,-1.6164555246085466,20.573969664069075
7.804213549853521,4.928092313852117,-1.0855519722201654,1.5963550734950163,-2.1950308301773287,19.162702791428124
7.8534944729920415,4.906142005550344,-1.0695884214852152,1.7879821014092976,-2.8041873411750378,17.71167613018212
7.902555893047545,4.878100132138594,-1.0517086004711222,1.9650988627111188,-3.423927366419091,16.24490938174662
7.95133689436893,4.843860858474403,-1.032057611844011,2.127547956528585,-4.0360310835983455,14.785840587413004
7.999775502953675,4.80350054763842,-1.0107821322787252,2.275406362402715,-4.624670352265779,13.356046920537928
8.047810508430059,4.757253844115762,-0.988028068654698,2.4089668316080943,-5.176797584912304,11.97429829855158
8.095383046871216,4.7054858682666385,-0.9639384003386171,2.52870981459361,-5.68230749849354,10.655967619977353
8.142437905553882,4.648662793281703,-0.938651302192681,2.6352694907933834,-6.133996805250796,9.412777506898633
8.188924533486698,4.5873228252291955,-0.9122986072847472,2.7293972658623695,-6.527364077686768,8.252832263439497
8.23479776173899,4.522049184452328,-0.8850046346261236,2.8119255884967647,-6.860299046924877,7.180867105142583
8.280018253583513,4.453446193983079,-0.8568853787411559,2.8837342595481905,-7.13270932898264,6.198643037610654
8.324552715523344,4.382119100693252,-0.828048036145674,2.945720689924297,-7.346125788676924,5.305421660934657
8.368373906530277,4.3086578428064835,-0.798590829246431,2.9987749065336433,-7.50331822863346,4.49846573797751
8.411460484958342,4.233624660520149,-0.7686030801810946,3.0437595639134183,-7.607943072121788,3.7735251301125827
8.453796731563543,4.157545229798931,-0.7381654845419604,3.081494815214544,-7.664235679444611,3.125281141094547
8.495372183861532,4.080902873004485,-0.7073505363898149,3.1127476266254894,-7.6767526654272995,2.5477338955301065
8.536181212591577,4.004135346350211,-0.67622306012356,3.1382249655807906,-7.650164283330911,2.03452644463679
8.57622256605508,3.927633703516902,-0.6448408104677521,3.1585702300271583,-7.589093466445025,1.5792057749208792
8.615498903090248,3.851742768852452,-0.6132551081674805,3.174362287776367,-7.497996150429623,1.1754250880799646
8.654016330778774,3.776762807348156,-0.5815114852897169,3.1861165386571666,-7.381076660677013,0.8170940757135785
8.691783958852255,3.702952040741386,-0.5496503199031452,3.1942874794143026,-7.242231885733902,0.4984849103779969
8.728813479259669,3.630529721884047,-0.5177074451090021,3.1992723285180826,-7.085018376432968,0.21430174701328458
8.76511877647851,3.5596795381197173,-0.4857147218238213,3.2014153459882153,-6.9126371880023845,-0.04027897363947568
8.800715571859707,3.4905531662396934,-0.4537005683639391,3.2010125562518206,-6.727932062639609,-0.26959094214545953
8.835621103522103,3.423273845613297,-0.42169044280142093,3.198316646830366,-6.53339733141193,-0.4774775820333443
8.869853841978236,3.357939872299178,-0.38970727633311725,3.1935418710100323,-6.33119263718602,-0.6673042487052318
8.903433240701228,3.2946279459273176,-0.35777185762301694,3.18686882852298,-6.123162214466376,-0.8419793224046181
8.9363795201605,3.233396323782654,-0.3259031693377871,3.1784490352989336,-5.910856997008815,-1.0039812742470091
8.968713483398327,3.174287753812566,-0.29411867898479777,3.1684092225564635,-5.69555826142542,-1.1553894503477993
9.000456360936452,3.1173321711983117,-0.26243458675923315,3.1568553280529854,-5.478301863019759,-1.2979168691531253
9.031629682648434,3.0625491525681143,-0.2308660334787033,3.1438761593614544,-5.259902390290226,-1.4329437697582579
9.062255174174116,3.009950128665212,-0.19942727188508874,3.1295467216638717,-5.040976769373758,-1.56155099705168
9.092354675460768,2.9595403609714745,-0.16813180466845,3.113931211693355,-4.821967001260036,-1.6845525772390502
9.121950079070483,2.911320690958874,-0.13699249255151646,3.0970856859209643,-4.603161823909196,-1.8025270388517318
9.151063285980072,2.865289072719782,-0.10602163569230683,3.079060415532447,-4.384717168093589,-1.9158471828685313
9.17971617670727,2.821441901038846,-0.07523103153698235,3.0599019437037613,-4.166675328035389,-2.0247081127282973
9.20793059571766,2.779775147758492,-0.04463201209994474,3.0396548625764783,-3.9489828024947826,-2.129153410776609
9.235728347195245,2.740285319733544,-0.014235463474179956,3.018363328468712,-3.731506784349917,-2.2290994004144773
9.26313120039258,2.702970251890045,0.015948169810507166,2.9960723344645674,-3.514050291210675,-2.324357469679382
9.290160902911481,2.667829748977938,0.04590889315515284,2.972828759767774,-3.2963659395208786,-2.4146544575567437
9.31683920040126,2.6348660895827294,0.07563718075283057,2.9486822151922065,-3.0781683723473194,-2.4996511231040976
9.343187861297087,2.6040844058592563,0.10512400290475264,2.9236857039611657,-2.8591453583044677,-2.578958732494963
9.36922870535568,2.5754929522762118,0.1343608599443643,2.897896116636216,-2.638967586875736,-2.652153812459029
9.394983634878441,2.5491032764074544,0.16333982111072648,2.8713745785116256,-2.4172971943125034,-2.718791131647004
9.420474667642516,2.524930304464329,0.19205356689584274,2.8441866671951557,-2.193795064475113,-2.7784149849111826
9.44572397068716,2.502992353819578,0.2204954335677943,2.816402517346044,-1.9681269602813707,-2.830568869621444
9.470753894225355,2.4833110842167643,0.24865945874125475,2.7880968286498296,-1.7399685535083196,-2.8748036578501126
9.495587005067524,2.465911398681681,0.27654042702775306,2.759348792071328,-1.5090094330939392,-2.9106843832536295
9.52024611905434,2.450821304350742,0.3041339149484663,2.730241948238792,-1.274956184312472,-2.9377957763349856
9.544754332097847,2.438071742507617,0.33143633443085424,2.700863990475442,-1.037534642770776,-2.955746696036218
9.569135049522924,2.4276963960799094,0.3584449743356087,2.67130652351508,-0.7964914376907413,-2.964173618874843
9.593412013483723,2.419731481703002,0.3851580395707595,2.6416647873263317,-0.5515949480925129,-2.962743358774345
9.617609328300754,2.414215532222077,0.4115746874440228,2.612037353738588,-0.3026358030927406,-2.951155201144744
9.641751483622974,2.4111891741911498,0.4376950609814087,2.5825258017271406,-0.04942706351716826,-2.929142643569544
9.665863375364886,2.410694903555978,0.4635203189986801,2.5532343752914453,0.2081957735448508,-2.8964749427106775
