th1 (rad),w1 (rad/s),th2 (rad),w2 (rad/s)
3.786471657029074,0.6411736004720393,5.6787674077132975,-0.4277225402466849
3.792883393033794,0.7127032962863789,5.674490182310831,-0.3533285502311849
3.800010425996658,0.7838636715317363,5.670956896808519,-0.280365480737941
3.807849062711975,0.8547588656771966,5.66815324200114,-0.20895419811506583
3.816396651368747,0.9254907226337584,5.66606370001999,-0.1392192028388045
3.8256515585950845,0.9961583659448973,5.664671507991602,-0.07128930465717469
3.8356131422545334,1.0668578143456164,5.66395861494503,-0.0052982532756462725
3.8462817203979895,1.1376816385154198,5.663905632412273,0.058614674938411396
3.857658536783144,1.2087186607831704,5.664491779161658,0.12030413406195908
3.8697457233909756,1.280053700563944,5.665694820502277,0.17961820968345524
3.882546260396615,1.3517673694131616,5.667491002599111,0.2363979643832247
3.896063934090747,1.423935920765489,5.669854982242944,0.2904770283251788
3.910303293298402,1.4966311606796145,5.672759752526195,0.3416812358059217
3.925269604905198,1.5699204272294507,5.676176564884255,0.38982830860991624
3.9409688091774924,1.6438666475619694,5.680074847970354,0.4347275868234933
3.957407475653112,1.71852848307618,5.684422123838589,0.4761798073061082
3.9745927604838736,1.7939605746614238,5.68918392191165,0.5139769292372918
3.992532366230488,1.8702139014618968,5.694323691204023,0.5479020049776993
4.011234505245107,1.9473362682057853,5.6998027112538,0.5777290928206132
4.030707867927165,2.025372937752758,5.705580002182006,0.6032232059771367
4.050961597304693,2.1043674271795205,5.711612234241778,0.624140289238646
4.072005271576488,2.184362487454643,5.717853637134164,0.6402272110930491
4.093848896451035,2.265401288577547,5.724255909245095,0.6512217545325883
4.11650290933681,2.3475288340145557,5.73076812679042,0.6568525842745608
4.139978197676956,2.4307936304196924,5.737336652633166,0.6568391615184723
4.164286133981153,2.5152496410665823,5.743905044248351,0.6508915695859581
4.189438630391819,2.6009585542566334,5.75041395994421,0.6387102047477865
4.215448215934385,2.687992401355554,5.7568010619916885,0.6199852761713297
4.242328139947941,2.7764365632239487,5.763000914753402,0.5943960471939294
4.27009250558018,2.8663932088501984,5.768944875225341,0.5616097370742509
4.298756437668683,2.9579852161703135,5.774560972596084,0.5212799881268267
4.328336289830386,3.051360632536987,5.779773772477352,0.4730447880062062
4.358849896155755,3.1466977411289636,5.784504220357414,0.4165237214689603
4.390316873567045,3.244210809563135,5.788669457572103,0.3513144112979364
4.4227589816626764,3.344156607365817,5.792182601685083,0.27698799618393577
4.4562005477363344,3.44684178810718,5.794952481646922,0.19308348768573055
4.490668965617406,3.552631236523298,5.796883316523779,0.09910085498679012
4.526195277982639,3.661957474433079,5.797874325073647,-0.005507284414294725
4.56281485272697,3.7753311899755913,5.7978192522295044,-0.12134541938086536
4.6005681646267265,3.893352881637709,5.796605798035696,-0.24908625300935766
4.639501693443104,4.016725454533615,5.794114935505602,-0.3894828000987207
4.67966894798844,4.146267306141421,5.790220107504615,-0.5433806159911208
4.721131621049854,4.282924878158737,5.784786301344703,-0.711728416080178
4.7639608698314415,4.427782632293441,5.777669017183902,-0.8955837914027346
4.808238696154376,4.582066589821229,5.7687131792698745,-1.0961080156668213
4.854059362052588,4.74713437991249,5.7577520991132065,-1.3145392561820857
4.901530705851713,4.924439218405624,5.7446067065513855,-1.5521255085396815
4.95077509803577,5.115445903128994,5.729085451465989,-1.8099852034525776
5.00192955706706,5.321461705090023,5.710985599431463,-2.0888418457961366
5.0551441741179595,5.543321883394489,5.690097180973502,-2.388546473076679
5.110577392951904,5.780838957053178,5.666211716242735,-2.7072592119251313
5.168385782522436,6.031897990977955,5.639139124123484,-3.0401251961142104
5.228704762432216,6.29109867758674,5.608737872162342,-3.377310621579452
5.291615749208083,6.548015925358851,5.5749647659465476,-3.7015145626199932
5.357095908461671,6.7856615577078285,5.537949620320347,-3.985807620558189
5.4249525240387495,6.980681559220861,5.498091544114765,-4.194009970616723
5.494759339630958,7.107591745096361,5.456151444408598,-4.286914314318375
5.565835257081922,7.147898618932714,5.413282301265414,-4.235571331452453
5.637314243271249,7.099827442473484,5.37092658795089,-4.035519249794713
5.708312517695984,6.980413289581797,5.330571395452942,-3.710113049697088
5.7781166505918025,6.817148610400325,5.293470264955971,-3.298782327556958
5.846288136695806,6.6364456142323665,5.260482441680401,-2.840455899056013
5.91265259283813,6.457019773717453,5.2320778826898415,-2.3638036927864188
5.977222790575305,6.289250003810655,5.208439845761977,-1.8860001155462065
6.040115290613412,6.137364301559252,5.189579844606515,-1.4156350240502609
6.101488933629004,6.001866803084601,5.1754234943660125,-0.956091525732443
6.16150760165985,5.881283023289322,5.165862579108688,-0.5080287355831896
6.220320431892744,5.77320424233286,5.160782291752856,-0.07089892332237302
6.278052474316072,5.674850989147947,5.160073302519632,0.35621485988035817
6.3348009842075514,5.583355707132229,5.163635451118436,0.7741700030073411
6.390634541278874,5.495895810458709,5.171377151148509,1.1835644360019182
6.4455934993834605,5.4097528760232,5.1832127955085285,1.5846608643738025
6.499691028143692,5.322338908068056,5.199059404152266,1.9773779970993577
6.552914417224373,5.231210750897335,5.21883318412326,2.3613186538851596
6.605226524733346,5.134082816212168,5.242446370662112,2.735819096618294
6.656567352895467,5.028842348957526,5.269804561628295,3.1000113022044564
6.7068557763850425,4.9135681849259685,5.300804674650339,3.452893427571503
6.755991458234302,4.7865521224683505,5.335333608926055,3.7934052377184813
6.803856979458986,4.646321006394979,5.37326766130324,4.120505787621213
6.850320189522935,4.491657091471868,5.414472719179452,4.4332507362021465
6.895236760437654,4.321614066261184,5.4588052265414735,4.7308666485126
6.938452901100265,4.135526203712309,5.506113893026599,5.012819694903502
6.979808163137388,3.933008422495849,5.556242089975634,5.2788763826359295
7.0191382473623465,3.713945558366403,5.609030853801993,5.52915439798138
7.05627770294601,3.4784698168700885,5.664322397781807,5.764162293271889
7.091062401114711,3.226926155058392,5.721964020714526,5.984827584010124
7.123331662665295,2.9598261590936863,5.7818122965546275,6.192513752156437
7.152929924256232,2.677791786360377,5.843737434076192,6.3890275760182575
7.179707842119836,2.381491084628732,5.907627709836374,6.576618982423131
7.203522752966123,2.0715686967698885,5.973393899660605,6.757976054658094
7.2242384399338215,1.7485747128981806,6.040973660207186,6.936217664342006
7.241724187062803,1.4128965148215022,6.110335836850606,7.114885010281507
7.255853152211018,1.064700228600681,6.181484686953421,7.297930419716807
7.266500154497025,0.7038923148992472,6.254463991150589,7.489695766354014
7.273539077646017,0.3301196096281964,6.329360948814129,7.694861292785761
7.276840273742299,-0.05715879672171553,6.4063095617419865,7.918323901549007
7.276268685775082,-0.45846628155995933,6.485492800757477,8.164924068264103
7.271684022959483,-0.8738584368428042,6.5671420414401185,8.438869937814545
7.262945438591054,-1.3020352070711791,6.651530740818264,8.742591973530843
7.249925086520342,-1.7387164815353935,6.738956660553572,9.074607011143186
7.2325379217049885,-2.1739268982563034,6.829702730665003,9.425877187961849
7.210798652722426,-2.58812138164784,6.923961502544622,9.774511744445011
7.184917438905948,-2.948409090758076,7.0217066199890725,10.080444247922191
7.1554333479983665,-3.2092190715891613,7.122511062468295,10.285940303891254
7.123341157282475,-3.324508903556873,7.225370465507208,10.331626837961268
7.090096068246906,-3.272248566988039,7.32868673388682,10.189114383641718
7.057373582577026,-3.0726101961856336,7.430577877723238,9.88503844283438
7.0266474806151695,-2.7773734154378587,7.529428262151582,9.486356706813247
6.998873746460791,-2.4406303356700083,7.624291829219714,9.061233150853996
6.974467443104091,-2.099751066983013,7.714904160728254,8.654577268608952
6.953469932434261,-1.774042721058232,7.801449933414343,8.28735082545967
6.935729505223678,-1.4708860151978336,7.88432344166894,7.965345541443856
6.9210206450717,-1.1914869407600406,7.963976897083378,7.686968961744795
6.9091057756640994,-0.9343740076338094,8.040846586700827,7.4477972744724035
6.899762035587761,-0.6971662267597114,8.11532455944555,7.24276741145653
6.892790373320164,-0.4773708976540376,8.187752233560115,7.067091242469042
6.888016664343623,-0.2727032673734869,8.258423145984805,6.916565585853758
6.885289631669888,-0.08118723336721584,8.327588801843342,6.787621677693672
6.884477759336216,0.0988377650683836,8.395465018620278,6.677274186086904
6.885466136986899,0.2687460070640162,8.462237760481148,6.5830400581072785
6.888153597057539,0.4296653623558709,8.52806816106222,6.502856075626729
6.892450250681098,0.5825170865560446,8.593096721818489,6.435005601883204
6.898275421546659,0.728051558878339,8.65744677783732,6.378057152737508
6.905555937135442,0.8668789122045994,8.721227349364694,6.330814300339784
6.914224726257488,0.9994947041273682,8.784535492368093,6.2922753526073905
6.9242196732987615,1.1263011961394003,8.847458245894167,6.261601050714561
6.935482685260156,1.2476248869914248,8.910074256401312,6.238088656176424
6.94795893413007,1.363730887707936,8.972455142963076,6.221151028515208
6.96159624300715,1.4748346210528975,9.034666653248228,6.21029952922007
6.976344589217678,1.581111216914687,9.096769648540429,6.205129793232729
6.992155701386825,1.6827028728672497,9.158820946472757,6.205309576786826
7.008982730115498,1.7797243610940452,9.220874042240625,6.210568021692653
7.0267799737264385,1.8722667894229927,9.282979722457553,6.220685776194601
7.0455026416206685,1.9603996642602592,9.345186580219499,6.2354854871357475
7.065106638263271,2.0441712553125724,9.407541435090856,6.254822232860492
7.085548350816397,2.1236072251819937,9.47008965741946,6.278573506187632
7.106784423068216,2.1987074611224626,9.532875392481337,6.306628386903756
7.128771497679441,2.269441032648716,9.595941676350375,6.338875568995337
7.151465908005928,2.3357392001413344,9.659330432040328,6.375189935801091
7.174823300007342,2.397486421083211,9.723082331398338,6.415417414875197
7.198798164218173,2.4545093496924215,9.78723650554709,6.459357904827028
7.223343257715097,2.5065639130981903,9.851830084595361,6.506746163542555
7.248408896846079,2.553320686577509,9.916897546230787,6.557230699900786
7.273942103711854,2.5943489980410344,9.982469853229794,6.610350942212581
7.299885593692265,2.629100485038403,10.04857336265192,6.665513291345662
7.326176598542649,2.656893220160292,10.115228495565377,6.721967128526607
7.352745530744252,2.6768980172087535,10.182448166850643,6.778782451689189
7.379514510916339,2.688129114937215,10.250235991367534,6.834831552991903
7.4063958020657115,2.6894420567862545,10.318584306897453,6.888777977405821
7.433290222633574,2.6795421415962175,10.387472086671512,6.939076810566382
7.460085644049537,2.6570071438975127,10.456862854777176,6.983990944298747
7.486655715488512,2.6203278577258793,10.526702764220163,7.0216280817278385
7.512858994065771,2.5679691266732405,10.596919045037442,7.050002524267781
7.538538685332503,2.4984521298899596,10.66741907028012,7.0671238872185445
7.563523206631403,2.4104556816982177,10.738090309152305,7.071111612439368
7.587627763448385,2.3029303394201937,10.808801425276698,7.060329594296231
7.610657066842586,2.1752147811341804,10.879404721219661,7.033530000751099
7.632409214653928,2.027140226976534,10.949740021227171,6.98999058356194
7.652680616923694,1.8591069056847047,11.01963992706279,6.929626921931044
7.671271685980541,1.6721178407700699,11.088936196282102,6.853061544659
7.687992864388241,1.4677600148454455,11.157466811728693,6.761636452439273
7.702670464536696,1.2481306709400524,11.225083176253085,6.657363750437799
7.715151771246096,1.0157154513799918,11.291656813757463,6.542819163390386
7.7253089257598955,0.7732329832095726,11.357085005391367,6.420992614874396
7.733041255591991,0.523465333038973,11.42129493154011,6.295116393946247
7.738275908922381,0.2690943902909891,11.484246095479573,6.168493290309665
7.740966852825291,0.012560927372292974,11.54593102838267,6.0443444796827634
7.741092462099013,-0.2440428511851328,11.606374473179498,5.925691170279046
7.7386520335871625,-0.4990432259959587,11.665631384882289,5.815276986968421
7.733661601327203,-0.7512192955163033,11.723784154751973,5.715531569861486
7.72614940837204,-0.9998079077144735,11.780939470450589,5.62857108669592
7.716151329294895,-1.2444875781704963,11.837225181317548,5.556228737109604
7.70370645351319,-1.4853502338903557,11.892787468688644,5.500107685316098
7.688852951174287,-1.7228688825775582,11.947788545541805,5.461649683311095
7.671624262348511,-1.9578679777690604,12.002405042374916,5.44221435037903
7.652045582570821,-2.191501822980707,12.056827185878706,5.443166160053287
7.630130564341014,-2.42524515686071,12.11125884747924,5.465968317330315
7.605878112772407,-2.6608992448443813,12.165918530652544,5.512284701495926
7.579269120323963,-2.900616385250818,12.221041377667502,5.584092804939418
7.550262956471455,-3.1469455883290918,12.276882305716896,5.6838119946019505
7.518793500588164,-3.402901957069819,12.333720425662916,5.814452126046746
7.484764481017466,-3.6720611920192585,12.391864946923384,5.97978662279234
7.4480438690972735,-3.958676833272885,12.451662813151307,6.184549233419337
7.408457100764545,-4.26780710995747,12.5135083054855,6.434639066879596
7.36577902966497,-4.605410755360608,12.577854696154295,6.737280613582031
7.319724922111364,-4.97830417472204,12.645227502290115,7.100992716278429
7.269941880364144,-5.393714954010275,12.7162374294529,7.535001588475086
7.216004730824041,-5.8578124304135475,12.791587445337651,8.047238513135744
7.1574266065199055,-6.371865544582477,12.87205983046901,8.639039372191291
7.093707951074081,-6.923489105440597,12.958450224190923,9.292988233248561
7.024473060019675,-7.469960136436792,13.051380106523409,9.94964139446582
6.949773458655307,-7.917137077033761,13.150876520468067,10.477968124446544
6.870602087884969,-8.124274291013947,13.255656201712533,10.68172504009493
6.78935934497483,-7.989486603896852,13.362473452113482,10.418188392976166
6.709464478935861,-7.566786343823597,13.466655336043244,9.760610399900964
6.633796615497626,-7.024998080051505,13.564261440042253,8.940424103532322
6.5635466346971105,-6.498629865705201,13.653665681077577,8.140580337650393
6.498560336040058,-6.041639497513504,13.73507148445408,7.432718211812169
6.438143941064923,-5.661365057650015,13.809398666572202,6.8247525465655885
6.381530290488423,-5.349153828015365,13.877646192037858,6.303155915653006
6.328038752208269,-5.09350199955155,13.940677751194388,5.850882082190071
6.277103732212754,-4.884121327661969,13.999186572016288,5.452805848242257
6.228262518936134,-4.712735764025322,14.05371463049871,5.096722812112034
6.181135161295881,-4.572909724746942,14.10468185861983,4.77306683213141
6.135406064048412,-4.459671532858538,14.152412526941145,4.47438035379121
6.0908093487198265,-4.369154420376553,14.197156330479057,4.194833367129503
6.047117804516061,-4.298303651346581,14.239104664150352,3.9298523317234224
6.004134768002595,-4.24464757645093,14.278403187467585,3.6758533450491893
5.961688292238086,-4.206118980223371,14.315161720918077,3.430059223555815
5.919627102435852,-4.180913369307245,14.349462313153635,3.190380475165766
5.87781796874278,-4.167374094774664,14.381366117905293,2.9553434894916224
5.836144227795033,-4.163897787799119,14.410919552800209,2.724052164780898
5.794505249917042,-4.168856849083439,14.438160074448017,2.4961708520270016
5.752816681426207,-4.1805385307563405,14.463121782968287,2.271917047841988
5.711011296118643,-4.1971023948233315,14.485840953446706,2.0520521785353587
5.6690402721704105,-4.2165594325763625,14.50636147523206,1.8378587526289756
5.626874677844647,-4.236776588085564,14.52474006275835,1.6310928930704414
5.584506911963792,-4.255509540012211,14.541050991689053,1.4339035369608577
5.54195181656367,-4.27046421150356,14.555390027058662,1.248713881715487
5.499247174448635,-4.279383795729968,14.567877165875817,1.0780668780030471
5.456453336491335,-4.28015376341461,14.578657834655848,0.9244438832967491
5.413651798857189,-4.270913416486881,14.587902273488815,0.7900724578805178
5.37094266469232,-4.250160243145536,14.59580299806762,0.6767438695304253
5.328441062260865,-4.216833478764517,14.602570436762925,0.585661687971511
5.28627272747322,-4.1703660646848295,14.60842705364264,0.5173393888109237
5.244569066826371,-4.1106990050564525,14.613600447530748,0.4715578910525291
5.203462076775807,-4.038257759998104,14.618316026441274,0.44738516134173356
5.163079499175826,-3.9538954703208424,14.622789878054691,0.44325151876296703
5.123540544472617,-3.858811496813117,14.62722239324232,0.457067792148567
5.084952429504487,-3.7544555462060654,14.631793071163806,0.48636993555671376
5.047407874042426,-3.642427651301134,14.636656770519373,0.5284731491372945
5.010983597529415,-3.52438291814118,14.641941502010747,0.5806204060782109
4.975739768348003,-3.401947803661827,14.647747706071529,0.6401136867845315
4.941720290311385,-3.2766522472268154,14.654148842939374,0.7044202969666329
4.908953767839117,-3.1498796300693077,14.661193045909041,0.7712506803803421
4.877454971538424,-3.0228345281591644,14.668905552712845,0.8386076271756683
4.847226626256832,-2.8965266944706367,14.677291628984602,0.9048094355427535
4.8182613593121255,-2.7717687040042787,14.68633972334003,0.9684913035091972
4.790543672272083,-2.6491841959985933,14.696024636375121,1.028590053021659
4.764051830312097,-2.529223576579306,14.706310536905338,1.0843173672095554
4.738759594546304,-2.4121842935508613,14.717153710577433,1.135126257778004
4.714637751610795,-2.298233244714458,14.728504973155212,1.1806746883926222
4.69165541916365,-2.187429422499406,14.740311720039138,1.2207893538589456
4.669781124938656,-2.0797454434677984,14.752519613577727,1.2554317012963276
4.648983670503978,-1.9750871019656377,14.76507393059069,1.2846674740605972
4.629232799484321,-1.8733104905433264,14.777920605331296,1.3086404100350055
4.6104996945788885,-1.7742365355095755,14.791007009431647,1.3275502443372917
4.592757329223793,-1.6776630091146456,14.80428251187502,1.341634839449045
4.575980699132646,-1.58337421403631,14.817698860269509,1.351156067376858
4.560146956992283,-1.491148608125882,14.831210420943277,1.3563889686368904
4.545235470911025,-1.4007646646734369,14.844774310629646,1.3576136829581842
4.53122782426429,-1.312005260529037,14.858350447459227,1.3551096623200733
4.5181077716589995,-1.2246608630493736,14.871901544082428,1.349151719349225
4.505861163028506,-1.1385317557668444,14.88539306127592,1.3400075194976502
4.494475845470837,-1.0534295079594136,14.898793136470896,1.3279361845602935
4.4839415503912425,-0.9691778588386312,14.9120724983165,1.313187732218501
4.474249771802857,-0.8856131551618229,14.925204375638684,1.2960031282150373
4.465393640251238,-0.8025844528709016,14.938164406920833,1.2766147730295605
4.457367795722529,-0.7199533692730715,14.950930554651128,1.2552472832070851
4.450168262029798,-0.6375937522542859,14.9634830274832,1.2321184591381915
4.443792324507256,-0.5553912167420078,14.975804212074582,1.2074403567891228
4.438238412339836,-0.47324258567387073,14.987878615642472,1.1814204014638299
4.433505986483097,-0.39105526261025264,14.999692819657112,1.1542624979931528
4.429595433856995,-0.30874655539173207,15.011235444637043,1.1261681045745877
4.426507968303078,-0.22624296446684522,15.022497125682788,1.097337247521324
4.424245538658409,-0.14347944533251095,15.033470498158001,1.0679694620067812
4.422810744205084,-0.06039865162324114,15.04415019277807,1.0382646499907184
4.422206757688852,0.023049836509541927,15.054532839277977,1.0084238512683508
4.422437256053947,0.10691029519035969,15.064617077790661,0.9786499272929179
