th1 (rad),w1 (rad/s),th2 (rad),w2 (rad/s)
5.369786620414958,1.2816429443586634,2.08901346314941,-1.2734416026210087
5.382603049858544,1.3511393057587495,2.0762790471232,-1.2920290464152704
5.396114442916132,1.4181413667943787,2.0633587566590474,-1.3146719461460439
5.410295856584076,1.4825166189154206,2.050212037197587,-1.3416406672209138
5.42512102277323,1.544159624176284,2.036795630525378,-1.3731791196850458
5.440562619014993,1.6029980944420532,2.023063839328527,-1.4094967497370348
5.456592599959413,1.6589985025597147,2.008968871831157,-1.450761364120805
5.47318258498501,1.7121709137449026,1.9944612581899488,-1.4970932698179886
5.490304294122459,1.7625727456290943,1.9794903254917688,-1.5485611804408217
5.5079300215787494,1.81031121333689,1.9640047136873606,-1.6051802681170102
5.526033133712119,1.855544290311058,1.9479529110061906,-1.6669126281513134
5.544588576615229,1.898480111555237,1.9312837847246775,-1.733670281492473
5.563573377730782,1.939374855437069,1.9139470819097528,-1.8053206801565347
5.582967126285152,1.978529252716968,1.8958938751081875,-1.8816945199100257
5.6027524188123214,2.0162839755983244,1.8770769299090873,-1.9625955206119734
5.622915258568304,2.0530142446475717,1.8574509747029675,-2.0478117241484313
5.64344540101478,2.089124049174825,1.8369728574614832,-2.1371277953865153
5.664336641506528,2.1250404026338385,1.8156015795076181,-2.2303377996813407
5.685587045532867,2.1612080487493284,1.7932982015108048,-2.327257971174093
5.7071991260203605,2.1980850006477137,1.7700256217990638,-2.427739073179186
5.729179976026837,2.2361392419144215,1.7457482310672718,-2.531678074444412
5.751541368445982,2.275846854962045,1.7204314503228277,-2.639029009626775
5.774299836995602,2.3176917786658953,1.69404116022656,-2.7498130456394927
5.79747675478226,2.3621673434116874,1.666543029770165,-2.864127926469995
5.821098428216377,2.4097796952578174,1.6379017505054652,-2.9821571102238944
5.845196225168955,2.461053207380066,1.6080801794032262,-3.104179040486412
5.869806757242756,2.5165379896503577,1.5770383889983621,-3.230577110867624
5.89497213713926,2.5768196474563436,1.5447326178896859,-3.3618509915815293
5.920740333613823,2.642531508368762,1.5111141079738706,-3.498630097052773
5.947165648697511,2.7143696279029625,1.4761278070033428,-3.641690091030694
5.9743093449765405,2.7931109984529443,1.4397109060930358,-3.7919734549238955
6.00224045496107,2.879635507690179,1.4017911715437967,-3.9506152824631733
6.031036810037972,2.974952300759804,1.362285018719165,-4.118975587823889
6.06078633304557,3.0802312436422206,1.3210952628409263,-4.2986794655764236
6.091588645481992,3.196840055054455,1.278108468185162,-4.491666281302548
6.123557046032537,3.326387144805995,1.2331918053721365,-4.700248401260776
6.156820917480597,3.4707687974262695,1.1861893213595287,-4.927178153519558
6.1915286054548595,3.632216100576846,1.1369175398243332,-5.175717427585102
6.227850766460628,3.8133299440611674,1.0851603655484823,-5.449694824200277
6.2659840659012405,4.017077440566335,1.0306634173064795,-5.753514939700769
6.306154840306903,4.246692092685241,0.9731282679094718,-6.0920418820719835
6.348621761233756,4.505357261878885,0.912207849088752,-6.470192549577507
6.393675333852545,4.795430580755561,0.8475059235929769,-6.891906039945088
6.441629639660101,5.116749778741975,0.7785868631935261,-7.357852427840045
6.49279713744752,5.463250391576443,0.7050083389151256,-7.8608079052385005
6.547429641363284,5.816979809027879,0.6264002598627406,-8.3774073360837
6.605599439453563,6.139749189416694,0.5426261865019036,-8.856573489757649
6.66699693134773,6.367839493095246,0.4540604516043272,-9.21210455584994
6.730675326278682,6.425000757481676,0.36193940604582775,-9.340571456257285
6.794925333853499,6.26623124632692,0.2685336914832549,-9.181810515592804
6.857587646316768,5.92072705245888,0.17671558632732687,-8.77791747195229
6.916794916841357,5.47360227686862,0.08893641160780398,-8.247151363413916
6.9715309396100436,5.005489449670511,0.006464897973664813,-7.700244312406165
7.021585834106749,4.56152230499812,-0.07053754515039684,-7.198277026236581
7.06720105715673,4.157507127224726,-0.14252031541276267,-6.761938144743924
7.108776128428977,3.7943288753037274,-0.2101396968602019,-6.391690781174544
7.146719417182014,3.467283171594629,-0.27405660467194737,-6.080641029883661
7.181392248897961,3.1703654308539444,-0.33486301497078397,-5.820362439456426
7.2130959032065,2.897889684136077,-0.39306663936534825,-5.603038591433247
7.2420748000478605,2.644964087155533,-0.4490970252796807,-5.422050050162076
7.268524440919416,2.40753435390732,-0.5033175257813015,-5.27198458464886
7.292599784458489,2.182287658039728,-0.5560373716277901,-5.148468139512123
7.314422661038886,1.9665283753179765,-0.6075220530229113,-5.047965091656423
7.334087944792066,1.7580640143331174,-0.6580017039394755,-4.967597211287884
7.351668584935397,1.555111611299982,-0.7076776760523544,-4.904993326956174
7.367219701048397,1.356224758283861,-0.7567276093219162,-4.858168672233172
7.380781948631236,1.160238295137603,-0.805309296044248,-4.825429204146954
7.392384331582612,0.9662271317773605,-0.8535635880857175,-4.805295878386313
7.402046602900385,0.77347595551719,-0.9016165468695807,-4.7964446384419475
7.409781362455557,0.58145706437238,-0.9495809932540001,-4.797658864844267
7.41559593309928,0.3898140242385163,-0.9975575819024428,-4.807791940178647
7.419494073341665,0.1983492158794268,-1.0456355013042293,-4.825738332017475
7.42147756550046,0.007013620679099192,-1.093892884624404,-4.850412169288733
7.421547701707251,-0.18410258145537023,-1.1423970063172915,-4.8807326979454055
7.419706675892697,-0.3747798304469539,-1.1912043332967455,-4.915616260598344
7.415958877588228,-0.564680445946976,-1.240360495902729,-4.953974560832634
7.4103120731287575,-0.7533621202987992,-1.2899002415110554,-4.994718954374657
7.402778451925769,-0.9402941548696093,-1.339847431054802,-5.036770368061483
7.393375510377073,-1.124876616902085,-1.390215134735417,-5.079074204388747
7.382126744208052,-1.306462219443418,-1.4410058767793046,-5.120619277497096
7.369062122013617,-1.484380337204588,-1.4922120695542755,-5.160459492606293
7.354218318641571,-1.6579622065027178,-1.5438166644803384,-5.197736682670067
7.337638696576544,-1.8265660659731195,-1.5957940313070391,-5.23170281449806
7.319373035916813,-1.989600823875322,-1.6481110594520196,-5.261739725654583
7.29947702767806,-2.146546823334042,-1.7007284567085654,-5.287374687693578
7.27801155944472,-2.296972433055987,-1.7536022035855012,-5.3082904159741755
7.25504183511416,-2.4405455047551814,-1.806685107745243,-5.324328632714607
7.230636380066609,-2.5770391691416266,-1.8599283940723892,-5.335486878541409
7.204865988375192,-2.7063319288283854,-1.9132832628578034,-5.341908879069706
7.177802669086908,-2.8284024794438984,-1.9667023516485005,-5.343869323629842
7.14951864429247,-2.9433200857912194,-2.0201410448847987,-5.341754332832486
7.120085443434557,-3.051231611993571,-2.0735585882131238,-5.336039136169951
7.089573127314622,-3.152346431901756,-2.1269189795748233,-5.327264538538168
7.058049662995604,-3.2469204327925634,-2.180191624960205,-5.316013644159398
7.025580458667678,-3.335240196317698,-2.2333517614017993,-5.3028900688992415
6.9922280567045005,-3.417608232801358,-2.286380662090792,-5.28849855928782
6.958051974376487,-3.494329898619829,-2.33926564768367,-5.273428600218112
6.923108675390289,-3.5657023776004277,-2.391999933685851,-5.258241276032294
6.887451651614285,-3.6320058833279925,-2.444582346446174,-5.243459380869458
6.851131592781005,-3.6934970565356835,-2.4970169402548685,-5.229560568910003
6.814196622215649,-3.7504043970918852,-2.5493125459439687,-5.216973196473607
6.77669257824473,-3.802925482464096,-2.601482277908705,-5.206074429966765
6.738663323420089,-3.851225677902559,-2.6535430222083725,-5.197190165489394
6.700151066641063,-3.8954380294019857,-2.7055149238632663,-5.190596314656776
6.6611966863470435,-3.9356640397169285,-2.7574208870098342,-5.186521044459255
6.621840045949874,-3.9719750520752046,-2.809286097454427,-5.185147606176863
6.582120295429122,-4.004413999007206,-2.8611375735161957,-5.186617441333858
6.54207615543905,-4.032997309872998,-2.913003747929534,-5.191033305750889
6.5017461823403195,-4.057716806864169,-2.964914080987043,-5.19846220247048
6.461169014271678,-4.078541453533985,-3.016898703011748,-5.208937959011821
6.420383599736338,-4.0954188514227114,-3.068988082601866,-5.222463323690677
6.379429411222111,-4.108276409055155,-3.1212127158387726,-5.2390114901666625
6.3383466471315595,-4.11702213399956,-3.1736028307404394,-5.258526990077455
6.297176425791564,-4.121545023632097,-3.226188100641214,-5.280925922040473
6.255960975555243,-4.121715054764454,-3.2789973598616187,-5.306095513049299
6.214743825007599,-4.1173827974263375,-3.3320583149921115,-5.333893036988574
6.1735699970333355,-4.1083787048522185,-3.385397245361997,-5.364144146180803
6.132486209984814,-4.094512160936663,-3.439038686823805,-5.396640706924996
6.091541088375447,-4.075570398637762,-3.493005093893055,-5.431138269950553
6.050785384389069,-4.051317438119527,-3.5473164765925604,-5.467353352180955
6.010272210007874,-4.021493231285594,-3.60199001011437,-5.504960757073862
5.970057277695018,-3.9858132383428346,-3.6570396176851085,-5.5435912159779575
5.930199145311589,-3.943968699576104,-3.712475529844888,-5.5828296899764895
5.890759458315828,-3.895627897646022,-3.7683038267446527,-5.622214726401272
5.851803179339368,-3.8404387268890154,-3.8245259740086652,-5.661239310366283
5.813398792070478,-3.778032889153605,-3.881138367112328,-5.6993536808153795
5.775618463178942,-3.708032012187769,-3.938131903920482,-5.735970582131771
5.738538143057064,-3.63005592745656,-3.9954916097417996,-5.77047338429194
5.702237583782498,-3.5437332411995937,-4.053196343584719,-5.8022274147314485
5.6668002513705025,-3.448714179878594,-4.111218617732034,-5.830594693456936
5.632313109571717,-3.3446854883897488,-4.169524564666603,-5.854952044440557
5.598866254687819,-3.231386913796124,-4.228074085111009,-5.874712274377145
5.566552385549858,-3.1086285361955035,-4.28682120785478,-5.889347779582507
5.535466100187904,-2.976307940025863,-4.345714685650606,-5.898415592044864
5.505703020787645,-2.8344259917304435,-4.404698841571054,-5.9015825487410645
5.477358760870341,-2.6830998468871354,-4.463714667058465,-5.898649016323847
5.450527762401469,-2.5225717935008407,-4.522701157221704,-5.889569480307447
5.425302044466461,-2.353212678746513,-4.581596852024778,-5.874468359420343
5.401769917678996,-2.1755189737086162,-4.640341535618981,-5.853649656877641
5.3800147279419095,-1.9901029863448167,-4.698878032187758,-5.827599505716605
5.360113698078461,-1.797676289258869,-4.7571540272449235,-5.796981265215948
5.342136935185872,-1.5990270141656575,-4.815123839897083,-5.762623508929556
5.326146665044215,-1.3949921957227294,-4.872750074986379,-5.725501921849665
5.312196743086988,-1.1864267448953165,-4.930005094204875,-5.686716702747283
5.300332475638035,-0.9741708382395474,-4.986872261232349,-5.647467472983348
5.290590767255639,-0.7590174987001189,-5.043346935962182,-5.609027882322385
5.283000592268638,-0.541681925816417,-5.099437214785406,-5.5727220721018424
5.277583773010474,-0.3227737496368005,-5.155164435506425,-5.53990494033546
5.274356035514106,-0.10277289370667222,-5.2105634849097795,-5.511947813080991
5.2733283065770395,0.11799079594052611,-5.2656829630405895,-5.490230735872979
5.274508214536445,0.3393545088161357,-5.320585270399319,-5.476142231105097
5.277901759624606,0.5613368184566317,-5.37534669271037,-5.471087082400768
5.2835151278091725,0.7841505950142591,-5.430057563534378,-5.476502546922685
5.291356633759315,1.0082159437510694,-5.484822589003604,-5.493883382219441
5.301438793196826,1.2341748474801955,-5.539761422825799,-5.524816206090194
5.313780541671628,1.4629093469928327,-5.595009584886701,-5.571023964630283
5.328409635141556,1.695565185559225,-5.650719824533004,-5.634421612519688
5.345365286997148,1.9335828243348891,-5.707064040658201,-5.717184399545969
5.364701115240496,2.17873745992374,-5.764235884653661,-5.821830172347745
5.386488489839734,2.4331887903425264,-5.822454186377138,-5.95131633196485
5.41082037774316,2.699538986719208,-5.881967349696787,-6.109149433911489
5.437815767610352,2.980891901696962,-5.943058844035901,-6.299498490659886
5.467624686627321,3.280894251007331,-6.0060538289425,-6.527286685883461
5.500433629137395,3.6037124095857513,-6.071326695801335,-6.798199429351089
5.536470753233252,3.953840083382737,-6.139308690094846,-7.118466475966116
5.57600915406708,4.335509994176432,-6.210493354854507,-7.494106665285629
5.619364254008844,4.751241196549296,-6.285434421507364,-7.928987027765177
5.666876665974337,5.198634323471273,-6.3647242917850155,-8.420459038298885
5.71886300920905,5.664040510965283,-6.448928882168004,-8.950641114906384
5.775503414318703,6.112150541432742,-6.538435293317068,-9.47196736240039
5.836624919733031,6.475255240018785,-6.633154966941072,-9.892126877491481
5.901377472133219,6.659363198617812,-6.732076235715987,-10.08221198252607
5.967971104119397,6.592460351626688,-6.832898355541248,-9.94320377675452
6.033895707635664,6.291720058009427,-6.932330393308793,-9.49851212618225
6.0968129082157585,5.858060572199901,-7.027315514570615,-8.885717894602832
6.155393513937757,5.395604912439817,-7.116172693516644,-8.245337492160612
6.209349563062156,4.962827683462033,-7.19862606843825,-7.654567133655679
6.258977839896776,4.579423420238934,-7.275171739774806,-7.137753458921012
6.304772074099165,4.246148293708956,-7.346549274364016,-6.693981826085102
6.347233557036255,3.9571867971619707,-7.413489092624867,-6.313964153818255
6.386805425007874,3.7054713129280823,-7.476628734163049,-5.987156159937884
6.4238601381371545,3.484522635275761,-7.536500295762428,-5.704129599522019
6.458705364489912,3.2889075941539683,-7.593541591757648,-5.457094975007963
6.491594440431452,3.114216843159603,-7.648112541507728,-5.239803599896662
6.522736608863048,2.9569075093067423,-7.700510577506694,-5.0472894167696625
6.552305683956115,2.8141314473137586,-7.750983471674391,-4.875607005027745
6.580446998429253,2.6835858019043743,-7.799739541724668,-4.721610156245375
6.607282856448297,2.56339275130729,-7.846955643287123,-4.582776710289927
6.632916783961369,2.45200574065131,-7.892783410390022,-4.457073620854257
6.657436841367883,2.348137255064246,-7.937354146598564,-4.342853956512789
6.680918213918525,2.25070336875027,-7.980782686163693,-4.238778288629534
6.703425247606027,2.1587811589506725,-8.023170469049989,-4.143754366689714
6.725013059195534,2.0715759761829506,-8.064608012716885,-4.056890373884921
6.745728818957364,1.9883963296606608,-8.105176916455735,-3.9774581905870607
6.765612782253971,1.9086347472706138,-8.144951498361605,-3.904863962721262
6.784699129726677,1.8317534185845743,-8.184000137988818,-3.8386239250117304
6.803016663912523,1.7572737522772848,-8.222386377238935,-3.7783439239717427
6.820589401435296,1.684769198291923,-8.260169816478653,-3.723701474779389
6.837437093418215,1.6138608171257156,-8.297406831226446,-3.6744295122331394
6.853575701589472,1.544215136924869,-8.334151126348777,-3.6303012900122735
6.869017852958721,1.4755438362254623,-8.3704541392489,-3.5911161633430613
6.883773291320976,1.4076047415054354,-8.40636530088233,-3.556686262856055
6.89784933873603,1.3402035552459637,-8.44193216351089,-3.526824321719437
6.91125137428849,1.2731956597261653,-8.477200406728084,-3.5013331293112926
6.9239833308857515,1.2064873069643955,-8.512213738021197,-3.4799972176891254
6.936048203955395,1.1400355380999359,-8.547013710198089,-3.462577405394981
6.947448559336395,1.0738462988629116,-8.581639484252038,-3.4488087014345012
6.958187022325023,1.0079704357797015,-8.616127571266384,-3.438401810025051
6.96826672668282,0.9424975496069454,-8.650511589366635,-3.4310481069776078
6.97769170217889,0.8775480029178848,-8.684822070436411,-3.426427547149546
6.986467182208069,0.8132636673211452,-8.719086345907906,-3.424218594670678
6.994599818881281,0.749798193070441,-8.753328531854612,-3.4241090258990505
7.002097800811986,0.6873076492888391,-8.787569622113603,-3.4258063939953307
7.008970877304874,0.6259423074740238,-8.821827686053556,-3.4290470740256263
7.015230300379614,0.5658401485533663,-8.856118156793812,-3.433603092758912
7.0208887018651485,0.5071224132006246,-8.890454187721401,-3.43928631888465
7.025959925997155,0.44989124383430457,-8.924847050910248,-3.4459499675946996
7.030458838435498,0.39422923470321897,-8.959306550586195,-3.4534876904122442
7.0344011307825305,0.34020054537268346,-8.993841427490317,-3.461830735325923
7.037803136236257,0.28785315275378276,-9.028459734843576,-3.470943762546285
7.040681667763795,0.23722180937574117,-9.063169172469038,-3.4808199012902477
7.043053885857552,0.1883313216691373,-9.09797737148194,-3.4914755612143993
7.044937199074243,0.14119983894839025,-9.132892127094085,-3.502945400661267
7.046349197463727,0.09584193121327483,-9.167921581100698,-3.515277730993875
7.04730761677586,0.052271316891021,-9.203074358410637,-3.5285305222110317
7.0478303299447695,0.010503171381382403,-9.238359663632748,-3.5427680812790143
7.047935361658584,-0.029443999823755958,-9.273787344445537,-3.558058405378689
7.047640921660347,-0.0675469034377701,-9.309367928499324,-3.5744711666789004
7.046965452625969,-0.1037763742026552,-9.345112640166112,-3.5920762596121736
7.045927688883943,-0.13809661160629752,-9.381033402762235,-3.6109428311890497
7.04454672276788,-0.170464682002753,-9.417142831074125,-3.6311387149726704
7.042842075947852,-0.2008302328305312,-9.453454218223852,-3.652730195975444
7.040833773619546,-0.22913537062622838,-9.489981520183607,-3.6757820438859676
7.038542419913284,-0.2553146607399444,-9.526739340622466,-3.700357763540432
7.035989273305884,-0.2792952130014551,-9.563742918257871,-3.7265200230370805
7.03319632117587,-0.300996823408652,-9.601008118488242,-3.7543312305618683
7.030186352941784,-0.3203321468627864,-9.63855143079386,-3.783854240474095
7.026983031473156,-0.3372068799136524,-9.676389973198601,-3.815153177396111
7.023610962674019,-0.35151993538478954,-9.714541504972562,-3.8482943740352122
7.020095763320171,-0.3631635926790582,-9.753024448712914,-3.8833474244073
7.01646412739338,-0.37202360860849426,-9.791857922956988,-3.920386359244326
7.012743891307295,-0.3779792738507631,-9.83106178654943,-3.9594909548784973
7.0089640985687875,-0.3809033997082104,-9.870656696098216,-4.000748191029831
7.005155064571706,-0.38066221882819473,-9.910664178008513,-4.044253876891207
7.001348442383423,-0.37711518202243216,-9.951106716777426,-4.090114468900215
6.997577290563199,-0.3701146313843357,-9.992007861466428,-4.138449107781172
6.993876144249356,-0.35950532764115534,-10.03339235254424,-4.189391906976409
6.990281090972944,-0.345123807211319,-10.075286271614004,-4.243094529563958
6.986829852900831,-0.32679754193678134,-10.117717216909645,-4.299729096213885
6.983561877481463,-0.30434387218717857,-10.160714507871784,-4.359491472593596
6.980518438759591,-0.2775686824056459,-10.20430942259772,-4.422604990636696
6.977742751935535,-0.24626478786417422,-10.248535472504088,-4.489324663677744
6.9752801040568935,-0.210210003525251,-10.293428719140865,-4.559941959552276
6.973178004021641,-0.169164872267452,-10.339028138736387,-4.634790196443567
6.971486355298966,-0.12287004325641435,-10.385376040700823,-4.714250620191264
6.970257654866402,-0.07104331669403421,-10.432518546902736,-4.7987592032994355
6.969547221699462,-0.013376416302806518,-10.48050613893573,-4.888814165481891
6.969413457536434,0.05046837170790615,-10.52939428059055,-4.984984137398369
6.969918141253513,0.1208614243049389,-10.579244121964534,-5.087916746923915
6.971126755496562,0.19820838680925587,-10.630123289433772,-5.198347157248734
6.973108839364655,0.2829513159866919,-10.68210676100626,-5.317105656377728
6.975938352524522,0.3755669349267525,-10.735277817570037,-5.445122670050651
6.979694021873789,0.47655961987559614,-10.789729044270542,-5.583428352370051
6.984459618072545,0.5864451925848181,-10.845563327794244,-5.733141891877897
