th1 (rad),w1 (rad/s),th2 (rad),w2 (rad/s),a1 (rad/s^2),a2 (rad/s^2)
2.4824027828216635,1.520070599239817,1.6795556011042374,2.9813413760041785,-8.425632541197755,-2.2270247884935412
2.4976034888140615,1.4358142738278394,1.7093690148642793,2.959071128119243,-8.093845661468869,-2.5372277513802417
2.5119616315523396,1.3548758172131508,1.7389597261454717,2.9336988506054404,-7.766018058727561,-2.8208684867548164
2.525510389724471,1.2772156366258751,1.768296714651526,2.905490165737892,-7.443142231152217,-3.0796402966991647
2.5382825460907297,1.202784214314353,1.797351616308905,2.8746937627709004,-7.126180507711036,-3.315105774274183
2.550310388233873,1.1315224092372427,1.826098553936614,2.8415427050281585,-6.8160582250256985,-3.528691009883975
2.5616256123262455,1.0633618269869858,1.8545139809868956,2.806255794929319,-6.513658896661585,-3.7216827189707593
2.5722592305961154,0.9982252380203699,1.8825765389361888,2.7690389677396112,-6.219820858924713,-3.8952281452517084
2.582241482976319,0.9360270294311227,1.910266928613585,2.7300866862870943,-5.9353349427872955,-4.05033755743612
2.5916017532706306,0.8766736800032497,1.9375677954764559,2.689583310712733,-5.66094279337115,-4.187889126202062
2.600368490070663,0.8200642520695383,1.9644636285835833,2.6477044194507124,-5.397335534055803,-4.308635939692829
2.6085691325913585,0.7660908967289802,1.9909406727780903,2.604618060053784,-5.145152549356647,-4.413214888398674
2.6162300415586484,0.7146393712354138,2.016986853378628,2.5604859111697973,-4.904980236820442,-4.502157123550371
2.6233764352710023,0.6655895688672093,2.042591712490326,2.5154643399342937,-4.677350650829622,-4.575899767634998
2.6300323309596743,0.6188160623589131,2.067746355889669,2.4697053422579436,-4.462740027865875,-4.634798532833583
2.636220491583263,0.5741886620802543,2.0924434093122484,2.423357356929608,-4.261567240960821,-4.679140885255171
2.6419623782040658,0.5315729896706461,2.1166769828815446,2.3765659480770562,-4.074192278424697,-4.709159382380699
2.6472781081007724,0.49083106688639916,2.140442642362315,2.3294743542532492,-3.900914876502167,-4.725044810745764
2.6521864187696362,0.4518219181213775,2.1637373859048474,2.2822239061457914,-3.741973455905938,-4.726958762851413
2.65670463795085,0.4144021835623181,2.1865596249663053,2.234954318517277,-3.5975445174979748,-4.715045318155141
2.660848659786473,0.37842673838733837,2.208909168151478,2.187803865335726,-3.4677426428692764,-4.689441533318182
2.6646329271703464,0.3437493119586456,2.2307872068048353,2.1409094500025443,-3.3526212222956637,-4.650286501045477
2.668070420289933,0.31022309973568896,2.2521963013048607,2.0944065849920896,-3.2521739975175255,-4.597728803005076
2.6711726512872898,0.2777013597605137,2.2731403671547814,2.048429296962039,-3.166337462789611,-4.531932257499098
2.673949664884895,0.24603798513261757,2.2936246601244017,2.003109974387048,-3.094994118020315,-4.453079942974079
2.676410044736221,0.21508804395241443,2.313655759868272,1.9585791749573074,-3.0379765161860055,-4.361376559814589
2.6785609251757454,0.18470827879055438,2.3332415516178453,1.9149654093591615,-2.995071997125989,-4.257049270817349
2.680408007963651,0.15475755881929448,2.352391205711437,1.872394916650988,-2.966027954484696,-4.140347231323091
2.681955583551844,0.12509727927444753,2.371115154877947,1.830991444337757,-2.9505574445154816,-4.011540079967736
2.6832065563445884,0.09559170482929272,2.3894250693213244,1.7908760435380797,-2.948344916417327,-3.8709157081914336
2.6841624733928815,0.06610825566511945,2.407333829756705,1.7521668864561655,-2.959051824662961,-3.7187776599435156
2.684823555949533,0.036517737418489835,2.424855498621267,1.7149791098567304,-2.982321874347235,-3.555442532493286
2.685188733323718,0.006694518675017486,2.4420052897198343,1.6794246845317975,-3.017785650156493,-3.3812377559135327
2.685255678510468,-0.023483337826547445,2.4587995365651523,1.6456123069726623,-3.0650643868307292,-3.1965001243490967
2.6850208451322026,-0.05413398169485474,2.475255659634879,1.6136473057291714,-3.1237726524023413,-3.001575438667193
2.684479505315254,-0.08537170821887816,2.491392132692171,1.5836315513424994,-3.1935197335247967,-2.796819599516256
2.683625788233065,-0.11730690555412612,2.5072284482055958,1.555663355347337,-3.273909533647005,-2.5826014637775914
2.682452719177524,-0.15004600089059617,2.522785081759069,1.529837340709561,-3.364538819025464,-2.359307746665265
2.6809522591686177,-0.1836913890808508,2.5380834551661646,1.5062442632429083,-3.464993674785803,-2.1273502159927538
2.6791153452778094,-0.21834132582870885,2.553145897798594,1.4849707610829808,-3.5748440646298976,-1.8871753826866549
2.676931932019522,-0.2540897664750078,2.5679956054094237,1.4660990072561142,-3.6936364256307153,-1.6392768392404422
2.674391034354772,-0.29102613073131495,2.5826565954819847,1.4497062388637099,-3.8208842773332696,-1.3842103305691555
2.671480773047459,-0.32923497350464764,2.5971536578706216,1.4358641355580184,-3.956056886691756,-1.1226115531423357
2.6681884233124125,-0.3687955423715652,2.611512299226202,1.4246380200265951,-4.098566112793223,-0.8552165604429932
2.664500467888697,-0.4097812034994974,2.625758679426468,1.4160858544221653,-4.24775166402586,-0.5828844969438134
2.660402655853702,-0.45225872013975604,2.6399195379706892,1.4102570094527271,-4.402865141490609,-0.30662218013227055
2.6558800686523045,-0.4962873715546621,2.6540221080652167,1.4071907876514045,-4.563053421120992,-0.027609793320273954
2.650917194936758,-0.5419179057658721,2.6680940159417306,1.4069146897182017,-4.727342145708664,0.2527733627288746
2.6454980158790993,-0.5891913272229587,2.6821631628389127,1.4094424233454903,-4.894620354766593,0.5329244812292316
2.63960610260687,-0.6381375307706246,2.6962575870723677,1.4147716681577827,-5.063627565634529,0.8109960579697094
2.6332247272991633,-0.68877380642697,2.7104053037539457,1.4228816287374797,-5.232944914022615,1.084880158521115
2.626336989234894,-0.7411032555671961,2.7246341200413204,1.4337304303226908,-5.400992233836342,1.3522008021504202
2.618925956679222,-0.7951131779055596,2.7389714243445473,1.447252438344195,-5.56603315710595,1.6103174193310226
2.6109748249001665,-0.8507735094766191,2.7534439487279894,1.4633556125375051,-5.726190382609954,1.856342451998669
2.6024670898054003,-0.9080354133027186,2.7680775048533643,1.4819190370574917,-5.879473122406115,2.0871759863394996
2.593386735672373,-0.9668301445267798,2.7828966952239393,1.5027907969208867,-6.023818312466906,2.2995597277454976
2.583718434227105,-1.027068327651449,2.7979246031931484,1.5257863941983416,-6.157146402983176,2.490151554640987
2.5734477509505904,-1.0886397916812807,2.8131824671351318,1.5506879097447515,-6.277431395259431,2.6556202770956667
2.5625613530337774,-1.151414105633875,2.8286893462325793,1.5772441125157082,-6.382783293114879,2.7927581139382776
2.5510472119774388,-1.2152419385650237,2.8444617873577362,1.605171693655091,-6.471539395140162,2.8986059379307703
2.5388947925917886,-1.2799573325164253,2.8605135042942873,1.6341577530343987,-6.542359069391132,2.970583801348601
2.526095219266624,-1.3453809232103366,2.8768550818246315,1.6638635910478847,-6.59431510595628,3.00661704009459
2.512641410034521,-1.4113240742698994,2.8934937177351103,1.6939297614488307,-6.626973762891794,3.0052468252190225
2.4985281692918218,-1.4775938118988172,2.9104330153495988,1.723982229701021,-6.640455515887565,2.9657138235112583
2.4837522311728337,-1.5439983670576929,2.927672837646609,1.7536393679361335,-6.635469499086844,2.888004940109806
2.468312247502257,-1.6103530620485613,2.94520923132597,1.7825194173372316,-6.6133167116780704,2.772855991258041
2.4522087168817714,-1.676486229165342,2.9630344254993424,1.8102479772498121,-6.575860064393413,2.6217073228819094
2.435443854590118,-1.742244829809276,2.9811369052718404,1.8364650504786313,-6.5254628377159065,2.4366142743675767
2.4180214062920253,-1.8074994581864352,2.999501555776627,1.8608311932223072,-6.464900562323774,2.2201192081047703
2.399946411710161,-1.872148463809673,3.01810986770885,1.8830323853033548,-6.3972541349579615,1.975095774888713
2.3812249270720645,-1.9361210051592526,3.0369401915618837,1.9027833430522418,-6.3257936894899185,1.7045785159596423
2.361863717020472,-1.9993789420541517,3.055968024992406,1.9198291282118383,-6.2538631186938485,1.4115914811530053
2.3418699275999306,-2.0619175732410904,3.075166316274524,1.9339450430233682,-6.18477422229845,1.0989883138653056
2.32125075186752,-2.123765315464075,3.0945057667047577,1.9449349261620212,-6.121717516963096,0.7693135990392765
2.300013098712879,-2.184982490633706,3.113955115966378,1.952628062152414,-6.067694211391923,0.424691785766065
2.278163273806542,-2.245659432747625,3.1334813965879023,1.9568749800100746,-6.025471189975464,0.0667463315173979
2.255706679479066,-2.30591414464738,3.153050146388003,1.9575424433252486,-5.997558460576662,-0.30345156919400584
2.2326475380325923,-2.3658897292531464,3.1726255708212556,1.9545079276333086,-5.986206673882122,-0.685407834840138
2.2089886407400607,-2.4257517959919674,3.1921706500975886,1.9476538492849071,-5.993421128282865,-1.0792086894491106
2.184731122780141,-2.485686007274796,3.2116471885904376,1.936861762390416,-6.020988116713221,-1.4855076557364062
2.159874262707393,-2.5458958884419283,3.2310158062143417,1.922006685833052,-6.0705094387318965,-1.9055017407421113
2.1344153038229736,-2.606600982829247,3.2502358730726724,1.902951668425631,-6.143441235218971,-2.3409015879576462
2.108349293994681,-2.6680353951814366,3.269265389756929,1.8795426525460543,-6.241133841792929,-2.7938994141072304
2.0816689400428667,-2.730446733599366,3.2880608162823894,1.851603658404982,-6.364869959376667,-3.2671374370016713
2.0543644727068733,-2.7940954331931325,3.3065768528664394,1.8189322840349653,-6.515898999875135,-3.763678364613165
2.026423518374942,-2.8592544231918837,3.324766175706789,1.7812955003888338,-6.69546591204172,-4.2869784327603755
1.9978309741430231,-2.926209082312301,3.342579130710677,1.73842571606123,-6.904833089680078,-4.8408624812463525
1.9685688833199002,-2.9952574132091017,3.3599633878712893,1.6900170912487664,-7.145294098047293,-5.42949964308515
1.9386163091878093,-3.0667103541895746,3.376863558783777,1.635722094817915,-7.418177928007456,-6.05737736391328
1.9079492056459135,-3.140892133469649,3.3932207797319562,1.5751483211787822,-7.7248423151287495,-6.7292706341788415
1.876540284311217,-3.2181405566209365,3.408972262943744,1.507855614836994,-8.066654363880051,-7.45020247106268
1.8443588787450078,-3.298807100259737,3.424050819092114,1.4333535901263672,-8.444956323660644,-8.225390806069724
1.8113708077424104,-3.3832566634963435,3.4383843549933775,1.35109968206567,-8.86101391126773,-9.060176013092438
1.777538241107447,-3.471866802609021,3.4518953518140343,1.2604979219347456,-9.31594411579524,-9.959922376131871
1.7428195730813567,-3.5650262437669733,3.4645003310333817,1.1608986981734268,-9.81061903124188,-10.929885915045814
1.707169310643687,-3.663132434079392,3.476109318015116,1.0515998390229686,-10.345542045344299,-11.975040290766987
1.670537986302893,-3.766587854532835,3.486625316405346,0.9318494361152987,-10.920692818411366,-13.09985220584329
1.6328721077575648,-3.8757947827169485,3.495943810766499,0.8008509140568658,-11.535338112248914,-14.307998106269894
1.5941141599303952,-3.9911481638394375,3.5039523199070675,0.6577709329941669,-12.18780693027231,-15.602015491018912
1.5542026782920009,-4.11302623314216,3.510530029237009,0.5017507780839777,-12.87523090586592,-16.982885269883447
1.5130724159605793,-4.241778542200819,3.5155475370178486,0.33192192538514326,-13.593254745030679,-18.44954697974615
1.470654630538571,-4.377711089651126,3.5188667562717,0.14742645558768178,-14.335727066011824,-19.998356873551444
1.4268775196420598,-4.5210683603112445,3.5203410208275767,-0.05255711314783268,-15.094389308774103,-21.622510380159845
1.3816668360389472,-4.672012253398986,3.5198154496960985,-0.26878221694943116,-15.85858933182503,-23.311465245158324
1.3349467135049573,-4.830598146717236,3.5171276275266043,-0.5018968694010144,-16.61505619007532,-25.05041912187848
1.2866407320377848,-4.996748708617989,3.5121086588325943,-0.7524010606197993,-17.347782002382758,-26.819913697322878
1.236673244951605,-5.170226528641817,3.5045846482263965,-1.0206001975930281,-18.038063531932657,-28.595653383158496
1.1849709796651868,-5.350607163961143,3.4943786462504662,-1.3065567314246131,-18.66475708596624,-30.348635433201487
1.1314649080255754,-5.537254734820806,3.48131307893622,-1.6100430857566281,-19.204792165967465,-32.04568421279975
1.0760923606773674,-5.72930265648048,3.4652126480786536,-1.9304999278846258,-19.633968990605005,-33.65045941748475
1.0187993341125625,-5.92564234638653,3.4459076487998073,-2.267004522059473,-19.928031336858496,-35.124962458913856
0.9595429106486972,-6.124922659755115,3.4232376035792127,-2.618254146648612,-20.063961062305314,-36.431497559494204
0.8982936840511461,-6.325562270378168,3.3970550621127265,-2.9825691222435537,-20.021390399849277,-37.53496146268782
0.8350380613473644,-6.525776174376661,3.367229370890291,-3.357918736870432,-19.78398301931036,-38.405252498742286
0.7697802996035977,-6.723616004569765,3.333650183521587,-3.741971261857855,-19.340607555414348,-39.01952582246308
0.7025441395579001,-6.917022080123909,3.296230470903008,-4.132166520082485,-18.68612905329719,-39.36399714305973
0.6333739187566609,-7.103883370656881,3.254908805702183,-4.525806491513083,-17.821680039567724,-39.435025900806295
0.5623350850500921,-7.282100171052559,3.2096507407870525,-4.920156750521146,-16.75434004923153,-39.23929159004412
0.48951408333956653,-7.449643571544874,3.160449173281841,-5.312549666421587,-15.49623735219572,-38.792999514610365
0.4150176476241178,-7.604605945066831,3.107323676617625,-5.700479661567691,-14.063170255128485,-38.12018830437424
0.33897158817344947,-7.745237647618116,3.050318880001948,-6.081681544611433,-12.472908802093277,-37.25033065352764
0.26151921169726833,-7.869966735639049,2.989502064555834,-6.454184851146709,-10.743368568754512,-36.21549652671461
0.18281954434087783,-7.977400421326594,2.924960216044367,-6.816339816413855,-8.890844419168156,-35.04737348483734
0.10304554012761188,-8.066308865518275,2.856796817880228,-7.166813551262228,-6.928461450513964,-33.77441627753051
0.022382451472429135,-8.135593480023415,2.785128682367606,-7.504557714037533,-4.864957006551035,-32.419343916062054
-0.05897348332780501,-8.184243050088925,2.7100831052272305,-7.828751153198154,-2.7038666867221175,-30.997138737995904
-0.14081591382869427,-8.211281716956147,2.631795593695249,-8.138722540578113,-0.44316019821418895,-29.5136482876637
-0.22292873099825575,-8.21571331893829,2.550408368289468,-8.433859023454751,1.9246350616531605,-27.96486012581484
-0.30508586418763867,-8.196466968321758,2.46606977805492,-8.7135076247129,4.411775284979475,-26.33691591681935
-0.38705053387085625,-8.152349215471963,2.378934701807791,-8.976876783881094,7.034039971302847,-24.606949190000428
-0.46857402602557585,-8.082008815758934,2.28916593396898,-9.222946275781098,9.808788631917816,-22.744857538763533
-0.5493941141831652,-7.983920929439756,2.196936471211169,-9.450394851168733,12.752260109560469,-20.71613368953338
-0.6292333234775628,-7.856398328344151,2.1024325226994818,-9.657556188064067,15.876090599700335,-18.485853591935793
-0.7077973067610043,-7.697637422347148,2.005856960818841,-9.842414723983424,19.18314103022426,-16.02382334971199
-0.7847736809844758,-7.505806012044905,1.9074328135790068,-10.002652957480544,22.662915612187625,-13.310695420475035
-0.8598317411049248,-7.279176855923029,1.8074062840042013,-10.135759911685295,26.28711260286949,-10.344572576476248
-0.9326235096641551,-7.016305729894334,1.7060486848873484,-10.239205637450057,30.00613071615338,-7.147259315876078
-1.0027865669630984,-6.7162444227328,1.6036566285128477,-10.310678230608818,33.74756865029794,-3.7689847572955784
-1.0699490111904264,-6.378768736229821,1.5005498462067595,-10.348368078181775,37.417771270188986,-0.2902542602899555
-1.1337366985527246,-6.004591023527931,1.3970661654249417,-10.351270620784675,40.90716705900421,3.1803457027426822
-1.193782608788004,-5.595519352937889,1.293553459217095,-10.319467163757247,44.09945577012713,6.51295644113126
-1.2497378023173829,-5.154524795236618,1.1903587875795225,-10.254337599345934,46.88374275183445,9.567432591017141
-1.301283050269749,-4.685687367718273,1.0878154115860632,-10.158663273435764,49.167754199530876,12.206918071003818
-1.3481399239469318,-4.194009825722965,0.9862287788517056,-10.036594092725725,50.889683130617634,14.311534963106944
-1.3900800222041614,-3.6851129944167886,0.8858628379244483,-9.893478743094656,52.02631449506516,15.789459417489825
-1.4269311521483292,-3.164849849466137,0.7869280504935018,-9.735584148919758,52.59591154939266,16.583212009220222
-1.4585796506429907,-2.63889073397221,0.6895722090043042,-9.569752028827555,52.655648638834194,16.67016671498142
-1.4849685579827128,-2.1123342475838682,0.5938746887160287,-9.40305036167774,52.29467963118651,16.05764188311072
-1.5060919004585513,-1.5893874512720032,0.49984418509925127,-9.242473942846633,51.62479763766963,14.773996203611352
-1.5219857749712713,-1.073139474895307,0.4074194456707849,-9.094733980810519,50.77086108826373,12.857615098195268
-1.5327171697202244,-0.5654308640126696,0.3164721058626797,-8.966157829828566,49.86280604235618,10.345521441471929
-1.538371478360351,-0.06680280358910778,0.22681052756439404,-8.862702615413847,49.030389731523236,7.262784133699005
-1.539039506396242,0.4235010937261246,0.1381835014102556,-8.790074774076857,48.40109175697056,3.613217660214804
-1.5348044954589808,0.9075120112958301,0.05028275366948702,-8.753942597474708,48.101004105498376,-0.6286729985896494
-1.5257293753460224,1.388522052350814,-0.03725667230526006,-8.760229327460605,48.25806000548596,-5.524725596375766
-1.5118441548225143,1.8711026524056735,-0.12485896557986612,-8.815476583424363,49.006351158163504,-11.178881109457622
-1.4931331282984577,2.3611661639873085,-0.21301373141410973,-8.92726539451894,50.488968122067156,-17.739626875923538
-1.4695214666585845,2.8660558452079803,-0.30228638535929914,-9.104661663278176,52.853389668700686,-25.39222762818779
-1.4408609082065047,3.394589741894987,-0.3933330019920809,-9.358583939560054,56.22468690489881,-34.3215408498994
-1.4069150107875548,3.9568366109439754,-0.48691884138768143,-9.701799348059048,60.62019582849744,-44.59599673713991
-1.367346644678115,4.56303856922895,-0.5839368348682719,-10.147759315430447,65.71989365906433,-55.8540207088442
-1.3217162589858256,5.220237505819593,-0.6854144280225763,-10.706299522518888,70.31457483657387,-66.54374387994059
-1.2695138839276296,5.923383254185332,-0.7924774232477653,-11.371736961318295,71.1953164918481,-72.37840842146257
-1.2102800513857763,6.635336419103813,-0.9061947928609482,-12.09552104553292,61.821011745288246,-64.45334109071757
-1.1439266871947382,7.253546536556695,-1.0271500033162773,-12.740054456440095,34.04825333515828,-31.55937179699
-1.0713912218291712,7.594029069908278,-1.1545505478806781,-13.055648174409995,-10.584830505432661,24.301675316120722
-0.9954509311300884,7.488180764853952,-1.2851070296247782,-12.812631421248788,-50.67022612901494,73.97787385843489
-0.920569123481549,6.981478503563802,-1.4132333438372662,-12.07285268266444,-67.15392880391691,91.89960202773331
-0.850754338445911,6.309939215524633,-1.5339618706639107,-11.153856662387106,-64.99074834523688,85.33182517896768
-0.7876549462906647,5.660031732072264,-1.6455004372877817,-10.30053841059743,-56.36084165032048,70.86965618826027
-0.731054628969942,5.0964233155690595,-1.748505821393756,-9.591841848714827,-47.49360241581296,56.702798856131714
-0.6800903958142515,4.62148729141093,-1.8444242398809043,-9.02481386015351,-40.121890990248524,44.91609446809783
-0.6338755229001422,4.220268381508445,-1.9346723784824393,-8.575652915472531,-34.36770522256675,35.49067192664006
-0.5916728390850577,3.876591329282778,-2.0204289076371644,-8.22074619620613,-29.962012281411702,27.944080329996176
