th1 (rad),w1 (rad/s),th2 (rad),w2 (rad/s),a1 (rad/s^2),a2 (rad/s^2)
5.696894328054276,1.2275606478305578,6.238928159690611,-1.2027843534530203,9.386887884492168,-8.385185827403271
5.709169934532581,1.3214295266754794,6.226900316156081,-1.286636211727053,9.425503345123099,-8.50313783083569
5.722384229799336,1.4156845601267105,6.214033954038811,-1.3716675900354098,9.44497051528611,-8.595246979633119
5.736541075400603,1.5101342652795715,6.200317278138457,-1.457620059831741,9.437394215824481,-8.649477016491762
5.7516424180533985,1.6045082074378163,6.18574107754014,-1.5441148299966587,9.393082048749275,-8.651219954905834
5.767687500127777,1.698439027925309,6.170299929240173,-1.630627029545717,9.300413495345916,-8.583119202989181
5.78467189040703,1.7914431628787681,6.1539936589447155,-1.7164582215756088,9.145862162418295,-8.425110812531747
5.802586322035818,1.882901784502951,6.13682907672896,-1.8007093297009262,8.914274667939123,-8.154829545266075
5.821415339880848,1.9720445311823422,6.118821983431951,-1.882257625153587,8.589531934659432,-7.748558066462356
5.841135785192671,2.0579398505289364,6.099999407180415,-1.9597432058182105,8.155720239575176,-7.182900006205751
5.861715183697961,2.139497052924688,6.080401975122233,-2.031572205880268,7.598897535893581,-6.437298778723328
5.883110154227208,2.215486028283624,6.06008625306343,-2.0959451936675015,6.909430057069425,-5.497368166244391
5.905265014510045,2.2845803288543185,6.039126801126755,-2.1509188753299453,6.084681567663167,-4.358728567984403
5.928110817798588,2.3454271445309502,6.0176176123734555,-2.194506161009789,5.131585283738072,-3.030685867429656
5.951565089243898,2.396742997368331,5.9956725507633575,-2.2248130196840856,4.0683981734563,-1.5387631070354912
5.975532519217581,2.437426979102894,5.973424420566516,-2.2402006507544407,2.9248673347567857,0.07500641300380739
5.99990678900861,2.466675652450462,5.951022414058972,-2.2394505866244026,1.7402661056798467,1.7547976851179483
6.024573545533114,2.4840783135072604,5.928627908192728,-2.221902609773223,0.5593132226565567,3.43671595191961
6.0494143286681865,2.489671445733826,5.906408882094995,-2.187535450254027,-0.5732951240547772,5.056503203199178
6.074311043125525,2.483938494493278,5.884533527592455,-2.136970418222035,-1.6184621027780306,6.557433300110082
6.099150428070458,2.467753873465498,5.863163823410235,-2.0713960852209343,-2.547020485823317,7.896484068125301
6.123827966805113,2.4422836686072644,5.842449862558026,-1.9924312445396812,-3.341914212269149,9.047506091962601
6.148250803491186,2.4088645264845727,5.822525550112629,-1.9019561836200551,-3.9980743938807124,10.00115305154346
6.1723394487560315,2.368883782545766,5.803505988276428,-1.8019446531046206,-4.520501482897818,10.762279715470184
6.196028286581489,2.3236787677167876,5.785486541745382,-1.6943218559499187,-4.92139939282845,11.345987664594048
6.219265074258657,2.274464773788503,5.768543323185883,-1.5808619793039782,-5.217176715221094,11.773461125459978
6.242009721996542,2.222293006636292,5.752734703392843,-1.4631273680493784,-5.425874448587948,12.068380480853083
6.264232652062905,2.1680342621504125,5.738103429712349,-1.3424435632408476,-5.5652746015316215,12.254275157331055
6.285912994684409,2.1123815161350965,5.72467899407994,-1.219900811667537,-5.651706155457268,12.352844325166965
6.30703680984576,2.055864454580524,5.712479985963265,-1.0963723684158673,-5.699431188130711,12.383085671919531
6.327595454391566,1.9988701426992168,5.701516262279106,-0.9725415116966719,-5.720448743307589,12.361007949530004
6.347584155818558,1.9416656552661409,5.691790847162139,-0.8489314322013719,-5.72456321370319,12.299714680324284
6.36700081237122,1.884420023129109,5.683301532840125,-0.7259342853981291,-5.719596938186455,12.209691585605299
6.385845012602511,1.8272240537472446,5.676042189986144,-0.6038373695420761,-5.7116637124180105,12.099181440376482
6.404117253139983,1.7701074166230646,5.670003816290723,-0.4828455551383113,-5.705451459833867,11.974573804687607
6.421818327306213,1.7130529020247258,5.66517536073934,-0.36309981709143524,-5.704485544494442,11.84076937321502
6.43894885632646,1.6560080465797813,5.661544362568426,-0.24469212335928503,-5.711359639550232,11.70150017960507
6.455508936792258,1.598894450184279,5.659097441334834,-0.12767712156323432,-5.727930431056822,11.55959997616185
6.471497881294101,1.5416151458737108,5.657820670119201,-0.012081121801615816,-5.755477585178717,11.417226337671806
6.486914032752838,1.4840603700219237,5.657699858901185,0.10209114157510225,-5.7948328557263915,11.276039513988579
6.501754636453057,1.4261120414646598,5.658720770316936,0.21485153671498802,-5.8464830536955565,11.137344298918041
6.516015756867704,1.3676472109277042,5.660869285684086,0.3262249797041684,-5.910651566728262,11.002201200820203
6.529692228976981,1.3085406952604217,5.664131535481128,0.43624699171237047,-5.9873626539340385,10.871512618381413
6.5427776359295855,1.2486670687210812,5.6684940053982515,0.5449621178961845,-6.076492111937595,10.74608890726405
6.555264306616796,1.1879021476017053,5.673943626577214,0.652423006968825,-6.177807252762768,10.626698366746451
6.567143328092813,1.1261240750740775,5.680467856646902,0.7586899906362896,-6.290998521672354,10.51410437542008
6.5784045688435535,1.0632140898573539,5.688054756553265,0.8638310343904905,-6.415704539636444,10.409092198100383
6.589036709742127,0.9990570444609894,5.696693066897169,0.9679219563714943,-6.55153188377861,10.312487376492397
6.599027280186737,0.9335417256232033,5.706372286460884,1.0710468301364182,-6.698070510956691,10.225167091045657
6.60836269744297,0.8665610205136364,5.717082754762249,1.1732985010468748,-6.85490536961278,10.148065419624192
6.6170283076481065,0.7980119668175085,5.728815739772718,1.2747791552431167,-7.021624415267684,10.082172994698924
6.625008427316281,0.7277957226648317,5.7415635313251485,1.375600885190106,-7.197822925832086,10.028531146752803
6.63228638454293,0.6558174934065109,5.75531954017705,1.475886196657634,-7.383103682785697,9.988220186952676
6.638844559476995,0.5819864565786539,5.770078402143626,1.5757683985271607,-7.577072219365711,9.962340992932859
6.644664424042782,0.5062157343849968,5.7858360861288975,1.6753918084564892,-7.779325909956111,9.951988478938734
6.6497265813866315,0.42842247528543564,5.802590004213463,1.7749116932458766,-7.989435154177449,9.9582148103119
6.654010806139486,0.34852812374366116,5.8203391211459214,1.8744938413489955,-8.206914257797706,9.981979309314273
6.657496087376923,0.2664589811656841,5.839084059559411,1.9743136344421384,-8.431178788442,10.024080833630677
6.660160677188579,0.1821471932812641,5.8588271959038325,2.074554442778445,-8.661485142140602,10.085066924274706
6.661982149121392,0.09553234185985808,5.879572740331617,2.175405112021192,-8.896846755395249,10.16511215266275
6.662937472539991,0.00656387430590559,5.901326791451829,2.2770562335478193,-9.135919812758436,10.263855805879787
6.663003111283049,-0.08479532382167877,5.924097353787307,2.3796947916066173,-9.376849454462102,10.38018635404369
6.662155158044833,-0.1785638183662998,5.947894301703373,2.483496655147054,-9.617065505212127,10.511957198002563
6.660369519861169,-0.27473447341842105,5.972729268254843,2.58861622712708,-9.853014942355072,10.655615419112197
6.657622175126985,-0.37326462284197176,5.998615430526114,2.695172381318202,-10.079817373946012,10.80572355400594
6.653889528898565,-0.4740627965814319,6.025567154339297,2.8032296168582613,-10.290830990198844,10.95435554847293
6.649148900932751,-0.5769711064834203,6.053599450507879,2.9127731723429906,-10.477122052126925,11.090355123123148
6.643379189867916,-0.6817423270046896,6.082727182231309,3.023676723574222,-10.626844706172388,11.198462957803619
6.636561766597869,-0.7880107740664135,6.112963949467051,3.135661353152258,-10.724565360475093,11.258356175632734
6.628681658857205,-0.8952564276711644,6.1443205629985735,3.2482449149085855,-10.750614473886731,11.243710046155668
6.619729094580493,-1.0027625724100317,6.176803012147659,3.360682015370142,-10.680626237522324,11.121498810515014
6.609701468856393,-1.109568834785255,6.210409832301361,3.4718970034752923,-10.485536863922254,10.851905577916815
6.5986057805085405,-1.2144242034244777,6.245128802336113,3.5804160592544605,-10.132444073759638,10.389395939263192
6.586461538474296,-1.315748644162074,6.280932962928658,3.6843100186470923,-9.586840862338,9.685667575376398
6.573304052032675,-1.4116170527854541,6.3177760631151285,3.781166694400856,-8.816730329894625,8.695187121621158
6.559187881504821,-1.4997843560844004,6.3555877300591375,3.868118565617068,-7.798853540776571,7.3836552968267135
6.544190037943976,-1.577772891492166,6.394268915715308,3.941955118585335,-6.5265640928589495,5.738785076226777
6.528412309029055,-1.6430385324207555,6.433688466901161,3.9993429693476026,-5.0177565870416485,3.7812250709037296
6.511981923704847,-1.693216098291172,6.473681896594638,4.03715522005664,-3.32007125647429,1.5718191173205158
6.495049762721935,-1.7264168108559148,6.514053448795204,4.052873411229845,-1.5101856024095413,-0.7891870807987593
6.477785594613376,-1.7415186668800102,6.554582182907502,4.044981540421857,0.31472739199731375,-3.173645232227471
6.460370407944576,-1.738371392960037,6.595031998311721,4.013245088099583,2.0522728938270043,-5.446207570818162
6.442986694014976,-1.717848664021767,6.635164449192716,3.9587830123914016,3.612394990585615,-7.488137589499185
6.425808207374758,-1.6817247141159108,6.67475227931663,3.8839016364964096,4.931368732377535,-9.216208587755723
6.4089909602335995,-1.6324110267921355,6.713591295681594,3.7917395506188525,5.978048895828259,-10.591005797061891
6.3926668499656785,-1.5726305378338528,6.751508691187783,3.6858294926482333,6.751839638204219,-11.613957514646183
6.37694054458734,-1.5051121414518105,6.788366986114265,3.5696899175017713,7.2750258771001945,-12.316762766437234
6.361889423172822,-1.4323618826808087,6.8240638852892825,3.446522289837399,7.583221628869909,-12.748370059571402
6.347565804346014,-1.3565296663921096,6.858529108187657,3.3190385892416847,7.716895308041206,-12.96353109316475
6.334000507682093,-1.2793607133116975,6.891719494080074,3.1894032783100372,7.715382149883459,-13.014809987135555
6.321206900548976,-1.202206891812863,6.923613526863174,3.059255178438682,7.613494001458663,-12.948151503750841
6.309184831630847,-1.1260719517982765,6.954206078647561,2.9297736634011735,7.4401568317005315,-12.80119707836302
6.297924112112864,-1.051670383481271,6.983503815281573,2.8017616926175433,7.218346414145108,-12.603336432119702
6.287407408278051,-0.97948691933982,7.011521432207748,2.6757283282963464,6.965708107232537,-12.376653644727826
6.277612539084653,-0.9098298382674946,7.038278715490711,2.551961791849068,6.695442529192672,-12.137201633809028
6.268514240701978,-0.8428754129755679,7.063798333409202,2.4305897755109775,6.417214671963686,-11.896281834944862
6.260085486572223,-0.778703266255931,7.088104231164311,2.311626957161529,6.137968289347552,-11.66157560035203
6.252298453909663,-0.7173235833624555,7.111220500735927,2.195011201158009,5.8626029432785245,-11.43807569994153
6.245125218076039,-0.6586975539296702,7.133170612747507,2.0806304441585937,5.5945113240353805,-11.228819612935345
6.238538242536742,-0.6027524406893164,7.153976917189093,1.9683422480292403,5.335992649232562,-11.03544964040556
6.2325107181298485,-0.5493925141969909,7.173660339669385,1.8579877516251848,5.088563854169408,-10.858631747385928
6.227016792987879,-0.4985068756552968,7.1922402171856366,1.7494014341513255,4.853190098665687,-10.698363917897204
6.222031724231326,-0.4499749746686399,7.2097342315271495,1.6424177949723535,4.630453369407971,-10.554200456771307
6.21753197448464,-0.4036704409745602,7.226158409476873,1.5368757904046404,4.420674495795104,-10.425413551500275
6.213495270074894,-0.35946369601660916,7.241527167380919,1.4326216548896376,4.224000582285808,-10.311108632294268
6.209900633114728,-0.3172236901937511,7.255853383929816,1.3295105685666948,4.040467024823303,-10.210306047991445
6.206728396212791,-0.27681901994551805,7.269148489615483,1.2274075080867803,3.870040995771149,-10.121998374688035
6.203960206013336,-0.23811860998780657,7.28142256469635,1.1261875243399,3.71265150869038,-10.045190211524128
6.201579019913457,-0.20099209490090275,7.292684439939749,1.0257356222246587,3.5682098285953203,-9.978925465159882
6.1995690989644485,-0.16530999661494955,7.302941796161996,0.9259463675730599,3.436622987270221,-9.922305750762183
6.197915998998299,-0.13094376674224734,7.312201259837726,0.8267233100654381,3.3178024185081605,-9.874502529136153
6.196606561330877,-0.09776574255716573,7.320468492938381,0.7279782847740766,3.2116691803888875,-9.834764864864821
6.195628903905305,-0.06564905075327686,7.327748275786122,0.6296306361254284,3.1181568304215097,-9.802424157374377
6.194972413397773,-0.03446748244906176,7.334044582147376,0.5316063945516846,3.0372127259731063,-9.776896811507497
6.194627738573282,-0.004095355189330695,7.339360646092893,0.4338374264366096,2.9687983079536995,-9.757685536074067
6.1945867850213885,0.0255926278902063,7.343699020357259,0.33626057107586893,2.912888768758165,-9.74437975817407
6.19484271130029,0.054721515577787955,7.347061626068018,0.23881677349412822,2.869472390123948,-9.736655496006975
6.195389926456068,0.08341623947902743,7.349449793802959,0.14145021853405848,2.838549751154921,-9.734274927394322
6.196224088850858,0.11180173699057663,7.3508642959883,0.04410746926011526,2.8201329426154595,-9.73708581357794
6.197342106220764,0.14000306641673121,7.351305370680901,-0.05326338887566413,2.814244874207601,-9.74502087926546
6.198742136884931,0.1681455151588072,7.350772736792145,-0.15071359766831874,2.8209187219072938,-9.758097203724855
6.200423592036519,0.19635470237788016,7.349265600815461,-0.2482945697055673,2.8401975285585923,-9.776415638725508
6.202387139060298,0.22475667766346608,7.346782655118406,-0.3460587260928224,2.872133939417731,-9.800160232869246
6.204634705836933,0.2534780170576434,7.3433220678574775,-0.4440603284215149,2.9167900220888714,-9.829597604314788
6.20716948600751,0.2826459172785321,7.338881464573262,-0.5423563044646628,2.9742370841602677,-9.865076160999148
6.209995945180295,0.3123882881201348,7.333457901528615,-0.6410070660746543,3.0445553583751996,-9.907025014675094
6.2131198280614965,0.3428338417038868,7.327047830867869,-0.7400773162214053,3.1278333702541463,-9.955952366991832
6.216548166478535,0.37411217540642827,7.319647057705655,-0.8396368398913236,3.224166731603541,-10.012443055596096
6.2202892882326,0.40635384272246367,7.311250689306742,-0.9397612704472846,3.3336560086973877,-10.077154826894185
6.224352826659825,0.43969040280943755,7.301853076602269,-1.0405328187162266,3.4564031874253303,-10.150812737854093
6.228749730687919,0.4742544346836909,7.291447748415107,-1.1420409460947676,3.592506087864101,-10.234200866231593
6.233492275034756,0.5101794955623319,7.2800273389541585,-1.2443829547570835,3.7420498522740195,-10.328150205735408
6.238594069990379,0.5475999940850721,7.267583509406588,-1.3476644568144376,3.905094323221933,-10.433521211746102
6.2440700699312295,0.5866509373172915,7.254106864838444,-1.4519996689318986,4.081655715816364,-10.551178907063605
6.249936579304403,0.6274674944754551,7.239586868149125,-1.5575114580025347,4.271680435489528,-10.681957707282086
6.256211254249157,0.6701842988303504,7.2240117535690995,-1.6643310350753555,4.47500815675396,-10.826612119878213
6.262913097237461,0.7149343803978899,7.207368443218346,-1.7725971562741376,4.691320305530947,-10.985748133520556
6.27006244104144,0.7618475834531994,7.189642471655604,-1.8824546376093432,4.920068816441414,-11.159728355119341
6.277680916875972,0.8110482716176135,7.170817925279511,-1.9940519211605365,5.1603784033771385,-11.348541677327967
6.2857913995921475,0.8626520556513849,7.150877406067906,-2.1075373379338163,5.410913537007728,-11.551625389722501
6.294417920148661,0.9167611910214621,7.129802032688568,-2.2230535918310412,5.669698864380662,-11.767624164578107
6.303585532058876,0.9734581796652687,7.107571496770258,-2.3407298334768223,5.933879045068229,-11.994066385629107
6.313320113855529,1.032796970115951,7.08416419843549,-2.4606704973331133,6.199401263922634,-12.226934296995704
6.323648083556688,1.0947909827551774,7.059557493462159,-2.5829398403030703,6.460601813671062,-12.46010149723584
6.33459599338424,1.159397000891888,7.0337280950591285,-2.7075408552754285,6.709678732263917,-12.684611568263383
6.346189963393159,1.226493788214527,7.006652686506374,-2.8343869709580622,6.936038496820845,-12.887779159720155
6.358454901275304,1.2958541731827355,6.978308816796794,-2.963264762555264,7.1255212788656275,-13.052116602244167
6.371413443007132,1.3671093859713919,6.948676169171241,-3.093785928577706,7.25954417879499,-13.154136057160079
6.385084536866846,1.4397048277593418,6.917738309885464,-3.2253272891493068,7.314266191675519,-13.163164650856057
6.399481585144439,1.512847489676097,6.885485036993971,-3.3569589356578673,7.2599847318572515,-13.040455306179892
6.4146100600412,1.5854473369946696,6.851915447637392,-3.4873634887196663,7.0611283417433945,-12.739089271864232
6.430464533411147,1.6560586204121035,6.817041812750196,-3.6147543814383085,6.677399553281654,-12.205428908745127
6.447025119615268,1.72283261594492,6.780894268935812,-3.7368086705257597,6.066782222098782,-11.383104273591737
6.464253445774717,1.7835004381659079,6.743526182230554,-3.850639713261677,5.191112011447276,-10.220501935270887
6.482088450156376,1.8354115582803807,6.705019785097938,-3.952844732614386,4.024479549217392,-8.68214070176036
6.5004425657391804,1.8756563537725546,6.665491337771794,-4.039666139631989,2.563657528095485,-6.762839407287765
6.519199129276906,1.9012929290535094,6.625094676375474,-4.1072945337048665,0.8380494542936081,-4.501251475610783
6.538212058567441,1.9096734235964454,6.584021731038425,-4.152307048460974,-1.0849749200852492,-1.9870938635560922
6.557308792803406,1.8988236743955929,6.542498660553815,-4.172177987096536,-3.103674951694453,0.6438451772463991
6.576297029547362,1.8677869248786483,6.50077688068285,-4.165739535324072,-5.096235048002638,3.229310208460411
6.594974898796148,1.816824574398622,6.45911948532961,-4.133446433239468,-6.942670934893557,5.610486295241237
6.6131431445401345,1.7473978650496864,6.417785020997215,-4.0773415702870555,-8.546915260109117,7.6619591733946315
6.630617123190631,1.6619287124485953,6.377011605294344,-4.000721978553109,-9.85118199071032,9.310909827825892
6.647236410315117,1.5634168925414922,6.337004385508813,-3.90761288027485,-10.838715800643442,10.540319544742076
6.662870579240533,1.4550297345350578,6.297928256706064,-3.8022096848274294,-11.526556402961006,11.378579238582224
6.677420876585884,1.3397641705054477,6.25990615985779,-3.688423892441607,-11.95333254144085,11.882492001403968
6.690818518290938,1.2202308450910393,6.223021920933374,-3.5695989724275674,-12.167104545009197,12.120569616338715
6.703020826741849,1.0985597996409473,6.187325931209099,-3.4483932762641802,-12.216209303951077,12.160615504938507
6.714006424738258,0.9763977066014365,6.152841998446457,-3.326787121214795,-12.143835669436669,12.06250701283499
6.7237704018042725,0.8549593499070699,6.1195741272343085,-3.2061620510864453,-11.98570167700968,11.875242722027696
6.732319995303343,0.7351023331369732,6.087512506723444,-3.087409623866168,-11.769768797634073,11.636751364674387
6.739671018634713,0.6174046451606324,6.056638410484783,-2.9710421102194244,-11.517037406699863,11.375134938689918
6.7458450650863195,0.5022342710936338,6.026927989382588,-2.8572907608325253,-11.242762368055828,11.110439814540994
6.750867407797256,0.3898066474130756,5.998355081774263,-2.7461863626871152,-10.957708448238057,10.856442732593269
6.7547654742713865,0.280229562930695,5.970893218147392,-2.6376219353611825,-10.669265074995637,10.622214662068052
6.757567769900693,0.17353691218073863,5.94451699879378,-2.5313997887405018,-10.382359366301188,10.413388330109939
6.759303139022501,0.06971331851772676,5.919203000906375,-2.4272659054394023,-10.100167803287453,10.233137507028038
