th1 (rad),w1 (rad/s),th2 (rad),w2 (rad/s)
3.0085818733241263,0.3452488297156437,2.387740828899099,0.20730025216687611
3.0120343616212826,0.36598397426274065,2.389813831420768,0.1240515948814652
3.01569420136391,0.3871366375691058,2.3910543473695824,0.040715869629763146
3.0195655677396007,0.4086616979409581,2.39146150606588,-0.04270740799932807
3.02365218471901,0.4305128570792921,2.3910344319858865,-0.12621678583965903
3.027957313289803,0.4526418940687899,2.38977226412749,-0.20980823739214055
3.032483732230491,0.47499796104687597,2.3876741817535683,-0.29347458797138
3.0372337118409596,0.4975269382726514,2.3847394358738545,-0.3772050296215624
3.042208981223686,0.5201708657129128,2.3809673855776388,-0.46098474883412055
3.047410689880815,0.5428674671264991,2.3763575380892976,-0.5447946895043085
3.0528393645520797,0.5655497808674524,2.3709095911942546,-0.6286114710929284
3.0584948623607544,0.5881459091683706,2.364623476483325,-0.7124074785262181
3.064376321452438,0.6105788944685299,2.357499401698063,-0.7961511359339837
3.0704821103971236,0.6327667274277453,2.3495378903387234,-0.8798073709270655
3.076809777671401,0.6546224866908253,2.3407398166294526,-0.9633382698719434
3.0833560025383093,0.6760546053846241,2.3311064339307332,-1.0467039177522655
3.090116548592156,0.6969672539577954,2.3206393947532105,-1.1298634090308177
3.097086221131734,0.717260823593236,2.309340760662902,-1.2127760088404913
3.1042588293676663,0.7368324893603625,2.297213000574497,-1.2954024372946347
3.11162715426127,0.7555768278715396,2.2842589762015506,-1.3777062441880898
3.119182922539985,0.7733864607906127,2.27048191375967,-1.4596552373020109
3.1269167871478913,0.7901526933858747,2.2558853613866496,-1.5412229252899814
3.13481831408175,0.8057661166140794,2.24047313213375,-1.622389935946508
3.142875975247891,0.8201171420451863,2.2242492327742847,-1.703145372619591
3.1510771466683427,0.8330964412450287,2.2072177790480887,-1.7834880755299343
3.159408111080793,0.844595264859129,2.189382898292789,-1.8634277605332974
3.167854063729384,0.8545056213145767,2.170748620687456,-1.9429860149970444
3.17639911994253,0.8627203004317071,2.1513187605374857,-2.0221971384412485
3.185026322946847,0.869132732928838,2.1310967891530734,-2.101108823852596
3.1937176502761355,0.8736366824301178,2.1100857009145475,-2.1797826835551515
3.2024540171004365,0.8761257718084319,2.088287874078996,-2.2582946307120264
3.211215274818521,0.8764928502445799,2.065704927771876,-2.3367351335288338
3.219980203320967,0.8746292110859174,2.0423375764365876,-2.415209363746803
3.2287264954318258,0.8704236733700357,2.0181854827991197,-2.4938372638910478
3.2374307321655262,0.8637615417703621,1.9932471101602092,-2.5727535589362147
3.24606834758323,0.8545234608402424,1.967519574570847,-2.6521077376216886
3.254613582191632,0.8425841799753953,1.9409984971946301,-2.7320640267108613
3.263039423991386,0.827811245735847,1.9136778569275215,-2.8128013781930004
3.2713175364487443,0.8100636383652613,1.8855498431455915,-2.8945134849170766
3.279418172832397,0.789190369847445,1.8566047082964208,-2.9774088345335707
3.2873100765308716,0.7650290620016107,1.826830619951085,-3.0617108049491297
3.2949603671508876,0.7374045253196397,1.7962135119015938,-3.147657796731999
3.302334412404084,0.7061273629005801,1.7647369339342738,-3.2355033889046934
3.3093956860330898,0.6709926293915272,1.7323819000452267,-3.325516494072691
3.316105612327005,0.6317785828067837,1.6991267351044999,-3.4179814764907808
3.3224233981550726,0.5882455780469306,1.6649469203395921,-3.513198181961804
3.3283058539355417,0.5401351655402716,1.629814938519974,-3.6114818107677986
3.3337072055909442,0.4871694774406925,1.593700120412296,-3.713162543400214
3.338578900365351,0.4290510080919584,1.5565684949782939,-3.8185848028281133
3.3428694104462706,0.36546292593521384,1.5183826469500128,-3.9281060054971357
3.346524039705623,0.29607009163878517,1.4791015868950415,-4.042094615265586
3.3494847406220107,0.2205210028249493,1.4386806407423856,-4.160927269260116
3.35168995065026,0.13845093994347596,1.3970713680497844,-4.284984691701184
3.353074460049695,0.049486650613017005,1.3542215211327726,-4.414646051282102
3.3535693265558253,-0.046747019894811934,1.3100750606199516,-4.550281350986779
3.353101856356877,-0.15061806914026268,1.2645722471100838,-4.692241369432562
3.3515956756654743,-0.26247529139780157,1.2176498334157582,-4.840844605869701
3.348970922751496,-0.3826326225576785,1.169241387357061,-4.996360626916637
3.3451445965259192,-0.5113492136630611,1.1192777810878947,-5.15898918775338
3.3400311043892885,-0.648804577872201,1.067687889210361,-5.328834527184169
3.3335430586105663,-0.7950682416560239,1.0143995439385192,-5.505874347334454
3.325592376194006,-0.9500635380842662,0.9593408004651747,-5.689923227597371
3.3160917408131634,-1.1135255602995848,0.902441568189201,-5.8805906408526285
3.3049564852101674,-1.2849539049959846,0.8436356617806746,-6.077234394525707
3.2921069461602075,-1.4635617335319622,0.7828633178354175,-6.278911259951698
3.277471328824888,-1.6482238949504973,0.7200742052359005,-6.484327804862382
3.260989089875383,-1.8374283726113347,0.6552309271872767,-6.691795973211033
3.2426148061492697,-2.0292370266556983,0.5883129674551664,-6.899199635246736
3.2223224358827127,-2.2212632682145887,0.519320971102699,-7.10397989222928
3.200109803200567,-2.4106755157921995,0.44828117218040625,-7.303147934817221
3.1760030480426447,-2.5942354939451273,0.375249692832234,-7.493334149071292
3.1500606931031934,-2.768379012672054,0.3003163513415211,-7.670880322343921
3.1223769029764727,-2.9293432963071426,0.22360754811808192,-7.831977762883031
3.093083470013401,-3.0733390753727505,0.14528777048925162,-7.972847889733438
3.0623500792596734,-3.1967580352540015,0.06555929159191724,-8.089954061007047
3.0303824989071333,-3.2963981590377496,-0.01534024901815323,-8.180225587616635
2.997418517316756,-3.3696829883277375,-0.09714250489431958,-8.24126910319174
2.9637216874334786,-3.414847957379708,-0.17955519592623698,-8.271540767896363
2.9295732078596814,-3.4310691731902625,-0.2622706036052006,-8.270456351854424
2.895262516127779,-3.4185173973558483,-0.3449751671237449,-8.23842474654314
2.8610773421542204,-3.3783310325438105,-0.42735941458917626,-8.176801991537442
2.8272940318287825,-3.312513988394087,-0.5091274345045507,-8.087774637275539
2.7941688919448415,-3.2237745563196265,-0.590005180877306,-7.974190446746835
2.761931146381645,-3.115327778931874,-0.6697470853447743,-7.839359348198784
2.7307778685923263,-2.9906854910494127,-0.7481406788267622,-7.686847878633347
2.7008710136818324,-2.8534557583910374,-0.8250091576130957,-7.5202869919279784
2.672336456097922,-2.7071682048507206,-0.9002120275323755,-7.343207555566457
2.645264774049415,-2.555135306120755,-0.9736441030880401,-7.158911666773248
2.6197134209882074,-2.400353524013864,-1.0452332197557725,-6.9703822686527
2.595709885748069,-2.2454430879535976,-1.1149370424422995,-6.780229135881985
2.573255454868533,-2.0926217241200495,-1.1827393338011194,-6.5906663755354415
2.5523292376273328,-1.9437057074489585,-1.2486459975564739,-6.403515075546665
2.5328921805528433,-1.8001310222080056,-1.3126811483119405,-6.220224367494491
2.5148908703307633,-1.662987795911034,-1.3748833919868855,-6.041904615067401
2.498260992371653,-1.5330621386248695,-1.4353024381375594,-5.869367365502814
2.4829303709854043,-1.4108807504459404,-1.4939961117925875,-5.703167834230386
2.4688215634809447,-1.2967549153274431,-1.5510277901348914,-5.543646833268541
2.45585401432767,-1.1908216296159595,-1.6064642584675768,-5.390970076589847
2.4439457980315105,-1.0930805438150062,-1.6603739592334752,-5.245163638282765
2.4330149925933604,-1.003426106137003,-1.7128255956163028,-5.106144985337431
2.4229807315319905,-0.9216748005895951,-1.7638870454696771,-4.97374946883382
2.4137639835260947,-0.8475877025986288,-1.8136245401580153,-4.847752463035866
2.4052881065001084,-0.7808887692890069,-1.862102064788374,-4.7278875244965946
2.3974792188072183,-0.7212793759020685,-1.90938094003334,-4.613861034864619
2.3902664250481975,-0.6684496356590287,-1.955519550381986,-4.505363819457575
2.383581928691607,-0.6220870224696067,-2.0005731885765616,-4.402080221099874
2.377361058466911,-0.581882772700415,-2.0445939907875603,-4.30369507196372
2.371542230739907,-0.5475364867600899,-2.0876309415071974,-4.209898957126256
2.3660668658723063,-0.5187592921660956,-2.12972993107846,-4.120392110284479
2.3608792729506454,-0.4952758723941001,-2.170933852181305,-4.034887229614625
2.3559265142267045,-0.4768256132008279,-2.211282724477451,-3.953111453050642
2.351158258094696,-0.46316307169481935,-2.2508138390079577,-3.8748076887467757
2.346526627377748,-0.45405793362362923,-2.2895619158954257,-3.7997354586850687
2.3419860480415116,-0.44929459094993124,-2.3275592704822765,-3.727671381205442
2.3374931021320124,-0.44867144426195554,-2.3648359842943307,-3.6584093912606117
2.3330063876893927,-0.4520000122073003,-2.401420078206937,-3.5917607748596514
2.32848638756732,-0.45910391221157865,-2.437337685955533,-3.5275540758440393
2.323895348445204,-0.46981776252608665,-2.4726132267139733,-3.465634918237823
2.319197170819943,-0.48398604448211785,-2.5072695758963515,-3.405865775382044
2.314357310375122,-0.5014619551286468,-2.5413282336501717,-3.3481257074258
2.3093426908238355,-0.522106273688085,-2.5748094907244297,-3.2923100810992514
2.3041216280869548,-0.5457862600503077,-2.6077325915354224,-3.238330279704929
2.2986637654864515,-0.5723745994762005,-2.640115894332472,-3.1861134066631784
2.2929400194916894,-0.601748404499003,-2.6719770283991036,-3.1356019825183936
2.286922535446699,-0.6337882824506575,-2.7033330482242874,-3.086753632880127
2.2805846526221925,-0.6683774749065123,-2.7342005845530886,-3.0395407631939073
2.2739008778731273,-0.7054010734844732,-2.764595992185028,-2.993950215389138
2.2668468671382827,-0.7447453147430116,-2.7945354943389193,-2.9499829012274406
2.2593994139908524,-0.7862969553208209,-2.8240353233511937,-2.907653407472052
2.2515364444376442,-0.829942726905492,-2.853111857425914,-2.8669895687162725
2.2432370171685894,-0.8755688690930588,-2.881781753113077,-2.8280320047435175
2.2344813284776586,-0.9230607367114475,-2.9100620731605122,-2.790833620537546
2.225250721110544,-0.9723024767536548,-2.937970409365888,-2.755459068411852
2.2155276963430075,-1.023176768738342,-2.965525000050006,-2.7219841730765757
2.205295928655624,-1.0755646211306598,-2.992744841780772,-2.6904953217104493
2.194540282444317,-1.1293452154594834,-3.0196497949978762,-2.6610888221664672
2.1832468302897223,-1.1843957889991041,-3.0462606832195407,-2.6338702332422437
2.171402872399731,-1.240591546374597,-3.072599385551963,-2.6089536714400094
2.1589969569359853,-1.2978055902183965,-3.0986889222663634,-2.586461098802539
2.146018901033801,-1.355908861053991,-3.124553533254389,-2.5665215962421377
2.132459812423261,-1.4147700768988076,-3.15021874921681,-2.5492706263085814
2.118312111654273,-1.4742556636363078,-3.1757114554798958,-2.5348492886204315
2.1035695550179097,-1.5342296679702485,-3.2010599483661,-2.523403570283482
2.088227258338207,-1.5945536456984921,-3.226293984068935,-2.515083592624354
2.072281721881222,-1.6550865190842996,-3.251444819995178,-2.5100428545670606
2.055730856690379,-1.7156843982172936,-3.276545248540849,-2.5084374720658653
2.038574012708206,-1.7762003624093998,-3.3016296232615074,-2.510425412262498
2.020812009084112,-1.8364841988394305,-3.3267338773841324,-2.5161657205312484
2.002447167095718,-1.8963820968337097,-3.351895534589445,-2.525817738367778
1.9834833461273806,-1.9557362973543118,-3.377153711973123,-2.5395403102050724
1.9639259831538376,-2.0143846984808387,-3.402549115075174,-2.557490977723563
1.9437821361690293,-2.0721604189491107,-3.4281240248524094,-2.579825161066033
1.9230605319795382,-2.1288913231941695,-3.4539222764630697,-2.606695327560943
1.9017716187475966,-2.184399512886368,-3.479989229738679,-2.6382501500776763
1.879927623618733,-2.2385007917025033,-3.506371731239456,-2.674633658951684
1.8575426157017079,-2.2910041120935003,-3.5331180678289726,-2.7159843934861825
1.8346325745807728,-2.3417110151478955,-3.5602779117638343,-2.7624345613112204
1.811215464429294,-2.3904150773533748,-3.5879022573769466,-2.814109216301229
1.7873113136557601,-2.436901381168894,-3.6160433495399587,-2.8711254682434384
1.7629422998440711,-2.480946029876134,-3.644754604222393,-2.933591739912058
1.7381328395453097,-2.5223157312209663,-3.6740905216215136,-3.0016070894998066
1.7129096822331,-2.5607674789322483,-3.7041065925165118,-3.0752606182970434
1.6873020074437775,-2.59604836638758,-3.7348591986994824,-3.1546309848186236
1.6613415237799016,-2.6278955725956625,-3.7664055085476686,-3.2397860468794475
1.635062568053945,-2.6560365674627526,-3.798803369016463,-3.3307826518822536
1.6085022023793174,-2.6801895912930265,-3.8321111955352856,-3.4276665920755116
1.581700306466387,-2.700064473085043,-3.8663878614560407,-3.5304727347674265
1.5546996617355366,-2.7153638641051763,-3.901692588803715,-3.6392253260896967
1.5275460230944848,-2.7257849784468458,-3.9380848420646117,-3.7539384490637806
1.5002881733100164,-2.731021952278221,-3.9756242265552495,-3.8746165899759086
1.4729779537872343,-2.73076896031482,-4.0143703924550085,-4.0012552281236555
1.4456702641840862,-2.7247242646235152,-4.054382944736245,-4.133841308465135
1.418423021537851,-2.7125954211336714,-4.095721357820897,-4.272353378756828
1.3912970673265144,-2.6941059384932102,-4.138444891608465,-4.416761064757049
1.3643560079415822,-2.6690037790211854,-4.182612502256036,-4.567023409118747
1.3376659701513702,-2.637072220980886,-4.228282736347223,-4.723085399300887
1.3112952479415614,-2.5981437750639125,-4.275513590340232,-4.884871742403806
1.2853138101909223,-2.552118075779082,-4.32436230776427,-5.052276594254695
1.2597926294331314,-2.4989849573748506,-4.374885073706817,-5.225147502448208
1.2348027798593828,-2.4388542714707486,-4.427136548731299,-5.4032612744455655
1.2104142371446753,-2.3719943847989424,-4.481169161475754,-5.586288854311223
1.186694293296686,-2.2988816393899842,-4.537032050018866,-5.773745663636059
1.1637054769027861,-2.2202632069112904,-4.5947695066552265,-5.964923421552493
1.1415028448336733,-2.137235417645391,-4.654418740870751,-6.158799587386618
1.1201304906572194,-2.051338254663961,-4.7160067367446175,-6.353921959562557
1.0996171081105797,-1.9646634264929654,-4.779545956340243,-6.548269735269371
1.07997047384565,-1.8799671198267958,-4.845028653692937,-6.739100041206901
1.061170802647382,-1.8007680432121282,-4.9124196541050065,-6.922802209469154
1.0431631222152609,-1.731396494868594,-4.981647676199698,-7.094801383378571
1.0258491572665749,-1.676943564590313,-5.052595690033484,-7.249575224543534
1.0090797216206717,-1.6430493456968842,-5.1250914422789196,-7.380862168085833
0.9926492281637029,-1.6354800947080599,-5.198900063959778,-7.482127411494071
0.9762944272166223,-1.6594933980438142,-5.2737213380747185,-7.547291513201691
0.9596994932361842,-1.7190805014589459,-5.349194253206735,-7.571612050463922
0.9425086882215947,-1.816274377588524,-5.424910373711374,-7.552482584337949
0.9243459444457095,-1.950753868938279,-5.500435199554754,-7.4898625981789335
0.9048384057563267,-2.1199005668462676,-5.575333825536543,-7.386151075231585
0.883639400087864,-2.3192933982945885,-5.649195336288859,-7.245538831667699
0.8604464661049182,-2.5434578014850433,-5.721650724605536,-7.073085518108313
0.8350118880900678,-2.786625211019382,-5.792381579786619,-6.873833899874623
0.807145635979874,-3.0433201531194514,-5.8611199187853655,-6.652182698305886
0.7767124344486794,-3.3087085672440226,-5.927641745768424,-6.411583971498776
0.7436253487762392,-3.5787354490825707,-5.991757585483412,-6.154511478776975
0.7078379942854135,-3.8501212787614945,-6.053302700271182,-5.8825994139004365
0.6693367814977985,-4.120285414683597,-6.1121286944101865,-5.596858659865567
0.6281339273509625,-4.387244251180103,-6.168097281008842,-5.297907852373152
0.5842614848391615,-4.649509770367133,-6.2210763595325735,-4.98618668332355
0.5377663871354902,-4.905997456748932,-6.270938226365809,-4.662140524365598
0.48870641256800085,-5.155942212610681,-6.317559631609464,-4.326378460162696
0.43714699044189403,-5.398815251675503,-6.360823416211091,-3.979813918612988
0.383158837925139,-5.6342320571196876,-6.400621555397221,-3.623800948179012
0.3268165173539421,-5.861840076569392,-6.436859564879011,-3.260281439113923
0.2681981165882482,-6.081174447240917,-6.46946237927015,-2.8919595422446087
0.20738637211583905,-6.2914712688992855,-6.498381974692596,-2.5225180563484138
0.1444716594268462,-6.491432688063761,-6.52360715525608,-2.156884572288973
0.07955733254620859,-6.678950028387047,-6.5451760009789695,-1.8015371438702348
0.012767832262338116,-6.850815851971507,-6.563191372417672,-1.4648023732937703
-0.05574032625737696,-7.002498224587499,-6.577839396150609,-1.1570362094161928
-0.12576530850325196,-7.128108083494313,-6.589409758244771,-0.8904941539372788
-0.19704638933819507,-7.220739150831651,-6.598314699784144,-0.6786298163684374
-0.2692537808465116,-7.273339240932227,-6.605100997947829,-0.5345975414867484
-0.34198717325583383,-7.280102682291497,-6.610446973362696,-0.4689917566692196
-0.41478820007874884,-7.238044313744931,-6.615136890929388,-0.4873475653381598
-0.4871686432161981,-7.148104629475467,-6.620010366582769,-0.5883896523601158
-0.5586496895109528,-7.01517214128835,-6.62589426310637,-0.7639639716526908
-0.6288014109238363,-6.846927424395788,-6.633533902822897,-1.0008155099243112
-0.6972706851677942,-6.65205906722914,-6.64354205792214,-1.2834012678245457
-0.7637912758400857,-6.438637132949726,-6.656376070600386,-1.5965484492322828
-0.828177647169583,-6.213140830373972,-6.672341555092709,-1.927172155749516
-0.8903090554733227,-5.980182215669807,-6.691613276650204,-2.2649409303943147
-0.9501108776300208,-5.742694918894094,-6.714262685954147,-2.6022024716056165
-1.0075378268189616,-5.50232254594218,-6.7402847106702035,-2.933555434662559
-1.0625610522783835,-5.259826805925004,-6.769620265016829,-3.255340984246638
-1.1151593203376335,-5.0154307649062115,-6.802173674859295,-3.565191154749833
-1.1653136279866956,-4.769075077207245,-6.837825586406794,-3.861677488136651
-1.213004378758768,-4.52059480084309,-6.87644236128816,-4.144056394255342
-1.258210326767199,-4.269834058088488,-6.917882925230714,-4.412090671830288
-1.3009086673480839,-4.016716123405398,-6.9620038319490165,-4.66592437805118
-1.3410758285821378,-3.761283699979112,-7.008663075729529,-4.90599153522099
-1.378688665581929,-3.503720988070728,-7.0577229910817385,-5.132943582047417
-1.4137258754626363,-3.244366629337991,-7.109052426902212,-5.347584275725759
-1.446169541756016,-2.983724889611686,-7.16252826965947,-5.5508034604138325
-1.476006790652133,-2.722481360238217,-7.218036304263608,-5.743502806956839
-1.5032316042545153,-2.4615287269977024,-7.2754713323331766,-5.926507612867163
-1.5278468915244923,-2.202007371925098,-7.334736408461848,-6.1004595489799005
-1.5498669652437433,-1.94536413568473,-7.395741003951647,-6.265686670038135
-1.5693206066005907,-1.693429552775446,-7.458397870652028,-6.4220503605027925
-1.5862549021283452,-1.4485079560894496,-7.522618374257056,-6.568776039427284
-1.6007399816892396,-1.2134644980746234,-7.5883061346513285,-6.704287630399247
-1.6128746266699858,-0.9917774944738421,-7.655349010955321,-6.826086433105055
-1.6227924016147242,-0.7875055319271733,-7.723609875286372,-6.930740809251294
-1.6306674569339958,-0.6051047536471933,-7.792917283378885,-7.01407322640442
-1.6367185044704677,-0.4490397668072085,-7.863058015642929,-7.071622733754542
-1.6412089021385399,-0.3231830007297897,-7.9337742429804745,-7.099394801905124
-1.6444407321458379,-0.23009815506293652,-8.004768190999526,-7.094777566193285
-1.6467417136964673,-0.17041610226607357,-8.075715966661459,-7.057353306601922
-1.648445874719128,-0.14255243232890147,-8.146289499727478,-6.989278483022881
-1.649871399042417,-0.14291523380105986,-8.216182284557707,-6.895037745497652
-1.6513005513804275,-0.1665428979471122,-8.285132662012684,-6.780652018005025
