th1 (rad),w1 (rad/s),th2 (rad),w2 (rad/s),a1 (rad/s^2),a2 (rad/s^2)
3.709980872178889,-2.802674277437503,5.158059981016575,0.40851397618804325,5.333792697761113,0.393934173777799
3.681954129404514,-2.7493363504598918,5.162145120778455,0.41245331792582124,5.088406617376379,0.8371695336209359
3.654460765899915,-2.698452284286128,5.1662696539577135,0.4208250132620306,4.860128047656567,1.2522728220303676
3.6274762430570537,-2.6498510038095624,5.170477904090334,0.4333477414823343,4.647550661998765,1.6414542241061407
3.6009777330189583,-2.6033754971895746,5.174811381505157,0.4497622837233957,4.449480944198729,2.006731369160031
3.5749439780470627,-2.558880687747587,5.179309004342391,0.469829597414996,4.264906841413846,2.349956601209043
3.5493551711695868,-2.516231619333449,5.184007300316542,0.49332916342708644,4.092970655001687,2.6728400017181455
3.5241928549762522,-2.475301912783432,5.1889405919508125,0.5200575634442679,3.9329455959553608,2.976968609874778
3.499439835848418,-2.4359724568238783,5.194141167585255,0.5498272495430157,3.784215469161225,3.263822268835486
3.475080111280179,-2.398130302132266,5.199639440080685,0.5824654722313705,3.646256994244285,3.534786481845229
3.4510988082588563,-2.361667732189823,5.205464094802998,0.6178133370498228,3.5186243128183285,3.7911626036414527
3.427482130936958,-2.32648148906164,5.211642228173496,0.6557249630862373,3.4009352685026486,4.034175627747086
3.4042173160463416,-2.292472136376613,5.218199477804359,0.6960667193637081,3.292859075068761,4.264979763043084
3.3812925946825754,-2.2595435456259256,5.225160144997996,0.738716516994139,3.194105008585031,4.484661925063281
3.358697159226316,-2.2276024955400753,5.232547310167937,0.7835631362447718,3.104411771041335,4.69424319911064
3.3364211342709154,-2.196558377829662,5.240382941530385,0.8305055682358782,3.023537175540604,4.894678263135336
3.3144555504926188,-2.1663230060742555,5.248687997212744,0.8794523508672315,2.9512477967587967,5.086852687547206
3.292792320431876,-2.1368105281066674,5.257482520721416,0.9303208777427036,2.887308215129088,5.271577955875003
3.2714242151508093,-2.1079374459553764,5.266785729498843,0.9830366573014536,2.8314694593990675,5.449583973720304
3.2503448406912554,-2.0796227513613856,5.276616096071858,1.0375324970386566,2.7834562204559066,5.621508753528226
3.2295486131776414,-2.0517881891568264,5.286991421042244,1.0937475845739388,2.742952370788873,5.787884879876116
3.2090307312860733,-2.0243586654489376,5.297928896887983,1.1516264333727,2.709584280768018,5.949122276154187
3.188787144631584,-1.9972628226412574,5.30944516122171,1.2111176561342418,2.682901378637058,6.105486712591588
3.1688145164051713,-1.970433808854887,5.321556337783052,1.2721725232601577,2.662353361538396,6.257073424476404
3.1491101783166227,-1.943810275239503,5.334278063015654,1.3347432575049218,2.647263439035582,6.403775159358067
3.1296720755642276,-1.9173376408491472,5.347625495590703,1.3987810090985024,2.6367969920801797,6.545243960310746
3.110498699155736,-1.8909696709283454,5.361613305681688,1.46423344870161,2.629925079080621,6.680846044597057
3.0915890024464527,-1.8646704201375393,5.376255640168704,1.5310419091475806,2.6253823449050606,6.809609289949593
3.0729422982450774,-1.8384165966884887,5.39156605926018,1.5991380020470767,2.621619127139323,6.930163144880378
3.0545581322781925,-1.8122004054170955,5.407557439280651,1.6684396334958804,2.616747958347776,7.040671302591818
3.0364361282240218,-1.7860329258336178,5.42424183561561,1.7388463465217987,2.608485299201335,7.138758306714233
3.0185757989656854,-1.7599480728416044,5.441630299080828,1.8102339295889411,2.594090284323579,7.221432495873866
3.0009763182372695,-1.7340071699983686,5.459732638376717,1.8824482545476797,2.5703036083586333,7.285009459674512
2.983636246537286,-1.7083041339147822,5.4785571209221935,1.955298349144425,2.533291508433485,7.3250425841902125
2.9665532051981383,-1.6829712188304473,5.498110104413637,2.028548774986327,2.4786021681819945,7.336270389345521
2.949723493009834,-1.6581851971486274,5.5183955921635,2.101911478879782,2.401144767820957,7.312594195288761
2.9331416410383477,-1.6341737494704178,5.539414706952298,2.1750374208326697,2.2952046955003524,7.2471040232638595
2.9167999035436436,-1.6112217025154143,5.561165081160625,2.2475084610653084,2.1545117651728147,7.132175081452802
2.9006876865184896,-1.5896765848636862,5.5836401657712775,2.3188302118798365,1.9723809907907797,6.959660837365393
2.884790920669853,-1.5699527749557785,5.606828467890076,2.3884268202534904,1.7419464781919545,6.721210129454648
2.869091392920295,-1.552533310173859,5.630712736092611,2.455638921548037,1.456506814146971,6.408733034899845
2.8535660598185566,-1.5379682420323892,5.655269125308092,2.5197262518970356,1.109993136298631,6.015030862597549
2.8381863773982325,-1.526868310669403,5.680466387827062,2.579876560523011,0.6975570796992948,5.534587287693977
2.8229176942915384,-1.51989273987241,5.706265153432292,2.6352224333999508,0.21625398061017698,4.964488849755996
2.807718766892814,-1.5177302000663082,5.732617377766291,2.6848673218975105,-0.33423218047644654,4.305404691399024
2.792541464892151,-1.5210725218710728,5.759466050985266,2.7279213688115007,-0.9509079298639779,3.5625122679751295
2.7773307396734404,-1.5305816011697126,5.786745264673382,2.763546491491252,-1.6269477942042256,2.7462174162079656
2.7620249236617433,-1.546851079111755,5.8143807295882945,2.7910086656533317,-2.3514584239931198,1.8724974912622647
2.7465564128706257,-1.570365663351686,5.8422908162448275,2.8097336405659545,-3.1096461017823853,0.9627102077504852
2.730852756237109,-1.60146212436951,5.870388152650487,2.8193607426434593,-3.8834598165423837,0.042768517419148
2.714838134993414,-1.6402967225349339,5.8985817600769215,2.8197884278176506,-4.65270591256128,-0.8583181645366397
2.6984351677680647,-1.6868237816605467,5.926779644355098,2.811205246172284,-5.396536186916718,-1.7104114033074749
2.681566929951459,-1.7407891435297138,5.954891696816821,2.7941011321392093,-6.095123536395359,-2.484477371925409
2.664159038516162,-1.8017403788936674,5.982832708138213,2.769256358419955,-6.731285417264992,-3.1547702948714043
2.6461416347272255,-1.8690532330663174,6.010525271722413,2.737708655471241,-7.291815294998832,-3.700645692713219
2.6274511023965625,-1.9419713860163057,6.037902358277125,2.700702198544109,-7.768338734702916,-4.107754483108632
2.6080313885363995,-2.0196547733633348,6.064909380262566,2.6596246537130224,-8.157607461038653,-4.368494075260526
2.587834840802766,-2.101230847973721,6.091505626799696,2.615939712960417,-8.46125263962388,-4.4817341457679145
2.566822532323029,-2.18584337436996,6.117665023929301,2.571122371502738,-8.685108081044227,-4.451953802349294
2.5449640985793294,-2.2726944551804023,6.143376247644328,2.5266028334792447,-8.838265440420626,-4.287997136998656
2.5222371540275255,-2.3610771095846084,6.168642275979121,2.483722862109258,-8.93203221835674,-4.001668989746902
2.4986263829316795,-2.4503974317681756,6.193479504600213,2.443706172211789,-8.978937926898936,-3.606362386386423
2.4741224086139977,-2.540186811037165,6.217916566322331,2.407642548347925,-8.991889361984983,-3.115852902515048
2.448720540503626,-2.6301057046570144,6.241992991805811,2.3764840193227745,-8.983527754798194,-2.5433328358305154
2.422419483457056,-2.7199409822049962,6.265757831999038,2.3510506909644695,-8.965799569762442,-1.900703874826463
2.3952200736350058,-2.8095989779026205,6.289268338908683,2.3320436522162047,-8.949724146806814,-1.198108080264473
2.3671240838559795,-2.8990962193706884,6.312588775430846,2.32006257141356,-8.945325798638605,-0.4436544732217299
2.3381331216622727,-2.9885494773570747,6.335789401144981,2.315626026681343,-8.961693064523283,0.356710403577233
2.308247626888702,-3.0781664080023075,6.358945661411795,2.319193130717115,-9.007130223737693,1.1992391646379272
2.277465962808679,-3.1682377102396844,6.3821375927189665,2.3311855223634943,-9.089372681501272,2.082373104600862
2.245783585706282,-3.259131437054697,6.405449447942601,2.352009253409503,-9.215846015688255,3.006722640732925
2.213192271335735,-3.351289897211579,6.428969540476696,2.382076479816832,-9.393956763311644,3.9750694907410704
2.179679372363619,-3.4452294648446955,6.452790305274864,2.421827174724243,-9.631410644174764,4.992415645978321
2.1452270777151723,-3.541543571286443,6.477008577022107,2.4717513311840262,-9.936560615237534,6.066100482509148
2.109811642002308,-3.6409091774388185,6.501726090333947,2.5324123360091177,-10.318792977417512,7.206005733942667
2.07340255022792,-3.7440971072129936,6.5270502136940385,2.6044723933485443,-10.788964860176895,8.4248682483328
2.03596157915579,-3.8519867558147625,6.553094937627524,2.6887210758318725,-11.359910797928684,9.738721813653921
1.9974417115976424,-3.9655858637940495,6.5799821483858425,2.786108293968412,-12.047039352339578,11.167490563845949
1.9577858529597019,-4.086056257317446,6.607843231325527,2.8977831996068715,-12.869041393645134,12.735754915626869
1.9169252903865275,-4.214746671253897,6.636821063321595,3.0251407487631403,-13.848726179083375,14.473701058580103
1.8747778236739885,-4.353233933044731,6.667072470809226,3.1698777593489416,-15.013981730760895,16.41823489655585
1.8312454843435413,-4.50337375035234,6.698771248402716,3.3340601083145,-16.39880472969191,18.614165874810404
1.7862117468400178,-4.667361797649259,6.732111849485861,3.5202017670626042,-18.044224646228116,21.11519190326985
1.7395381288635252,-4.84780404411154,6.767313867156487,3.7313536860953027,-19.998676969183602,23.984030204954394
1.6910600884224098,-5.047790813803376,6.80462740401744,3.971193988144847,-22.31679122749606,27.290200650388215
1.640582180284376,-5.270958726078336,6.844339343898889,4.244095994648729,-25.054295613638796,31.102177622968373
1.5878725930235926,-5.5215016822147245,6.886780303845376,4.555117770878413,-28.254082880227465,35.466873593238326
1.5326575762014454,-5.804042511016999,6.932331481554161,4.909786506810796,-31.91309479437749,40.361825654852105
1.4746171510912753,-6.123173458960774,6.981429346622268,5.313404763359317,-35.909597283465715,45.59127141037335
1.4133854165016675,-6.482269431795431,7.034563394255861,5.7693174774630505,-39.855097682958856,50.57580816773526
1.348562722183713,-6.88082040862502,7.092256569030492,6.275075559140403,-42.82685108237103,53.97388766105655
1.279754518097463,-7.3090889194487305,7.155007324621896,6.814814435750968,-43.000361430236424,53.16343107462012
1.2066636289029757,-7.739092533751094,7.223155468979406,7.3464487464971695,-37.52452751641106,44.06858916528746
1.1292727035654648,-8.114337808915206,7.296619956444378,7.787134638150044,-23.7102666429755,22.844580337313417
1.0481293254763129,-8.35144047534496,7.374491302825878,8.015580441523179,-2.5108899154585727,-9.196794296614058
0.9646149207228633,-8.376549374499545,7.45464710724111,7.923612498557039,18.927728222926962,-41.963650467812975
0.8808494269778678,-8.187272092270275,7.53388323222668,7.503975993878909,32.284005842535194,-63.633362556542004
0.7989767060551651,-7.864432033844923,7.6089229921654695,6.867642368313488,35.73141044151558,-71.48873390455208
0.7203323857167159,-7.507117929429768,7.677599415848604,6.152755029267968,32.90231292827916,-70.5306943234279
0.6452612064224181,-7.178094800146976,7.739126966141284,5.447448086033688,27.63881410440066,-66.12181985412806
0.5734802584209484,-6.901706659102969,7.793601447001621,4.786229887492407,22.03985210040864,-61.21605766206734
0.5044631918299187,-6.681308138098883,7.8414637458765455,4.174069310871734,16.914035655493365,-56.96525735898613
0.4376501104489299,-6.512167781543949,7.8832044389852625,3.6044167372818725,12.465570879228107,-53.66682186122041
0.3725284326334904,-6.387512072751668,7.919248606358082,3.0677485186696685,8.67490163943491,-51.292298883936866
0.3086533119059737,-6.300763056357319,7.9499260915447785,2.5548255298302998,5.460381600647879,-49.7125518211391
0.24564568134240056,-6.24615924035084,7.9754743468430815,2.0577000116189086,2.7379603392265017,-48.78102316264567
0.18318408893889215,-6.218779636958575,7.996051346959271,1.5698897799924518,0.43991799340288423,-48.359885787436575
0.1209962925693064,-6.2143804570245464,8.011750244759195,1.086290922118086,-1.4815714743895056,-48.32517309459402
0.05885248799906093,-6.229196171768441,8.022613153980377,0.6030391911721459,-3.056052346310984,-48.565112040028836
-0.0034394737186234786,-6.259756695231551,8.028643545892098,0.11738807077185753,-4.297931399641682,-48.97704941099066
-0.06603704067093899,-6.302736009227968,8.029817426599816,-0.37238242333804905,-5.209944742212275,-49.464928717273715
-0.12906440076321868,-6.354835456650091,8.026093602366435,-0.8670317105107862,-5.7866167287170995,-49.93795133552357
-0.19261275532971958,-6.412701623937262,8.017423285261328,-1.366411223866022,-6.017649011411664,-50.31052341776765
-0.2567397715690922,-6.472878114051379,8.003759173022669,-1.8695164580436985,-5.891208588901224,-50.50333982729561
-0.321468552709606,-6.531790199940391,7.985064008442231,-2.3745498563166545,-5.397030863135851,-50.4453038485694
-0.3867864547090099,-6.58576050857175,7.961318509879065,-2.8790028948023485,-4.52918981944725,-50.07587685309518
-0.45264405979472744,-6.631052406766222,7.932528480931041,-3.3797616633333005,-3.288353042054354,-49.34740046858265
-0.5189545838623897,-6.663935937186766,7.8987308642977085,-3.873235668019127,-1.6833563137446814,-48.22695519420706
-0.5855939432342574,-6.680769500324213,7.859998507617517,-4.355505219961198,0.26799546052791096,-46.69742450259681
-0.6524016382374995,-6.678089545718934,7.816443455417905,-4.822479464987166,2.5388836563201718,-44.75760904246485
-0.7191825336946889,-6.652700709155733,7.768218660768033,-5.2700555554118145,5.094053726517199,-42.42144193895218
-0.7857095407862462,-6.601760171890561,7.715518105213915,-5.694269974801336,7.890797565592733,-39.71653759196003
-0.8517271425051518,-6.522852196234633,7.658575405465902,-6.0914353507209364,10.880101960832699,-36.68241006780466
-0.9169556644674981,-6.414051176626306,7.597661051958692,-6.458259451398983,14.007777545502568,-33.36869317900995
-0.9810961762337611,-6.273973401171281,7.533078457444702,-6.7919463831890825,17.215494282333037,-29.833586906939892
-1.043835910245474,-6.1018184583479504,7.465158993612811,-7.090282252258481,20.441784052013908,-26.142581317590793
-1.1048540948289534,-5.897400617827811,7.394256171090227,-7.351708065434389,23.623182866450875,-22.36732771539927
-1.1638281010072316,-5.661168789163303,7.320739090435883,-7.575381342588382,26.695733344595666,-18.584398244713192
-1.2204397888988645,-5.394211455717346,7.24498527701,-7.761225325035514,29.5970283347844,-14.873644769864871
-1.274381903456038,-5.098241172369502,7.1673730237596445,-7.909961772734162,32.268850799418814,-11.315951866385227
-1.325364315179733,-4.775552664375313,7.088273406032303,-8.023121291398015,34.66028336170746,-7.990358181452022
-1.373119841823486,-4.4289498307582384,7.008042193118323,-8.103024873212535,36.73097558529027,-4.970744608863051
-1.4174093401310683,-4.061640074905336,6.927011944386197,-8.152732319301165,38.454128207020254,-2.32248815501459
-1.4580257408801216,-3.6770987928351335,6.845484621193186,-8.175957200851311,39.818728996717965,-0.09959245067202357
-1.494796728808473,-3.278911502867954,6.763725049184672,-8.17695312535803,40.83067177266908,1.6572082779696886
-1.5275858438371523,-2.8706047851412633,6.681955517931092,-8.160381042578335,41.51258639141291,2.921012126089322
-1.556291891688565,-2.455478921227134,6.600351707505308,-8.131170921317441,41.90244916545214,3.6778369320223767
-1.5808466809008364,-2.0364544295726126,6.519039998292134,-8.094392551997217,42.05126389780043,3.924321733295717
-1.6012112251965624,-1.6159417905946083,6.4380960727721614,-8.055149334664259,42.02024893009053,3.664315451746416
-1.6173706431025086,-1.195739301293703,6.357544579425519,-8.018506180146796,41.878008744263546,2.9047229392143734
-1.6293280361154456,-0.7769592138510675,6.277359517624051,-7.989458950754652,41.69811363853388,1.6509851183878663
-1.6370976282539562,-0.35997807746572863,6.197464928116505,-7.972949099570773,41.55738061152877,-0.09748376162536139
-1.6406974090286135,0.055595728649559084,6.117735437120797,-7.973923937187027,41.53496403725902,-2.3516348530614706
-1.640141451742118,0.47094536902214934,6.037996197748927,-7.997440285717642,41.71212021974159,-5.136603174325407
-1.6354319980518965,0.8880665712195652,5.958021794891751,-8.048806317460896,42.172139436741816,-8.494450949503578
-1.626551332339701,1.3097879655869833,5.8775337317171426,-8.133750826955932,42.999259408435535,-12.48451854772958
-1.6134534526838311,1.7397805596713387,5.796196223447583,-8.258596012433228,44.27396921138916,-17.17822503595463
-1.5960556470871177,2.1825202517852302,5.713610263323251,-8.430378262792775,46.05909991931582,-22.641023997566204
-1.5742304445692654,2.6431112509783885,5.629306480695323,-8.656788502768437,48.36473069300682,-28.88534398663914
-1.5477993320594816,3.126758557908457,5.542738595667639,-8.945641942634829,51.06730662214177,-35.760579461255496
-1.5165317464803971,3.6374316241298748,5.453282176241291,-9.303247737247384,53.737246986171094,-42.716150914046764
-1.4801574302390983,4.174804093991586,5.360249698868817,-9.730409246387852,55.31162314873625,-48.34718643985343
-1.4384093892991825,4.727920325478949,5.262945606404938,-10.213881110786387,53.614543577889734,-49.720281672370106
-1.391130186044393,5.2640657612578465,5.160806795297074,-10.711083927510089,45.144567902550435,-42.05079114954486
-1.3384895284318146,5.7155114402833505,5.053695956021974,-11.131591839005537,26.591226665380635,-20.752370782952035
-1.281334414028981,5.981423706937157,4.942380037631919,-11.339115546835057,-0.5034023132148308,12.170923369210199
-1.2215201769596096,5.976389683805009,4.828988882163569,-11.217406313142956,-26.664950393419,43.915629738354625
-1.1617562801215595,5.70974017987082,4.716814819032139,-10.77825001575941,-42.04033703901114,61.27956345370061
-1.1046588783228513,5.289336809480708,4.6090323188745455,-10.165454381222403,-45.806598126199994,63.41023495032883
-1.051765510228044,4.831270828218708,4.507377775062322,-9.531352031719114,-43.04315760272994,57.3015015686062
-1.003452801945857,4.400839252191409,4.412064254745131,-8.958337016033052,-38.11536228392216,48.78091047786286
-0.9594444094239429,4.019685629352187,4.322480884584801,-8.470527911254424,-33.11448644071113,40.52853046670175
-0.9192475531304211,3.688540764945076,4.237775605472256,-8.065242606587406,-28.744448834403396,33.3630435379763
-0.8823621454809703,3.401096276601042,4.1571231794063825,-7.731612171207643,-25.13091620274435,27.356222072759888
-0.8483511827149598,3.1497871145735985,4.079807057694306,-7.458049950480044,-22.206977000868157,22.34933271722339
-0.8168533115692238,2.927717344564917,4.005226558189506,-7.23455662330781,-19.86110689851015,18.14427291964127
-0.7875761381235746,2.7291062755798157,3.9328809919564276,-7.053113894111397,-17.98642419294893,14.563237079508706
-0.7602850753677765,2.5492420336503265,3.8623498530153135,-6.90748152331631,-16.49349347081398,11.461652346749581
-0.7347926550312732,2.3843070989421866,3.7932750377821502,-6.792864999848814,-15.310763319612931,8.72641953926057
-0.7109495840418514,2.2311994657460574,3.725346387783662,-6.705600804456209,-14.38135474804279,6.270742314872777
-0.6886375893843908,2.0873859182656296,3.6582903797391,-6.642893381307481,-13.659143123375674,4.029238966767528
-0.6677637302017345,1.9507944870318727,3.591861445926025,-6.602600991639806,-13.104975550388508,1.9543819970906686
-0.6482557853314158,1.8197447315279875,3.5258354360096273,-6.583057171668899,-12.683130758796395,0.014445458972386506
-0.630058338016136,1.6929134239400236,3.460004864292938,-6.582912717079175,-12.357903294051978,-1.8071106803436854
-0.6131292037767357,1.569334390999504,3.3941757371221466,-6.600983823882612,-12.090174852765974,-3.5109674318148882
-0.5974358598667407,1.4484326424718441,3.3281658988833205,-6.636093498200761,-11.833934133777776,-5.080224290001171
