th1 (rad),w1 (rad/s),th2 (rad),w2 (rad/s)
0.40442012647151604,0.22636790701778503,1.747251095379599,-1.98322074544732
0.40668380554169387,0.21770024828828274,1.7274188879251258,-2.0782393328727546
0.4088608080245767,0.21170917438672035,1.7066364945963983,-2.1740164097364505
0.4109778997684439,0.20853792970751828,1.6848963304990339,-2.270690131803799
0.4130632790655191,0.20833181434848164,1.6621894291809958,-2.3684084622664816
0.41514659720900393,0.211238315866195,1.6385053445583309,-2.4673301195917547
0.4172589803676659,0.21740716325824322,1.6138320433624134,-2.56762554691023
0.41943305200024833,0.22699026195788333,1.588155787893311,-2.6694778547158764
0.42170295461982715,0.24014144962855208,1.5614610093461523,-2.773083664790575
0.42410436911611266,0.25701598573710716,1.5337301726982466,-2.8786537493021855
0.42667452897348374,0.2777696502040203,1.5049436352052248,-2.986413310811595
0.4294522254755239,0.3025572736631359,1.4750795020971088,-3.0966016806924554
0.43247779821215526,0.33153044828020495,1.4441134852901842,-3.209471117282472
0.4357931026949573,0.36483406600975155,1.4120187741173595,-3.325284250210973
0.4394414433550548,0.40260119063294375,1.3787659316152499,-3.44430952962438
0.44346745526138426,0.44494557849692495,1.344322836319006,-3.56681378054091
0.4479169110463535,0.4919509063171139,1.308654698513597,-3.6930506122089923
0.45283642010952463,0.543655428935255,1.271724192391507,-3.82324296864022
0.45827297439887715,0.6000303681710262,1.2334917627051047,-3.957557515174569
0.46427327808058744,0.6609498378743502,1.193916187553359,-4.0960678471118355
0.47088277645933097,0.7261495973093606,1.1529555090822408,-4.238702749382739
0.4781442724324246,0.7951715454610453,1.1105684815884134,-4.3851751242702335
0.486095987887035,0.8672909463028465,1.066716730345711,-4.534887164810446
0.49476889735006346,0.9414245236587386,1.0213678586976065,-4.686808709615397
0.5041831425866509,1.0160208201002876,0.9744997716014525,-4.839329879053199
0.5143433507876537,1.0889410756844629,0.9261064728109205,-4.990098123159139
0.5252327615444983,1.1573509823467427,0.8762054915793291,-5.135865990730758
0.5368062713679657,1.2176615543965912,0.8248468316720216,-5.272400108596069
0.5489828869119315,1.2655777667845323,0.7721228305860609,-5.394529746650187
0.5616386645797768,1.2963255673746439,0.718177533119559,-5.496430099759137
0.5746019202535233,1.3051108683415094,0.6632132321219676,-5.572213140546874
0.5876530289369384,1.2877963948014697,0.6074911007164988,-5.616807860510879
0.600530992884953,1.2416657452692936,0.5513230221113901,-5.626954570906786
0.612947650337646,1.1660329551558823,0.4950534764023222,-5.601988820698304
0.6246079798892048,1.0624451765096985,0.43903358819533916,-5.544078589865802
0.6352324316543018,0.9343700029509101,0.38359280229668113,-5.457776030056691
0.6445761316838109,0.7864871928386197,0.3290150419961142,-5.349053847842761
0.652441003612197,0.623860380599113,0.2755245035176866,-5.224202335112189
0.6586796074181882,0.4512525340630904,0.2232824801665647,-5.088939466075192
0.6631921327588192,0.27271594318370934,0.17239308550581278,-4.947901342369291
0.6659192921906563,0.09144800582775248,0.12291407208211988,-4.804491319030884
0.6668337722489338,-0.09017016230415759,0.07486915889181103,-4.6609692195386225
0.6659320706258922,-0.27044365144116955,0.028259466696424804,-4.518654934527088
0.6632276341114806,-0.4482087393841794,-0.016927082648846077,-4.378157258782609
0.6587455467176387,-0.6226896785301995,-0.060708655236672175,-4.239580410924327
0.6525186499323368,-0.7933820113335851,-0.10310445934591544,-4.102690608542679
0.6445848298190009,-0.9599645708979412,-0.14413136543134225,-3.967041642962562
0.6349851841100215,-1.1222366670670245,-0.18380178186096788,-3.83206547742354
0.6237628174393512,-1.2800752602737895,-0.22212243663520329,-3.697135675458244
0.6109620648366133,-1.4334070935237686,-0.2590937933897857,-3.561610845670444
0.5966279939013757,-1.582191600060018,-0.29470990184649015,-3.424863868443319
0.5808060779007754,-1.7264113593759847,-0.3289585405309233,-3.2863011978243146
0.5635419643070155,-1.8660677104235068,-0.3618215525091665,-3.1453752893287503
0.5448812872027805,-2.0011797881937237,-0.393275305402454,-3.001592252544089
0.5248694893208433,-2.131785738107126,-0.42329122792789486,-2.8545161389349896
0.503551631939772,-2.2579452139698417,-0.45183638931724474,-2.703770797513272
0.4809721798000736,-2.37974251368937,-0.47887409729237745,-2.54903991207652
0.4571747546631799,-2.4972898810762962,-0.5043644964131426,-2.390065630860967
0.43220185585241694,-2.610730623332321,-0.5282651527217523,-2.2266460806080874
0.40609454961909375,-2.7202417770486726,-0.5505316135278332,-2.058631999405468
0.37889213184860704,-2.826036109981503,-0.5711179335218879,-1.8859227109006198
0.35063177074879204,-2.928363276300839,-0.5899771606308941,-1.7084616872126648
0.32134813798578366,-3.0275099504628127,-0.6070617775030208,-1.526232004617493
0.2910730384811555,-3.123798747080155,-0.6223240975491957,-1.3392520848332163
0.259835051010354,-3.217585685769443,-0.6357166183975279,-1.147572239876658
0.22765919415265956,-3.309255872298634,-0.6471923407962945,-0.9512727091238147
0.19456663542967323,-3.3992169283448956,-0.6567050678875327,-0.750464107695485
0.16057446614622428,-3.4878894961639566,-0.6642097089644875,-0.545291515259527
0.12569557118458471,-3.575693852957119,-0.6696626241170828,-0.33594384781996445
0.08993863265501353,-3.6630312739383317,-0.6730220625952824,-0.12267069656982668
0.05330831991563022,-3.750258271055818,-0.6742487695609807,0.09419049779364197
0.015805737205072036,-3.8376512167516914,-0.6733068645830442,0.3141732576873232
-0.022570774962444876,-3.925358205368056,-0.670165132006171,0.5366223539948919
-0.06182435701612544,-4.01333449273086,-0.6647989084662221,0.760610450857093
-0.10195770194343404,-4.1012578949439344,-0.6571928039576512,0.9848262171112461
-0.1429702808928734,-4.188421911229571,-0.6473445417865388,1.2074311732863419
-0.1848545000051691,-4.273608415831593,-0.6352702300536753,1.4258885550145124
-0.22759058416348502,-4.354950506012452,-0.6210113445035302,1.6367800918044817
-0.27114008922360955,-4.42981159032115,-0.6046435435854854,1.8356487229912193
-0.3154382051268211,-4.4947294846427654,-0.5862870563555732,2.0169373865398317
-0.36038549997324876,-4.545498995708368,-0.5661176824901749,2.1741286276287637
-0.40584048993033245,-4.577477104457365,-0.5443763962138872,2.300203853543741
-0.4516152609749061,-4.586163141152731,-0.5213743576784499,2.3884944519741405
-0.49747689238643344,-4.568006785422162,-0.4974894131587085,2.4338538057687913
-0.5431569602406551,-4.521244659675528,-0.47315087510102055,2.433861929407204
-0.5883694068374103,-4.446451051081337,-0.4488122558069485,2.3896107457640015
-0.6328339173482237,-4.346533696427397,-0.42491614834930846,2.3056843334104866
-0.6762992543124977,-4.226140750740397,-0.4018593050152036,2.1892860986375884
-0.7185606618199016,-4.090723540876863,-0.37996644402882773,2.048864620982001
-0.7594678972286703,-3.945617842334965,-0.35947779781900774,1.892760845593935
-0.79892407565202,-3.795407974722707,-0.3405501893630684,1.7282599522939777
-0.836878155399247,-3.6436438097003823,-0.32326758984012866,1.5611531890064887
-0.8733145934962508,-3.492835268930386,-0.3076560579500638,1.3957048437364379
-0.9082429461855547,-3.3446018188222233,-0.2936990095126994,1.2348497365794882
-0.9416889643737769,-3.1998749424292026,-0.2813505121469045,1.0804740999674232
-0.973687713798069,-3.059092781464825,-0.2705457711472303,0.9336908993780548
-1.0042786416127172,-2.9223607696350493,-0.26120886215344974,0.7950701984575592
-1.0335022493090678,-2.7895729672756704,-0.25325816016887415,0.6648154504626548
-1.0613979789818244,-2.660498499388365,-0.2466100056642476,0.542890937863117
-1.088002963975708,-2.53484052581276,-0.24118109628561643,0.4291103172753386
-1.1133513692338357,-2.4122750238062984,-0.23688999311286305,0.32319630841283
-1.1374741194718987,-2.2924753650996594,-0.23365803002873475,0.2248198998949259
-1.1603988731228954,-2.1751271922657054,-0.2314098310297855,0.13362544550773114
-1.1821501450455525,-2.059936820019948,-0.23007357657470817,0.04924625636696468
-1.202749513245752,-1.9466353991986,-0.22958111401103853,-0.028686089511895774
-1.222215867237738,-1.8349803634797044,-0.22986797490615749,-0.10053651518117654
-1.240565670872535,-1.7247551760755848,-0.23087334005796925,-0.16666380459593588
-1.2578132226332908,-1.6157680492479192,-0.2325399781039286,-0.22741956626127333
-1.27397090312577,-1.5078500771229244,-0.23481417376654132,-0.28314815180403796
-1.2890494038969993,-1.4008530670466737,-0.2376456552845817,-0.33418710943700586
-1.303057934567466,-1.2946472517325935,-0.24098752637895177,-0.38086790553923733
-1.3160044070847918,-1.1891189964705184,-0.24479620543434413,-0.4235167495129626
-1.327895597049497,-1.084168570959299,-0.24903137292947375,-0.46245542437852893
-1.33873728275909,-0.97970802600862,-0.253655927173259,-0.4980020695778784
-1.3485343630191762,-0.8756591961737346,-0.2586359478690378,-0.5304718908415104
-1.3572909549809136,-0.7719518368551701,-0.2639406667774529,-0.5601777899032058
-1.3650104733494652,-0.6685218962161488,-0.26954244467648497,-0.5874309178031004
-1.3716956923116268,-0.5653099169352676,-0.27541675385451597,-0.6125411618489636
-1.3773487914809794,-0.46225955933687535,-0.2815421654730056,-0.6358175795881021
-1.3819713870743482,-0.3593162351901464,-0.28790034126888664,-0.6575687944405544
-1.3855645494262496,-0.2564258400345296,-0.2944760292132922,-0.6781033676672225
-1.388128807826595,-0.1535335710230235,-0.3012570628899644,-0.6977301605587787
-1.3896641435368253,-0.05058281682996807,-0.3082343644955522,-0.716758699423221
-1.390169971705125,0.05248589392374614,-0.3154019514897844,-0.7354995542833856
-1.3896451127658875,0.15573589903041418,-0.32275694703261826,-0.7542647402291147
-1.3880877537755834,0.25923537652061807,-0.3302995944349094,-0.773368148069671
-1.3854954000103772,0.3630582975438318,-0.3380332759156061,-0.7931260081771087
-1.3818648170349388,0.4672853681831435,-0.3459645359973772,-0.8138573879752709
-1.3771919633531073,0.5720049675173624,-0.3541031098771299,-0.8358847190608366
-1.3714719136779336,0.6773140854839433,-0.36246195706773826,-0.8595343439268982
-1.3646987728230942,0.7833192586510703,-0.37105730050700725,-0.8851370639578451
-1.3568655802365834,0.8901374941756678,-0.3799086711465857,-0.9130286587318792
-1.3479642052948269,0.9978971610091183,-0.3890389577339045,-0.9435503302329068
-1.3379852336847358,1.106738811402455,-0.3984744610362336,-0.9770490022721443
-1.3269178455707111,1.216815872967764,-0.40824495105895503,-1.0138773723640548
-1.3147496868410335,1.3282951191828727,-0.41838372478259556,-1.0543935664716777
-1.301466735649205,1.4413567804022478,-0.42892766044731234,-1.098960180876841
-1.2870531678451824,1.5561940928233944,-0.43991726225608074,-1.1479424023432565
-1.2714912269169485,1.6730119922419564,-0.4513966862795133,-1.201704767506545
-1.254761106994529,1.792024533306862,-0.46341373395457874,-1.260605941653668
-1.2368408616614603,1.9134504413431335,-0.47601979337111544,-1.3249906489180696
-1.2177063572480291,2.03750596849067,-0.4892696998602961,-1.3951775507651853
-1.1973312975631225,2.1643939144371367,-0.5032214753679479,-1.4714414276962138
-1.175687358418751,2.294287274498889,-0.5179358896449101,-1.5539874575605552
-1.152744485673762,2.4273054998438686,-0.5334757642205157,-1.642914712692194
-1.1284714306753234,2.563480839411575,-0.5499049113474376,-1.7381652815000603
-1.1028366222812076,2.702711801839364,-0.5672865641624382,-1.839454834528189
-1.075809504262814,2.844700695798479,-0.58568111250772,-1.946180385545793
-1.0473624973048292,2.988872991271634,-0.605142916363178,-2.0573021797057787
-1.0174737673921128,3.1342787614943464,-0.6257159381602357,-2.171200314312421
-0.9861309797771693,3.2794819784123255,-0.6474279413033599,-2.2855146619363
-0.9533361599930461,3.422453343666905,-0.670283087922723,-2.3969909088900416
-0.919111626556377,3.5604972178442655,-0.6942529970116234,-2.501376852126362
-0.8835066543779344,3.6902606874448094,-0.7192667655328869,-2.593438116534148
-0.8466040475034863,3.8078844826431757,-0.7452011466982285,-2.667179190010589
-0.8085252026770545,3.909345355590799,-0.7718729385983344,-2.716341364715591
-0.7694317491211465,3.9909898809298485,-0.7990363522454903,-2.735178455831354
-0.729521850311848,4.0501691392026675,-0.8263881368038039,-2.7193819811412276
-0.6890201589198214,4.085789807977234,-0.8535819566152161,-2.6668927602095294
-0.648162260840049,4.0985714644346185,-0.8802508842173113,-2.5782974629477375
-0.6071765461957028,4.090892685148654,-0.9060338588467888,-2.4566386420006117
-0.5662676193442163,4.066282278506425,-0.9306002452667949,-2.306713147510811
-0.525604796559152,4.028753509900831,-0.9536673767419029,-2.134136563408221
-0.48531726146014376,3.982200824586084,-0.9750087423759851,-1.9444852715228427
-0.4454952532142829,3.9299934658471414,-0.9944535950912136,-1.742709838021623
-0.4061953185558115,3.8747887472581852,-1.0118806934714297,-1.5328561695318412
-0.36744743108322964,3.818514699821114,-1.0272092551667482,-1.318026708632176
-0.3292622840850185,3.7624509846965064,-1.04038952225307,-1.1004829843105834
-0.2916377742380534,3.7073490217689624,-1.0513943520961757,-0.8818065509963104
-0.2545642840203638,3.6535543681545364,-1.0602124176061387,-0.6630657251691838
-0.21802874033881842,3.601113448438062,-1.0668430748578306,-0.44496209863938707
-0.1820176058544378,3.5498590279747173,-1.0712926958442244,-0.22794809892037393
-0.14651901557469063,3.4994752146340833,-1.073572176833428,-0.012315978710459446
-0.1115242634283498,3.449545350353459,-1.0736953366205326,0.20173761245484992
-0.0770288099248152,3.39958668282608,-1.071677960495984,0.4140664371876501
-0.0430329430965544,3.3490753249674436,-1.0675372961241076,0.6245442397134973
-0.009542189846879962,3.2974643298946917,-1.0612918537269727,0.833045308826303
0.02343245345206696,3.2441970184971947,-1.0529614006387096,1.03943314886385
0.05587442363703891,3.1887171043713383,-1.042567069150071,1.2435551247188925
0.08776159468075229,3.1304766913897573,-1.030131517902882,1.4452415304068744
0.11906636159464987,3.0689428622159434,-1.0156791025988132,1.6443079589024798
0.1497557902168093,3.003603310880056,-0.9992360230097884,1.8405601529605506
0.17979182332560986,2.9339712782134564,-0.980830421480183,2.033800723103205
0.20913153610774443,2.859589908175772,-0.9604924142491509,2.2238372565378244
0.23772743518950215,2.7800360428124504,-0.9382540416837727,2.4104914308157146
0.2655277956176266,2.69492340440501,-0.9141491273756155,2.5936088049190835
0.2924770296616767,2.60390506888746,-0.8882130393264247,2.773069000371278
0.3185160803505513,2.506675110482711,-0.860482349322712,2.9487960147102132
0.3435828314553784,2.4029692909145486,-0.8309943891756099,3.1207684352662146
0.36761252436452385,2.2925646756467106,-0.7997867048229477,3.2890293462455293
0.390538171120991,2.1752780833438683,-0.7668964113604924,3.453695747975454
0.41229095195442966,2.0509633128587663,-0.7323594538807379,3.614967332809507
0.43280058508301733,1.9195071452595962,-0.6962097805526428,3.7731344839369747
0.4519956565356133,1.780824189053398,-0.658478435713273,3.928585374151965
0.4698038984261473,1.6348507297970916,-0.6191925819717534,4.0818120299381375
0.4861524057241182,1.4815378699834811,-0.578374461672372,4.233415173939735
0.5009677844239531,1.3208444176190106,-0.5360403099329747,4.38410753824288
0.5141762286001432,1.1527302293216826,-0.49219923455054587,4.534715109314578
0.5257035308933601,0.9771510799088408,-0.4468520834574001,4.686175357640424
0.5354750416924485,0.7940566845455478,-0.3999903298809958,4.8395308211073464
0.543415608537904,0.6033943479390772,-0.35159502166992235,4.995915299503048
0.5494495520172948,0.4051220154436006,-0.3016358686748919,5.156528153886937
0.5535007721717309,0.19923647407502554,-0.25007058713602254,5.322589472328906
0.5554931369124811,-0.01417462498600297,-0.19684469241273347,5.495264756243461
0.5553513906626211,-0.23484410942855688,-0.14189204485029885,5.675541886478307
0.5530029495683355,-0.4621817965541208,-0.08513662598551579,5.864035331884623
0.5483811316027943,-0.695052179518555,-0.026496272666669554,6.0606838876535525
0.5414306098076088,-0.9314461968701065,0.034110566209865974,6.264302773001767
0.5321161478389077,-1.168027682109959,0.09675359393988364,6.471959633195441
0.5204358710178081,-1.399570564197699,0.16147319027183804,6.678190220773974
0.5064401653758311,-1.6183936399747576,0.2282550924795778,6.874191518408156
0.49025622897608356,-1.8140700466734838,0.29699700766365933,7.047362566837993
0.47211552850934874,-1.9739046508371112,0.3674706333320393,7.181862263034831
0.45237648200097763,-2.0847401233777747,0.4392892559623876,7.260954179661382
0.43152908076719987,-2.1361965681938035,0.5118987977590014,7.271295952589365
0.4101671150852618,-2.124304572636673,0.584611757284895,7.2077750642020515
0.3889240693588951,-2.05345144893079,0.6566895079269155,7.076081212591062
0.36838955486958724,-1.935124502205516,0.7274503200528262,6.890985749641339
0.3490383098475321,-1.784155346429005,0.7963601775492396,6.671318776901154
0.33119675638324203,-1.6147875554778148,0.8630733653182512,6.434794322567482
0.3150488808284639,-1.4383362148107763,0.927421308543926,6.195029620905356
0.3006655186803561,-1.262630252110353,0.9893716047529796,5.960952626844181
0.2880392161592526,-1.092511265937481,1.0489811310214214,5.73758031076396
0.2771141034998778,-0.9306572962066646,1.106356934129061,5.527179075128937
0.26780753053781114,-0.7783354063521397,1.1616287248803505,5.330289543759421
0.26002417647428977,-0.6359597990475961,1.2149316203179448,5.146467630104337
0.2536645784838138,-0.5034632213028762,1.2663962966189881,4.974765246883394
0.24862994627078502,-0.3805282719251453,1.316143949087822,4.8140207813447455
0.24482466355153357,-0.26672472822977455,1.3642841569012694,4.66302487828244
0.24215741626923581,-0.16158757811165556,1.4109144056840937,4.520609441719661
0.24054154048811927,-0.06465903648219075,1.4561205001012902,4.385691299332923
0.23989495012329737,0.024490715476566713,1.4999774130946195,4.2572900082780505
0.24013985727806303,0.10625503871937418,1.5425503131774,4.1345314524829195
0.24120240766525677,0.18098917148047222,1.5838956277022294,4.016644027944651
0.2430122993800615,0.2490121837534289,1.624062067981676,3.90295129449881
0.24550242121759577,0.31061067884994165,1.663091580926664,3.792863252008888
0.2486085280060952,0.36604316713532326,1.701020213446753,3.6858673994078135
0.25226895967744845,0.4155445100505987,1.737878887440831,3.581520162771132
0.2564244047779544,0.45933011149567476,1.7736940890685424,3.4794389569676394
0.2610177058929112,0.4975996970280573,1.8084884786382187,3.3792949695910988
0.26599370286319174,0.5305406160532243,1.8422814283341298,3.280806664070074
0.271299109023724,0.5583306562176885,1.8750894949748305,3.183733954857251
0.2768824155859009,0.5811403892080904,1.906926834523403,3.08787299024185
0.2826938194779818,0.5991350829985909,1.9378055644258214,2.9930514752901716
0.2886851703079677,0.612476223138229,1.967736079178723,2.899124471587377
0.29480993253935,0.6213226883960598,1.9967273238945968,2.8059706177768673
0.3010231594233106,0.6258316260252245,2.0247870300723654,2.713488723119863
0.30728147568356284,0.6261590702631136,2.051921917303564,2.621594694229595
0.313543066386194,0.6224603451512842,2.0781378642458597,2.5302187621898855
0.3197676698377068,0.6148902897434249,2.1034400518677585,2.439302983219446
0.3259165727351411,0.6036033405129971,2.127833081699953,2.348798990863264
0.33195260614027106,0.5887535024202354,2.1513210716085855,2.2586659814608576
0.3378401411644734,0.5704942367441768,2.1739077314231943,2.168868917490223
0.3435450835319152,0.5489782904933064,2.1955964205980965,2.079376935468069
0.3490348664368483,0.5243574890255557,2.216390189952777,1.990161946554025
0.35427844132710384,0.49678251047181066,2.2362918094183173,1.9011974190011853
0.35924626643182195,0.4664026576963304,2.255303783608329,1.8124573322435922
