th1 (rad),w1 (rad/s),th2 (rad),w2 (rad/s)
5.438532088553792,1.97682599440461,4.733402192077056,-3.063471330191142
5.458300348497838,1.9710725821185686,4.702767478775145,-2.9357835870755222
5.478011074319023,1.967084075033244,4.67340964290439,-2.8082454544901934
5.497681915069355,1.9652722944348209,4.645327188359488,-2.68118233745409
5.517334638013704,1.9659041536964064,4.6185153649849475,-2.554741909688217
5.536993679550668,1.9691361068203437,4.5929679458880655,-2.428939927003375
5.556685040618872,1.9750418186543333,4.568678546618032,-2.303696943343051
5.576435458805415,1.9836336498925053,4.545641577184601,-2.17886685820103
5.59627179530434,1.9948788987429005,4.523852908602591,-2.0542586523745414
5.616220584291769,2.0087117933778424,4.503310322078845,-1.9296527071929606
5.6363077022255474,2.0250421396988534,4.484013795006915,-1.8048129583737673
5.656558123622536,2.043761386804987,4.465965665423178,-1.6794959279528192
5.676995737490586,2.0647467243236934,4.44917070614365,-1.5534574668655021
5.697643204733823,2.087863692575101,4.433636131474995,-1.4264578533406476
5.718521841659574,2.112967675726107,4.4193715529415885,-1.298265736710644
5.739651518416835,2.139904560135662,4.406388895574482,-1.1686612920842954
5.761050564018191,2.1685107725216946,4.394702282653639,-1.037438854445135
5.782735671743408,2.1986128619767404,4.384327894109187,-0.9044092259838052
5.8047218003631755,2.230026752824528,4.375283801849349,-0.7694017929298356
5.827022067891421,2.2625567688514865,4.367589783920051,-0.632266543608891
5.849647635579935,2.295994511083814,4.361267118483962,-0.49287604453904454
5.872607580690773,2.3301176590143204,4.356338358038571,-0.35112740349885885
5.895908757280917,2.364688757422586,4.352827084003582,-0.20694422573133336
5.9195556448551425,2.3994540464062464,4.350757641746269,-0.06027855042903871
5.943550185319205,2.4341423899213908,4.3501548562419785,0.08888726153509685
5.9678916092184195,2.4684643571651503,4.35104372885733,0.24053873156453875
5.992576252790071,2.5021115108031844,4.353449116172976,0.3946276138060524
6.017597367898103,2.5347559557271073,4.3573953923110365,0.5510704568924264
6.042944927455374,2.5660502011798156,4.362906096879961,0.7097474496307614
6.068605429467173,2.5956273872397326,4.370003571376269,0.8705016289778744
6.09456170333957,2.623101923409122,4.378708587666047,1.0331385318398227
6.120792722573661,2.648070582083765,4.389039972984445,1.1974263727030443
6.147273428394499,2.6701140827505525,4.401014236711476,1.3630968266381744
6.173974569222004,2.688799193712427,4.414645204977858,1.5298464916726224
6.200862561159128,2.70368136691211,4.429943669894584,1.697339095857249
6.227899374828249,2.7143079080390615,4.446917060853156,1.8652085026153715
6.25504245390864,2.720221668658957,4.46556914587931,2.033062553325116
6.2822446705952295,2.7209652297721147,4.485899771412561,2.2004877688118762
6.30945432289295,2.7160855272180906,4.50790464910068,2.3670549118602335
6.336615178165131,2.705138848987428,4.531575198219282,2.532325391403498
6.363666566655005,2.6876961131322332,4.556898452133317,2.6958584661822957
6.390543527786328,2.663348313022962,4.5838570367951395,2.8572191819177384
6.417177010916557,2.63171199473332,4.6124292286143165,3.0159869520544538
6.443494130863891,2.5924346100567623,4.642589098134861,3.171764668677682
6.469418476964458,2.545199568965392,4.674306744821638,3.324188208293085
6.494870472654112,2.489730798321743,4.707548626904568,3.4729361780489705
6.51976778063733,2.425796600643141,4.742277988685058,3.617739733264657
6.5440257466437615,2.353212599115312,4.778455386017704,3.758392288701687
6.567557872634914,2.271843554265036,4.816039308904721,3.8947589460107137
6.590276308177565,2.1816038449376878,4.854986898364828,4.026785470428214
6.612092346626942,2.082456422254591,4.895254753069111,4.1545066731678935
6.632916910849488,1.9744100701350153,4.93679981980079,4.27805409371482
6.652661011550839,1.857514838958665,4.979580360737938,4.397662929324078
6.671236159940426,1.7318555582230757,5.023556990031178,4.513678227379661
6.688554715522656,1.5975433768866094,5.068693772304974,4.626560438579013
6.704530149291522,1.454705323096786,5.114959376690765,4.736890522475414
6.71907720252249,1.3034719147108529,5.162328281915519,4.8453748974999495
6.732111921669598,1.1439628857765216,5.210782030890519,4.952850629165455
6.743551550527363,0.9762711215381171,5.260310537182173,5.060291344236517
6.753314261742744,0.800444919492673,5.310913450624538,5.168814432715323
6.761318710937672,0.6164687281485846,5.362601594951691,5.279690133642845
6.767483398219158,0.424242583278133,5.41539849628812,5.394353060974923
6.771725824051939,0.22356061135238137,5.469342026897869,5.514416551338092
6.773961430165462,0.01408928948855892,5.52448619241125,5.641689794783218
6.774102323060347,-0.20465319968672982,5.580903090359082,5.77819683659358
6.77205579106348,-0.4333139128177085,5.638685058725018,5.92619483176478
6.767722651935303,-0.6727133797569486,5.697947007042666,6.088185693395861
6.760995518137734,-0.9238356419266047,5.758828863976625,6.26690922726267
6.7517571617184675,-1.1877824273470483,5.821497956249251,6.465294713641852
6.7398793374449975,-1.465659121908647,5.88615090338567,6.68632778180409
6.725222746225911,-1.7583346881272954,5.953014181203711,6.932754139823812
6.707639399344638,-2.0659758077540675,6.022341722601949,7.206483205990873
6.686979641267097,-2.3871946419801384,6.094406554661858,7.507468402779907
6.663107694847296,-2.717586192106067,6.169481238689657,7.831747999651489
6.635931832926236,-3.0474482304402994,6.247798718686171,8.16834332436636
6.605457350621832,-3.3588213052271065,6.329482151929835,8.495170218681174
6.5718691375695615,-3.623134928257011,6.4144338541166475,8.775687653256586
6.535637788286992,-3.802919847691113,6.502190730649214,8.961005076790256
6.49760858981008,-3.862217267236921,6.591800781417116,9.003814236320915
6.458986417137711,-3.7847586413783234,6.681838923780325,8.88290284715905
6.421138830723928,-3.586360927653389,6.770667952251916,8.61971117372956
6.385275221447394,-3.307109923725151,6.856865063989211,8.267395255812467
6.352204122210142,-2.9903091390487733,6.939539016547336,7.882299968052571
6.322301030819654,-2.6676001461175085,7.0183620162278615,7.5043163136505
6.295625029358479,-2.3565891029135635,7.093405179364367,7.154295820780974
6.272059138329343,-2.064813884796407,7.164948137572177,6.839802471886158
6.251410999481379,-1.794170430517688,7.233346162291038,6.56121465318385
6.233469295176202,-1.5438841850451173,7.298958308822877,6.315709436973764
6.218030453325751,-1.3121382722183164,7.362115403192615,6.099380753471719
6.204909070603568,-1.0968679320771022,7.423109210727332,5.908229173258823
6.193940391282797,-0.8961111746727444,7.48219150245992,5.7385667572627765
6.184979279536069,-0.7081414702682632,7.539577170032548,5.5871444024116625
6.177897864833387,-0.5314995641599977,7.595448614056664,5.451157500164214
6.172582869191787,-0.3649818474182197,7.649960189058307,5.328204270878671
6.168933050717605,-0.20761241015461374,7.703242231767094,5.216230587054278
6.166856926616059,-0.05861107408032132,7.755404537637637,5.113475706922446
6.166270815875255,0.08263738646326413,7.8065392947068615,5.018424338938943
6.167097189739888,0.21661093127206418,7.856723538096251,4.929766427023586
6.169263299052608,0.3436744273303034,7.906021202366487,4.8463643499934825
6.172700043325912,0.4641005009031202,7.954484845866422,4.7672266055796735
6.1773410483349425,0.5780874708788385,8.00215711192222,4.691486902891639
6.183121923043731,0.6857747937571628,8.049071980951135,4.618387638315566
6.189979670981303,0.7872564047401722,8.09525585733429,4.547266851189068
6.197852235028704,0.8825922698591121,8.140728525846182,4.477547891486382
6.206678157727295,0.9718183940253298,8.185504004761047,4.408731159959047
6.216396341667549,1.0549554690949785,8.229591316360636,4.340387394665026
6.226945896358499,1.1320162978575719,8.272995190307286,4.272152075978379
6.238266059337075,1.203012094624385,8.31571671106707,4.203720606726122
6.250296180283319,1.267957739695928,8.357753917134332,4.134843997241034
6.262975757680278,1.3268760516628522,8.399102357106742,4.065324848740504
6.276244518196906,1.3798011362039362,8.439755605594147,3.9950134838927647
6.290042529558946,1.426780870686649,8.479705740433074,3.923804121536392
6.304310338265812,1.46787858841767,8.518943781648439,3.851631033695937
6.318989124149988,1.5031740329691574,8.557460091985398,3.7784646574621683
6.33402086447968,1.532763660006993,8.59524473856002,3.7043076620691
6.349348501079749,1.5567603701651096,8.63228781518071,3.6291909927336583
6.3649161047814005,1.5752927607878562,8.668579725108048,3.5531699277914988
6.380669032389279,1.5885039862003891,8.704111424385962,3.4763201948067097
6.396554072251283,1.5965503153063823,8.73887462633403,3.3987341952812895
6.412519575404347,1.5995994717937052,8.772861968286842,3.3205173871271514
6.428515570122284,1.597828836333271,8.806067142158113,3.2417848700811356
6.444493858485616,1.5914235823355702,8.838484990858925,3.1626582126793785
6.460408094308972,1.5805748076335195,8.870111572985719,3.083262551180633
6.476213842385308,1.565477714470664,8.900944198497525,3.0037239817837085
6.491868619530014,1.5463298799474214,8.930981438315362,2.924167258349937
6.507331918329489,1.5233296491052335,8.96022311089886,2.8447137992010556
6.522565214820541,1.496674673506023,8.988670248890871,2.765479998844638
6.537531961555601,1.4665606097831727,9.016325048879319,2.6865758339601102
6.552197567653432,1.4331799853850298,9.04319080721892,2.6081037477981095
6.5665293675072824,1.3967212326901401,9.069271844696901,2.530157793329057
6.5804965798341835,1.3573678878500564,9.094573422630193,2.452823012958126
6.594070258712684,1.3152979470513309,9.119101652759774,2.3761750312747774
6.607223238183197,1.2706833702780684,9.142863403072521,2.3002798369579853
6.619930071885977,1.2236897209665847,9.165866201442102,2.225193730427243
6.6321669690956435,1.1744759290272107,9.188118138746374,2.150963414926855
6.643911728385915,1.1231941644164325,9.209627772895642,2.077626210279898
6.655143670030079,1.0699898086339625,9.230404034998442,2.005210370390194
6.6658435681164185,1.0150015120657283,9.250456138702344,1.9337354875703572
6.675993583237076,0.958361325883406,9.269793493578048,1.8632129688207792
6.68557719649591,0.9001948981500698,9.288425623266255,1.7936465711917344
6.694579145477411,0.8406217247935497,9.306362088978172,1.7250329852640676
6.702985362725346,0.7797554471343481,9.323612418830812,1.6573624575379287
6.710782917196689,0.7177041886482699,9.340186043406192,1.5906194440944226
6.717959959083172,0.6545709245724876,9.356092237847136,1.5247832892753208
6.724505668328897,0.5904538788051251,9.371340070739889,1.4598289243042524
6.7304102071169485,0.5254469432882753,9.385938359982932,1.3957275817492243
6.735664676549831,0.45964011569469815,9.399895635800425,1.3324475225058519
6.740261077706778,0.3931199517560747,9.413220111025483,1.2699547725712663
6.744192277224339,0.32597002897590716,9.425919658751196,1.208213867290012
6.747451977514098,0.25827141876578597,9.438001797424096,1.1471886009958556
6.750034691701756,0.19010316423447954,9.449473683434055,1.0868427800581584
6.751935723344101,0.12154276095120814,9.460342111234636,1.027140977279287
6.753151150953613,0.0526666380047867,9.47061352100743,0.9680492853915955
6.753677817333661,-0.016449363402631353,9.480294013861345,0.9095360670804034
6.753513323699635,-0.08572951674528194,9.489389374532148,0.851572698525538
6.752656028532182,-0.15509774548506416,9.497905101517404,0.7941343029221689
6.751105051077332,-0.2244771703135977,9.505846444546625,0.7372004698274364
6.748860279374195,-0.29378967204305184,9.5132184492449,0.6807559555007623
6.745922382653765,-0.36295547419484797,9.520026008799906,0.6247913586835251
6.742292827911816,-0.4318927496719076,9.526273922386741,0.5693037655219134
6.737973900415097,-0.5005172562236146,9.53196696004196,0.5142973566024914
6.732968727852861,-0.568742005703161,9.537109933607985,0.459783968373747
6.727281307795829,-0.636476972353478,9.541707773291723,0.40578360060197727
6.720916538072294,-0.7036288455190749,9.545765609297742,0.35232486099184995
6.7138802496171035,-0.7701008322455756,9.54928885790766,0.2994453377276883
6.706179241294648,-0.8357925151764584,9.552283311284937,0.24719189049777265
6.697821316142884,-0.9005997709694531,9.554755230189913,0.19562085058598044
6.688815318433189,-0.9644147541184677,9.556711438695773,0.14479812088474242
6.679171170892005,-1.027125950570346,9.558159419904621,0.09479916722710466
6.668899911386301,-1.0886183048641505,9.559107411576893,0.045708893272829475
6.65801372833766,-1.148773423695237,9.559564500509621,-0.002378607676064952
6.646525994100708,-1.207469857825326,9.559540714432861,-0.04936042911199894
6.634451295522455,-1.2645834631384856,9.55904711014174,-0.09512535945992068
6.62180546089107,-1.3199878404040326,9.558095856547142,-0.13955452336940277
6.60860558248703,-1.3735548519800007,9.556700311313449,-0.18252215539089722
6.59487003396723,-1.4251552123097688,9.55487508975954,-0.2238965028678288
6.580618481844133,-1.4746591476685278,9.552636124730862,-0.26354085236173425
6.565871890367448,-1.521937119246518,9.550000716207244,-0.3013146713649967
6.5506525191749825,-1.566860602353558,9.546987569493593,-0.33707485451750047
6.534983913151447,-1.6093029133332981,9.543616820948419,-0.3706770611037853
6.518890884018115,-1.6491400747206617,9.539910050337381,-0.4019771283379787
6.502399483270908,-1.6862517082906285,9.535890279054001,-0.43083254291131895
6.485536966188002,-1.7205219449518871,9.531581953624888,-0.45710395153927497
6.4683317467384835,-1.7518403399474214,9.527010914109496,-0.4806566898489744
6.450813343339009,-1.7801027815396315,9.522204347211007,-0.5013623079272019
6.433012315523612,-1.805212381275779,9.517190724131735,-0.5191000702259068
6.414960191710854,-1.8270803340390662,9.511999723429476,-0.5337584073046069
6.396689388370463,-1.845626736374936,9.506662139356429,-0.5452362970746519
6.378233121006714,-1.8607813520215293,9.501209776385682,-0.5534445537871667
6.359625307486499,-1.8724843141472305,9.49567533084781,-0.5583070039561175
6.340900464345027,-1.8806867544878891,9.490092260808249,-0.5597615297078292
6.322093596800148,-1.8853513503661754,9.48449464551117,-0.5577609616744534
6.303240083296486,-1.886452781455069,9.478917035894424,-0.5522738054778661
6.284375555481935,-1.8839780891118787,9.473394297839645,-0.5432847880604864
6.265535774590816,-1.877926932159347,9.46796144995904,-0.530795212590765
6.246756505269222,-1.8683117341319746,9.462653497833132,-0.5148231133849752
6.228073387927902,-1.8551577182475736,9.457505266699282,-0.49540320522432846
6.209521810745427,-1.8385028277158357,9.45255123464704,-0.47258662458515843
6.191136782468268,-1.8183975304649889,9.447825368401187,-0.44644046361177625
6.172952807163618,-1.79490450895702,9.44336096376507,-0.41704710110935167
6.155003762074048,-1.768098237466101,9.439190492753976,-0.38450333836876094
6.137322779699387,-1.7380644509981213,9.43534545937029,-0.34891935119409645
6.119942135189405,-1.7048995119038841,9.431856265858348,-0.3104174730094659
6.102893140070367,-1.668709682144287,9.428752091128255,-0.26913082728449134
6.086206043248924,-1.6296103110502989,9.42606078285541,-0.22520183063642318
6.069909940138421,-1.5877249502213289,9.423808764549046,-0.1787805907335171
6.054032690636208,-1.543184408853255,9.42202095864171,-0.13002322543115552
6.038600846547675,-1.496125764209767,9.420720726387398,-0.07909013131736592
6.023639588905578,-1.4466913430778658,9.419929825074224,-0.026144230939848856
6.009172675474799,-1.3950276908178694,9.419668382764826,0.028650771634677892
5.995222398566621,-1.3412845449801594,9.419954890481172,0.08513209765585499
5.981809553116819,-1.2856138303821718,9.42080621145773,0.14313953478896863
5.968953414812997,-1.2281686920069197,9.42223760680562,0.2025169862270562
5.956671727892928,-1.1691025811077649,9.42426277666789,0.2631139041206974
5.944980702081851,-1.1085684085143248,9.426893915709096,0.3247865867693185
5.933895017996707,-1.0467177773828125,9.43014178157679,0.38739932261964677
5.923427840222879,-0.9837003055894242,9.434015774802987,0.45082536804165746
5.913590837166985,-0.9196630457089886,9.438524028483403,0.5149477499486848
5.9043942067098945,-0.8547500081417394,9.44367350598289,0.5796598884428454
5.895846706628477,-0.7891017905393042,9.449470104867318,0.6448660386528348
5.887955688723084,-0.7228553143235994,9.455918765253847,0.7104815546566708
5.880727135579848,-0.656143666867467,9.463023580800414,0.7764329817366514
5.874165698911173,-0.5890960458792004,9.47078791061778,0.8426579861133288
5.8682747384523815,-0.5218378007549633,9.479214490478913,0.909105133693978
5.863056360444832,-0.45449056416718164,9.488305541815853,0.9757335312221369
5.85851145480316,-0.38717246596010846,9.498062877128074,1.0425123445291393
5.854639730143559,-0.3199984205268775,9.508488000573365,1.1094202093914143
5.85143974593829,-0.2530804782323743,9.51958220266728,1.176444550834145
5.848908941155966,-0.18652823109859018,9.53134664817562,1.2435808266535286
5.847043658844981,-0.12044926285055393,9.543782456442155,1.3108317105274283
5.845839166216475,-0.054949633492606634,9.55689077354743,1.3782062294240927
5.845289669881549,0.009865611194899218,9.570672835841671,1.4457188691781202
5.845388325993498,0.07389191452115204,9.585130024533452,1.5133886611563505
5.846127245138709,0.13702467700076867,9.600263911145015,1.5812382619523364
5.847497491908717,0.19915872618178265,9.61607629376454,1.649293037086854
5.849489079170535,0.2601877962197326,9.632569224135407,1.7175801588043693
5.852090957132733,0.3200040248265872,9.649745025723451,1.7861277272820215
5.855290997380998,0.37849747485748464,9.66760630299627,1.8549639239384814
5.859075972129573,0.43555568748172124,9.686155942235656,1.9241162050646186
5.86343152900439,0.49106327361941643,9.705397104286302,1.9936105437059373
5.868342161740584,0.5449015501067745,9.725333209723361,2.0634707276085935
5.873791177241651,0.59694822686866,9.745967916999447,2.13371772108818
5.879760659510338,0.6470771512081827,9.767305094210329,2.2043690988770877
5.88623143102242,0.6951581151434785,9.789348785199099,2.2754385603285434
5.893183012173854,0.7410567315000495,9.812103170802384,2.346935532773134
5.900593579488855,0.7846343841655322,9.835572526130116,2.418864873300523
5.90843992333051,0.8257482574903985,9.859761174863122,2.491226678733753
5.916697405905414,0.8642514492268275,9.88467344165046,2.5640162140303016
5.925339920397683,0.8999931705902413,9.910313603790762,2.6372239697343125
5.9343398521035855,0.9328190359542794,9.936685843488105,2.7108358593681063
5.943668042463128,0.9625714433019839,9.963794202081786,2.784833567739075
5.953293756896148,0.9890900448090276,9.991642537759176,2.8591950610047783
5.963184657344239,1.0122123047908955,10.020234488369224,2.9338952689460216
5.973306780392147,1.0317741396768194,10.049573441058685,3.0089069492176335
5.983624521788916,1.047610631664073,10.079662510550861,3.0842017423683212
5.994100628105556,1.0595568042587313,10.110504527974545,3.159751425154509
6.004696196148144,1.0674484440446776,10.14210204222609,3.2355293681555093
6.015370680588591,1.0711229487849119,10.174457335907645,3.31151220199843
6.02608191007644,1.07042017741442,10.207572457927629,3.3876816947282737
6.036786111850584,1.0651832727204573,10.241449274874912,3.4640268411612007
6.047437944577789,1.0552594226316858,10.276089543286524,3.5405461636312303
6.0579905388041055,1.0405005211732563,10.311495004922836,3.617250222623082
6.068395544015838,1.020763685416786,10.347667507149067,3.694164335661383
6.078603180870006,0.9959115802822146,10.38460915050568,3.7713315038250976
6.088562296672828,0.96581249893313,10.422322465543932,3.8488155477365167
6.09822042166216,0.9303401428143778,10.460810621021297,3.926704459223066
6.107523823090304,0.889373042127952,10.500077665613528,4.005113981469082
6.1164175535115834,0.842793554687356,10.54012880542822,4.0841914397660135
6.124845489058457,0.7904863785233716,10.58097071982588,4.164119857319682
