th1 (rad),w1 (rad/s),th2 (rad),w2 (rad/s)
4.980322268754755,0.3786132432581126,0.5624962307661858,-0.9281271181457087
4.984108401187336,0.4734491906986957,0.5532149595847288,-0.9542292780821451
4.988842893094323,0.5684413491394581,0.5436726668039074,-0.9814861575700244
4.994527306585717,0.6635781403872395,0.5338578052282071,-1.010175564573086
5.00116308798959,0.7588589245234612,0.5237560495824762,-1.0405767013622187
5.008751677234825,0.8542952778211135,0.5133502825688541,-1.072970451359041
5.017294630013036,0.9499123486283294,0.5026205780552636,-1.107639875798049
5.0267937534993195,1.0457503104255905,0.4915441792972831,-1.144870953870934
5.037251256603575,1.1418659345491948,0.48009546975857376,-1.1849536047526747
5.048669915949067,1.2383343091022219,0.468245933711047,-1.228183035345309
5.061053259040089,1.3352507354633787,0.4559641033575939,-1.274861463811901
5.074405766394723,1.4327328396638874,0.4432154887194749,-1.325300276110577
5.088733094791362,1.5309229428173725,0.42996248595836917,-1.379822680852609
5.104042324219535,1.6299907427830553,0.41616425914984306,-1.4387669369044516
5.120342231647366,1.730136368226308,0.40177658978079855,-1.5024902380821477
5.137643595329629,1.8315938759000965,0.38675168739997706,-1.5713733495980877
5.1559595340886295,1.9346352715950603,0.3710379539039962,-1.6458261006123303
5.17530588680458,2.0395751433794307,0.3545796928978729,-1.7262938443244573
5.195701638238374,2.146775999827113,0.33731675445462833,-1.8132649977984665
5.217169398236645,2.256654401135689,0.3191841044766437,-1.9072797614223365
5.239735942248002,2.369687948908846,0.3001113068624203,-2.0089400806653996
5.263432821737091,2.4864231461238546,0.2800219060557663,-2.1189208297923976
5.288297053198329,2.6074840267163952,0.25883269775784234,-2.2379820322666037
5.314371893465493,2.733581239813986,0.23645287743517632,-2.3669816232045244
5.341707705863633,2.865520880222865,0.21278306120313106,-2.5068876976628673
5.370362914665861,3.004211652492942,0.18771418422650238,-2.658788189644133
5.4004050311907905,3.150667715563696,0.16112630233006103,-2.8238941744464174
5.431911708346427,3.3060023982323647,0.13288736058559686,-3.003529947623264
5.464971732328751,3.471404273220472,0.10285206110936422,-3.1990978246222266
5.499685775060955,3.6480808291302713,0.07086108286314195,-3.4119968230675273
5.536166583352258,3.837144716887353,0.03674111463246668,-3.6434599756333834
5.574538030521131,4.0394014825353874,0.0003065148761328476,-3.8942524694361427
5.614932045346485,4.254974801965047,-0.03863600981822858,-4.164140680564692
5.657481793366136,4.482679043711768,-0.0802774166238755,-4.451005458738422
5.702308583803254,4.719038013394045,-0.12478747121125972,-4.749457767272695
5.749498963937195,4.9569086566197065,-0.17228204888398665,-5.048899345801416
5.799068050503392,5.183920952855701,-0.22277104234200082,-5.331326624090618
5.850907260031949,5.381551409692658,-0.276084308582907,-5.570029606760343
5.904722774128876,5.526532651985819,-0.3317846046505104,-5.731583782986372
5.959988100648735,5.596478549794094,-0.3891004424803741,-5.7837833330901836
6.015952886146676,5.5790956512756615,-0.446938275811276,-5.708634925023346
6.071743842659433,5.479375676985457,-0.5040246250615095,-5.512529348243824
6.126537599429287,5.3180499465665205,-0.5591499185439477,-5.224134267346898
6.179718098894953,5.122035108235866,-0.6113912612174167,-4.88101315154927
6.2309384499773115,4.9147884644999085,-0.6602013927329095,-4.516078539028771
6.280086334622311,4.712082826673196,-0.7053621781231971,-4.15162133970161
6.327207162889043,4.522478462676919,-0.7468783915202132,-3.799922094036333
6.372431947515812,4.34953777927754,-0.7848776124605765,-3.4663160584084673
6.415927325308588,4.193912326983086,-0.8195407730446612,-3.152094379789744
6.457866448578419,4.05476696355861,-0.8510617168425587,-2.8564888499815333
6.498414118214005,3.9306138387224494,-0.879626605342374,-2.577837763428663
6.537720256601229,3.8197564901753536,-0.9054049829766606,-2.314209871086842
6.5759178215029825,3.720507681416811,-0.9285470816875291,-2.063713238234456
6.613122898317151,3.6312851052224118,-0.9491842140698736,-1.8246334118979723
6.649435749369375,3.55064456994409,-0.9674305481888533,-1.595483580131987
6.684942195068816,3.477282980436336,-0.9833853839901732,-1.375011519411764
6.719715024873179,3.4100280262239986,-0.9971354991842908,-1.162186757237809
6.753815305135419,3.347823161659011,-1.008757366756669,-0.956179823877295
6.787293536752009,3.2897120651858867,-1.018319164995442,-0.7563393745599821
6.8201906574038675,3.234824482055437,-1.0258825587410418,-0.5621698136646056
6.852538902224422,3.182364190432842,-1.031504256877688,-0.3733104628544226
6.88436254412875,3.1315992511807953,-1.0352373615062322,-0.18951654427051753
6.915678536640558,3.081854424422645,-1.0371325269489373,-0.010641904277223169
6.946497080884785,3.0325055132481142,-1.0372389459917095,0.16337672512800433
6.976822136017266,2.9829753496268383,-1.0356051787404295,0.3325341511438148
7.006651889513535,2.932731130248002,-1.0322798372289914,0.4967700268261469
7.035979200816015,2.881282820795123,-1.0273121369607299,0.6559811881545294
7.064792029023966,2.8281823664928134,-1.0207523250791846,0.8100331203645921
7.093073852688894,2.773023470187625,-1.0126519938755387,0.958770608137997
7.120804087390771,2.7154417247770923,-1.0030642877941587,1.102027589183518
7.147958504638542,2.6551149135616785,-0.9920440119023235,1.2396362061569124
7.174509653774159,2.591763319485494,-0.9796476498407544,1.371435037504614
7.200427286969013,2.525149911697556,-0.9659332994657083,1.49727648250746
7.225678786085989,2.455080304776174,-0.9509605346406337,1.617033277839969
7.250229589133751,2.3814024116334487,-0.9347902018622339,1.7306041303972641
7.274043613250085,2.304005734898158,-0.9174841605582613,1.837918462016017
7.297083670599067,2.2228202629176446,-0.8991049759381011,1.9389402742503765
7.319311873228243,2.1378149550569154,-0.8797155731955973,2.0336711541035046
7.340690022778812,2.04899581655586,-0.8593788616545623,2.1221524535088494
7.361179980944371,1.956403575897062,-0.8381573371194738,2.2044666857769104
7.380744016703342,1.8601109876780608,-0.8161126702617048,2.2807381909382602
7.399345126580123,1.760219791730302,-0.7933052883523222,2.35113312900025
7.416947324497426,1.6568573650829985,-0.7697939570623197,2.4158588658793887
7.433515898148256,1.5501731077070355,-0.7456353684035257,2.4751628215556543
7.4490176292253265,1.440334606080897,-0.7208837401879692,2.5293308541937245
7.463420975286136,1.3275236206666803,-0.695590431646032,2.5786852578786323
7.476696211492802,1.2119319444088328,-0.6698035790672456,2.6235824553774623
7.488815530936891,1.0937571792941696,-0.643567754513471,2.664410470979353
7.499753102729833,0.9731984766780349,-0.6169236498036775,2.7015862718752954
7.509485087496613,0.8504522842875799,-0.5899077870849245,2.7355530695296704
7.517989610339489,0.725708138365906,-0.5625522563896278,2.7667776748571846
7.525246691723148,0.5991445331769261,-0.5348844796410559,2.7957480025781343
7.531238137054918,0.4709248919878142,-0.5069269996152745,2.8229708207951707
7.535947385974796,0.34119365371926935,-0.4786972914073228,2.8489698416513836
7.539359322511989,0.2100724778390107,-0.450207592990809,2.8742842480635704
7.5414600472903786,0.07765655699748422,-0.4214647505101733,2.8994677502721893
7.5422366128603535,-0.0559889873299739,-0.3924700730074514,2.925088264695908
7.541676722987054,-0.19083266595318366,-0.36321919036049233,2.951728306735049
7.539768396327522,-0.32688019495545784,-0.33370190729314186,2.9799861890763517
7.536499594377968,-0.4641781508401994,-0.30390204540237836,3.01047811784448
7.531857812869566,-0.6028177922842083,-0.2737972642239336,3.0438412803402253
7.5258296349467235,-0.7429391449474119,-0.24335885142053132,3.0807380190787947
7.51840024349725,-0.884735453677297,-0.21255147122974338,3.121861185111812
7.509552888960477,-1.0284581068995033,-0.18133285937862526,3.1679407547811484
7.499268307891482,-1.174422125257436,-0.14965345183081377,3.2197517701410443
7.487524086638907,-1.3230122707080403,-0.11745593412940333,3.2781236103061575
7.474293963931827,-1.4746897561453007,-0.08467469802634175,3.3439504947530203
7.459547066370374,-1.6299993897492733,-0.05123519307881155,3.418202918643259
7.443247072472881,-1.7895767222587526,-0.01705316389237896,3.501939353722496
7.4253513052502935,-1.9541542934194032,0.017966229644846003,3.5963168957718104
7.4058097623161,-2.1245652506370676,0.053929398602564106,3.7025983969273626
7.3845641098097285,-2.301741194583549,0.09095538257183773,3.8221516460451728
7.3615466978638935,-2.486698691020067,0.12917689903228946,3.956432787307138
7.3366797109536925,-2.6805048320937694,0.16874122690536084,4.106940490608589
7.309874662632755,-2.8842055631304606,0.2098106318114467,4.275118037031174
7.28103260700145,-3.098689918425188,0.25256181218175844,4.462165625218282
7.250045707817198,-3.3244476150751243,0.2971834684339413,4.668703095177482
7.216801231666446,-3.561157138084664,0.3438704993857161,4.894194535994666
7.181189660285599,-3.807023567203718,0.3928124447456628,5.136020672395847
7.1431194246135625,-4.057795031286337,0.44417265146962126,5.388097555346614
7.1025414743007,-4.3054870565105885,0.4980536270230874,5.639079550203276
7.059486603735594,-4.537149139803758,0.5544444225251202,5.870611117603894
7.0141151123375565,-4.734607512151799,0.6131505337011591,6.056932835305956
6.9667690372160385,-4.876751582758233,0.6737198620542186,6.16803933787391
6.918001521388456,-4.945493102088444,0.7354002554329577,6.177981425325745
6.868546590367572,-4.933670943225179,0.7971800696862151,6.075913099348823
6.81920988093532,-4.849496663545674,0.8579392006797034,5.872337667347267
6.770714914299863,-4.713224055519085,0.9166625773531761,5.594522701391807
6.723582673744672,-4.5485514542908625,0.9726078043670943,5.274580525197464
6.678097159201763,-4.375295811787998,1.025353609619069,4.93931956648442
6.634344201083883,-4.20665583815336,1.074746805283913,4.606468198511468
6.59227764270235,-4.049902628147203,1.1208114872690278,4.285642831565694
6.551778616420878,-3.908219131215922,1.1636679155846847,3.980894649287099
6.512696425108719,-3.7823715208945177,1.2034768620775558,3.693014639756513
6.474872709899774,-3.6718548572876313,1.2404070084751209,3.4211081951246283
6.4381541613268976,-3.5755769581530408,1.274618090426367,3.16353192734722
6.4023983917453675,-3.492232656570908,1.3062534096998393,2.918404941147004
6.367476065179658,-3.4204939754999555,1.3354374591113094,2.6838684237192814
6.333271125424658,-3.359097926601699,1.3622761433485022,2.4582061554196515
6.299680146158641,-3.3068799802544695,1.3868582049026987,2.239891819448193
6.266611346356097,-3.2627800132274003,1.4092571230971807,2.0275996306048985
6.233983546223823,-3.2258352213060073,1.4295331194032297,1.8201978357314936
6.201725194010763,-3.1951676358953485,1.4477350977605445,1.6167352350780486
6.16977351765181,-3.1699701675834824,1.4639024501113251,1.4164257848909052
6.138073815975975,-3.1494931172967884,1.478066707960234,1.2186336332643934
6.106578884803008,-3.1330320555003186,1.490253044292878,1.0228595246343883
6.075248564248004,-3.1199174353636394,1.500481639539222,0.8287287860497966
6.044049389894368,-3.109506039055408,1.50876892739972,0.6359807575811968
6.012954329503813,-3.1011742284692283,1.515128734975532,0.4444593766354463
5.9819425872191205,-3.0943129132155347,1.5195733287418864,0.2541045790944825
5.950999458086965,-3.088324122508314,1.5221143745328312,0.06494418995369863
5.920116216861882,-3.082619054273028,1.5227638164323682,-0.12291398367086753
5.889290026319152,-3.0766174649216884,1.5215346765956597,-0.3092900879115959
5.858523851669935,-3.069748252870963,1.5184417757165436,-0.4939403523420434
5.827826369141226,-3.0614510772710952,1.5135023721931231,-0.676565514708129
5.797211858368515,-3.051178841567241,1.5067367170460417,-0.8568195750000445
5.766700069952843,-3.0384008612752496,1.4981685212960414,-1.034318854276795
5.73631606134009,-3.022606528774409,1.4878253327532733,-1.2086512830712346
5.706089996052346,-3.0033092867871134,1.475738819922561,-1.3793858051383943
5.676056903184475,-2.980050727700405,1.461944961871177,-1.5460817566296332
5.6462563959074705,-2.9524046483197965,1.4464841443048808,-1.7082980692316676
5.6167323494242725,-2.9199809084462083,1.429401163612564,-1.8656021478775424
5.587532540339811,-2.882428965393827,1.4107451421337887,-2.017578287514
5.558708250685872,-2.839440983129035,1.3905693592586486,-2.1638355162030005
5.530313840854582,-2.7907544416671004,1.3689310040966185,-2.304014779911912
5.502406296437911,-2.7361541972800074,1.3458908562974994,-2.4377954138029954
5.475044754465111,-2.6754739648728885,1.3215129021594694,-2.5649008720015565
5.448290014816382,-2.6085972091623817,1.2958638934394537,-2.6851037097451442
5.422204042724758,-2.5354574404720958,1.2690128563420022,-2.798229826604992
5.3968494683200365,-2.456037914395824,1.2410305580759524,-2.904161986508385
5.372289089176078,-2.3703707334567157,1.2119889382108686,-3.002842630248907
5.348585381841511,-2.27853534504586,1.1819605119083796,-3.094275990850902
5.325800028391052,-2.180656425553761,1.1510177519998706,-3.178529514173139
5.303993464135515,-2.076901137935798,1.119232456858139,-3.2557345795191854
5.283224452756157,-1.9674757508874274,1.0866751110629473,-3.3260865107456334
5.263549695247282,-1.8526216136462927,1.053414245955491,-3.3898438699208113
5.245023479110819,-1.732610491664558,1.0195158072562829,-3.44732703464689
5.2276973741941735,-1.607739284563712,0.985042536909814,-3.498916077313441
5.211619981348536,-1.4783241675649381,0.9500533761366796,-3.545047989258325
5.196836739672887,-1.3446942189181965,0.9146028962440964,-3.586213323483466
5.183389797483705,-1.2071846161985456,0.8787407630092617,-3.6229523638152563
5.171317951321719,-1.0661295010199858,0.8425112393711092,-3.6558509633690996
5.160656656311519,-0.9218546222527987,0.8059527297374182,-3.6855362279969603
5.151438110088991,-0.774669870239231,0.7690973674574486,-3.7126722485627646
5.143691411386599,-0.6248618075287949,0.731970644971821,-3.737956107621007
5.137442793311311,-0.4726862848801001,0.6945910838956109,-3.7621144005390623
5.13271593046251,-0.31836120511274524,0.6569699398902202,-3.7859005185138397
5.129532318411383,-0.16205946297108678,0.6191109347050818,-3.810092942474256
5.127911723781672,-0.0039020481537435647,0.5810100052803393,-3.8354947944851654
5.127872703300135,0.15604874690610718,0.5426550573354877,-3.862934889358163
5.129433190769196,0.3177961208026755,0.5040257084419061,-3.893270526082482
5.132611151977223,0.48141571244111186,0.46509300318108127,-3.9273922581275684
5.1374253091016335,0.6470629042725512,0.42581908059980556,-3.9662308838579476
5.143895938144359,0.8149807147934636,0.3861567717612261,-4.010766900662241
5.152045745292294,0.9855085378194014,0.34604910275460365,-4.0620426613833684
5.161900830670488,1.1590919808597082,0.30542867614076996,-4.121177442922134
5.173491750479085,1.336293999020335,0.2642169017115486,-4.189385552528234
5.186854690469289,1.5178073711422964,0.22232304618626625,-4.267997397291726
5.2020327641807125,1.7044682420011426,0.179643072213349,-4.358483015986342
5.219077446600724,1.8972698130504129,0.13605824205348557,-4.462476717026975
5.238050144731228,2.0973740397281633,0.09143347488321582,-4.581799812720971
5.25902388512851,2.306116906954667,0.045615476756006114,-4.718475319631901
5.282085054198057,2.5249986497161387,-0.0015692764403128986,-4.87472270952322
5.307335040695219,2.7556426633038487,-0.0503165035355451,-5.05291024180636
5.334891467328258,2.9996932924457105,-0.1008456059536087,-5.255423545737463
5.364888400252715,3.258599341675407,-0.15339984141098334,-5.484376489505055
5.397474393669469,3.5331922903127757,-0.2082436063060339,-5.741037222827189
5.432806316572597,3.822914172313848,-0.2656539785343058,-6.024765985239602
5.471035458295735,4.124496114728077,-0.32590163838670183,-6.331183949207714
5.512280419443016,4.429910133214591,-0.38921347787877897,-6.649318834305973
5.556579520775162,4.7237300600032945,-0.4557066662218387,-6.957905080787876
5.603816821375195,4.981041541886871,-0.5252857170297175,-7.222413873270815
5.653627236794064,5.1688871192843,-0.5975098557624257,-7.396968928092685
5.705316107986906,5.255184628896408,-0.6714795450433525,-7.4366497250815256
5.757867954275871,5.224417258234537,-0.7458460422941677,-7.319232254480636
5.8101121268582165,5.0888594562822105,-0.8190383648389741,-7.06074965926833
5.861000721421038,4.882835642428116,-0.8896458614316574,-6.707528830366648
5.90982907784532,4.6448577807766,-0.9567211497353239,-6.311513673346891
5.956277655653086,4.403974029703774,-1.0198362864687929,-5.911531582221294
6.000317395950123,4.176811149017221,-1.0789516022910057,-5.529365302422365
6.042085507440295,3.9706682363427346,-1.1342452553152294,-5.174111536617891
6.081792189803723,3.7874283126881507,-1.1859863706814082,-4.847591211985939
6.1196664729306045,3.626322814361616,-1.2344622828012677,-4.548136697811234
6.15592970107422,3.4854990577194025,-1.2799436497793801,-4.272717942488853
6.190784691651414,3.36280594775428,-1.3226708292042686,-4.017994609165598
6.224412751128957,3.2561497501765073,-1.3628507752959245,-3.7807833342046124
6.256974248630723,3.1636333710551225,-1.4006586086379706,-3.558234091255579
6.288610582341274,3.08359321004799,-1.4362409495505264,-3.347871411414905
6.319446514441754,3.0145908503098564,-1.4697196636646754,-3.1475778696831904
6.349592422944853,2.955387199427116,-1.5011954423615073,-2.9555566698816294
6.379146294939124,2.904911881975657,-1.5307510090603236,-2.7702900482035893
6.408195413758881,2.862233475460225,-1.5584539095423595,-2.5905005166961423
6.436817748513483,2.82653275816624,-1.5843589147093209,-2.415117410099983
6.465083076095145,2.7970795689093877,-1.6085100888103208,-2.243249135643794
6.493053871784239,2.7732132068449364,-1.6309425801667587,-2.074160652644024
6.520786003852688,2.75432605300636,-1.651684186693199,-1.907255392545607
6.548329264382752,2.7398500431531154,-1.6707567406186552,-1.7420607644000543
6.575727764814284,2.7292456512395233,-1.6881773482626556,-1.5782164306818223
6.603020221326679,2.721993099944958,-1.7039595125694738,-1.4154646173851673
6.630240152326128,2.717585573346919,-1.7181141587433255,-1.253641812299414
6.657416008059598,2.71552425510936,-1.7306505768663196,-1.0926712961984837
6.684571250610691,2.7153150486027156,-1.7415772898283044,-0.9325560415609724
6.711724401096719,2.716466851896653,-1.7509028502439141,-0.7733716036187586
6.738889069615685,2.718491261402049,-1.7586365662801018,-0.6152587207139147
6.766073982229706,2.72090356535622,-1.7647891534872409,-0.4584154358665503
6.793283017883268,2.7232248657424885,-1.7693733078459064,-0.30308864822821785
6.820515266540693,2.7249851388943327,-1.7724041943281885,-0.14956509900953416
6.847765117929637,2.725727015814732,-1.773899845318284,0.001838112784491669
6.875022388087784,2.7250100381527815,-1.773881464190439,0.1507833092778483
6.902272488469311,2.722415129456234,-1.7723736310976606,0.2969220677716632
6.929496639763873,2.717549017459516,-1.769404410419944,0.43990482760823524
6.956672129938468,2.7100483540415206,-1.7650053621438617,0.5793899695124651
6.983772613478884,2.6995833056069385,-1.7592114624487372,0.7150520751193448
7.010768446534954,2.6858604266740853,-1.7520609416975437,0.846589107311704
7.037627050801694,2.6686246803962246,-1.7435950506244267,0.9737283060809946
7.064313297605656,2.6476605273795535,-1.7338577675636166,1.0962306641535409
7.090789902879451,2.6227920636394257,-1.7228954609220812,1.2138939245852494
7.117017823515845,2.593882245038092,-1.7107565216762288,1.3265541215491539
7.142956645966226,2.5608312848833776,-1.6974909804607372,1.434085758799258
7.16856495881506,2.5235743504246484,-1.6831501228727446,1.5364007822564436
7.193800702319306,2.4820787109574365,-1.66778611505018,1.6334465500544124
7.21862148942888,2.4363405046683866,-1.6514516495496359,1.725203033357579
7.242984894475564,2.3863812939095386,-1.6341996192160602,1.8116794942759242
