th1 (rad),w1 (rad/s),th2 (rad),w2 (rad/s),a1 (rad/s^2),a2 (rad/s^2)
2.993729601887226,2.632323975964296,5.698127943898626,0.8770806866596211,-0.2685730476074844,2.234921836065245
3.020052841646869,2.6296382454882212,5.706898750765222,0.8994299050202735,0.04009153673922992,2.3388668824441194
3.046349224101751,2.6300391608556137,5.715893049815425,0.9228185738447148,0.34148822628699554,2.424885586740707
3.0726496157103074,2.633454043118484,5.725121235553872,0.9470674297121219,0.6355691028771747,2.492138407138379
3.0989841561414924,2.6398097341472555,5.734591909850994,0.9719888137835057,0.9223180149348605,2.539863958405713
3.125382253482965,2.6490329142966043,5.7443117979888285,0.9973874533675627,1.2017349780339996,2.567355630352928
3.151872582625931,2.6610502640769442,5.754285672522504,1.023061009671092,1.4738231025870556,2.573942071800469
3.1784830852667003,2.6757884951028146,5.764516282619215,1.0488004303890965,1.738577922949054,2.558971314812824
3.2052409702177282,2.6931742743323053,5.775004286923106,1.0743901435372247,1.9959790040949605,2.5217983086707063
3.2321727129610514,2.713134064373255,5.785748188358478,1.0996081266239317,2.245983714257082,2.461775642029651
3.259304053604784,2.7355939015158257,5.796744269624718,1.1242258830442282,2.4885230712901,2.3782472495516984
3.286659992619942,2.7604791322287268,5.80798652845516,1.1480083555397451,2.7234995943393803,2.270544921404941
3.3142647839422295,2.7877141281721207,5.819466612010558,1.1707138047537946,2.9507871183033636,2.1379874564709787
3.3421419252239506,2.817221999355154,5.831173750058096,1.1920936793185044,3.170232554606243,1.9798823194709034
3.370314145217502,2.8489243249012164,5.843094686851281,1.2118925025132135,3.3816596061768482,1.7955296754908248
3.398803388466514,2.882740920962985,5.8552136118764135,1.2298477992681216,3.5848744656762825,1.5842286798078238
3.427630797676144,2.918589665619748,5.867512089869095,1.2456900860662,3.7796735424607966,1.345285893933867
3.4568166943323413,2.956386401044356,5.879968990729757,1.2591429450055385,3.9658532741254753,1.0780256780159247
3.486380558342785,2.996044933785611,5.892560420179812,1.2699232017856976,4.143222081461473,0.7818023729369168
3.516341007680641,3.037477154600226,5.905259652197669,1.2777412255150669,4.31161452012377,0.4560140306760365
3.5467157792266435,3.0805932998014636,5.91803706445282,1.2823013658218272,4.470907667322172,0.10011737709738441
3.5775217122246583,3.1253023764746852,5.9308600781110385,1.283302539592801,4.6210397568507044,-0.28635640371784976
3.6087747359894053,3.171512774043192,5.943693103506966,1.2804389755556225,4.762031040743879,-0.7037855904740279
3.640489863729837,3.2191330844506307,5.956497493262522,1.273401119650882,4.894006811561746,-1.1524422140296247
3.672681194574343,3.2680731525662483,5.969231504459031,1.261876697510586,5.017222467591036,-1.6324775323581502
3.7053619261000055,3.3182453772421585,5.981850271434136,1.2455519221870044,5.132090447304667,-2.1439096768649084
3.738544379872427,3.3695662817152052,5.994305790656006,1.2241128254183553,5.239208804112682,-2.6866146332596377
3.772240042689579,3.421958369756332,6.00654691891019,1.197246679085759,5.339391144568574,-3.260321899342343
3.8064596263871424,3.4753522812020177,6.0185193857010475,1.1646434600923357,5.4336976216993875,-3.864616334277042
3.8412131491991626,3.5296892574190117,6.030165820301971,1.1259972967495653,5.523466671137207,-4.498947869656918
3.876510041773353,3.5849239241303836,6.041425793269466,1.081007818052996,5.610347214471962,-5.162650882481246
3.912359281014657,3.641027396275103,6.052235871449996,1.0293813092281836,5.696331146751701,-5.8549751262616425
3.948769554977408,3.6979907077426204,6.0625296845422785,0.9708315579655672,5.7837860896664735,-6.575130174633417
3.985749462054834,3.755828568639285,6.072238000121934,0.905080256219233,5.8754886456661914,-7.322345353830166
4.023307747741227,3.814583455095947,6.081288802684126,0.8318568026809314,5.974658748034174,-8.09594713659673
4.061453582292186,3.8743300425762888,6.089607370710936,0.7508973313149642,6.084996184047042,-8.89545596230986
4.100196882717949,3.9351800044167593,6.097116344024085,0.6619427716918656,6.210720988060535,-9.720704471677841
4.139548682762117,3.9972872142973648,6.103735771741004,0.5647357269750871,6.3566201730194996,-10.571979250084981
4.17952155490509,4.06085341602756,6.109383129010755,0.4590159344742373,6.528104206593688,-11.450188427589326
4.220130089065366,4.126134458093497,6.113973288355497,0.344514050198344,6.7312777567755,-12.357057965476553
4.261391433646301,4.193447235661252,6.117418428857481,0.2209434705435785,6.973030547796774,-13.295360257120125
4.303325906002914,4.26317754113922,6.119627863562917,0.08798986797237723,7.2611556974989195,-14.269179870182661
4.345957681414306,4.335789098114209,6.1205077622426405,-0.05470193072944937,7.604504662472942,-15.284222920055997
4.389315572395448,4.411834144738939,6.119960742935346,-0.20754415993000935,8.013189882505728,-16.348178689572666
4.433433913842838,4.4919660435639965,6.117885301336046,-0.37102594682573603,8.498848304414112,-17.471144554033973
4.4783535742784775,4.576954526608137,6.114175041867789,-0.5457373923660758,9.074980916557205,-18.666127591094643
4.524123119544559,4.667704335773709,6.108717667944128,-0.7323986682770223,9.757384588556857,-19.94963739370225
4.570800162902295,4.765278181659277,6.101393681261357,-0.9318950422140448,10.564691396760752,-21.34238224201569
4.6184529447188885,4.870925095626885,6.092074730839217,-1.1453188646342018,11.51902397074671,-22.870070027925976
4.667162195675157,4.986115335334352,6.080621542192875,-1.3740195649134617,12.64675628899021,-24.564285972994252
4.7170233490285005,5.112582898224254,6.066881346543741,-1.6196624246434042,13.979323217599791,-26.46335015969605
4.768149178010743,5.252376130400251,6.050684722297307,-1.8842959262403647,15.553918517383744,-28.612905667030724
4.820672939314746,5.407915315574089,6.031841763034903,-2.170424982910672,17.413696812686872,-31.065662777774772
4.874752092470487,5.582052283700957,6.010137513205796,-2.48108161068842,19.60661939570117,-33.87904141604928
4.930572615307497,5.778118477657968,5.9853266970989125,-2.819872024848913,22.18109013902014,-37.108037117532724
4.988353800084077,5.99992937904817,5.9571279768504235,-3.1909523960242403,25.174490226975045,-40.787747064882296
5.048353093874559,6.25167428131792,5.9252184528901815,-3.5988298666730634,28.586680459598107,-44.8942920862634
5.110869836687739,6.537541085913901,5.88923015422345,-4.047772787535697,32.32309328014622,-49.262410452115844
5.176245247546878,6.860772018715363,5.848752426348094,-4.540396892056855,36.08061736131317,-53.4220644984682
5.244852967734031,7.221578192328495,5.803348457427525,-5.074617537041537,39.14133440781481,-56.30540571054621
5.317068749657317,7.612991536406644,5.75260228205711,-5.637671594146999,40.07394965239433,-55.82568489943722
5.393198665021383,8.013731032930586,5.69622556611564,-6.195928443141371,36.542674676975814,-48.61403918349012
5.473335975350689,8.379157779700344,5.634266281684226,-6.682068834976272,25.94151524189997,-30.9341803172965
5.5571275531476925,8.638572932119343,5.5674455933344635,-6.991410638149238,7.8562120062720595,-2.195240563543985
5.643513282468886,8.717135052182064,5.497531486952971,-7.013363043784677,-12.97425624720925,30.8212460103235
5.730684632990707,8.587392489709972,5.427397856515124,-6.7051505836814425,-28.665158770108892,56.78081063166238
5.816558557887807,8.300740902008883,5.360346350678309,-6.137342477364818,-35.20832017222962,69.77616985755571
5.899565966907896,7.948657700286587,5.298972925904661,-5.439580778789261,-34.544060178867596,72.36635169817191
5.979052543910762,7.603217098497911,5.244577118116768,-4.715917261807542,-30.40214792403653,69.75199966512835
6.055084714895741,7.299195619257546,5.197417945498693,-4.018397265156258,-25.32647212624516,65.53367526868279
6.1280766710883166,7.0459308979950945,5.157233972847131,-3.3630605124694304,-20.482974328298017,61.38621547206395
6.198535980068267,6.841101154712114,5.123603367722437,-2.749198357748791,-16.266213813621135,57.88626363823883
6.266946991615388,6.678439016575903,5.096111384144948,-2.1703357213664027,-12.743665871305552,55.13090364128709
6.333731381781147,6.551002357862848,5.074408026931284,-1.619026684953532,-9.870089649425667,53.04026680868726
6.399241405359776,6.452301461368592,5.058217760081749,-1.0886240168666594,-7.57455818719594,51.48296677058202
6.463764419973462,6.376555879496633,5.047331519913082,-0.5737943491608393,-5.791331289029153,50.32282575079817
6.5275299787684276,6.318642566606341,5.041593576421474,-0.07056609165285754,-4.468269615664017,49.43403519556082
6.590716404434491,6.273959870449701,5.040887915504945,0.4237742603027506,-3.5668746311195516,48.70467539400422
6.653456003138988,6.238291124138506,5.045125658107973,0.9108210142427928,-3.0595190494077653,48.0365472178169
6.715838914380373,6.207695933644429,5.054233868250401,1.391186486420962,-2.9259846855725464,47.34432252535544
6.777915873716817,6.178436086788703,5.068145733114611,1.8646297116745163,-3.1500868166157585,46.5550167881679
6.839700234584704,6.146935218622545,5.086792030231356,2.330179879556195,-3.7166699557456027,45.60798176796425
6.90116958677093,6.1097685190650886,5.110093829026918,2.7862596972358378,-4.609090566028742,44.45529894375386
6.962267271961581,6.063677613404801,5.137956425999277,3.230812686673376,-5.80724751139916,43.06234515870543
7.022904048095629,6.005605138290809,5.17026455286601,3.6614361382604304,-7.286197460965443,41.40828999919932
7.082960099478537,5.932743163681154,5.206878914248614,4.075519038252423,-9.01537022873808,39.486323204018454
7.142287531115349,5.842589461393773,5.247634104631138,4.470382270292608,-10.958372124806123,37.30347495882567
7.200713425729286,5.733005740145712,5.2923379273340645,4.843417019880865,-13.073337790560664,34.8799636622312
7.258043483130743,5.602272362240106,5.340772097532873,5.192216656503176,-15.313768898254255,32.248069474750636
7.314066206753144,5.449134673257563,5.392694264097904,5.514697351250683,-17.629785167993546,29.450577784607102
7.3685575534857195,5.272836821577628,5.447841237610411,5.809203129096754,-19.969708336678565,26.538862275251837
7.421285921701496,5.073139738210842,5.505933268901378,6.0745917518492725,-22.281897840080504,23.570687733971994
7.472017319083604,4.850320759810037,5.566679186419871,6.310298629188992,-24.516751626158666,20.607817873949337
7.520520526681705,4.60515324354845,5.629782172711761,6.516376807928485,-26.628772769518125,17.713522741778643
7.566572059117189,4.338865515853269,5.694945940791046,6.693512035346272,-28.578583756433815,14.950098236860814
7.609960714275722,4.05307967828893,5.761881061144509,6.84301301771488,-30.33475253268203,12.376533961405558
7.650491511058611,3.74973215296211,5.830311191321657,6.966778357328936,-31.8752880919316,10.046485760260058
7.687988832588232,3.430979272042794,5.899978974894947,7.067243214931536,-33.18867804635292,8.006714283583134
7.72229862530866,3.0990924915792646,5.9706514070442624,7.147310357767368,-34.2743804574052,6.296132035109587
7.753289550224453,2.7563486870052127,6.042124510621936,7.210271678118463,-35.14274353498097,4.945557023775198
7.780853037094506,2.404921251655403,6.114227227403121,7.259727248356215,-35.814398537104765,3.978207843084049
7.80490224961106,2.0467772662843555,6.186824499886683,7.299509326787056,-36.319238005344424,3.410905055159908
7.825370022273904,1.6835848862309113,6.259819593154553,7.333618377338655,-36.69513822338431,3.255880287409245
7.842205871136213,1.3166335039970682,6.333155776927939,7.366177180212747,-36.98659996328912,3.523045685419468
7.855372206176184,0.946767504364177,6.406817548730067,7.401407637066942,-37.24345779667726,4.222540411187421
7.864839881219826,0.5743329263974044,6.480831625100737,7.443633041178816,-37.5197386785771,5.367330881027624
7.8705832104838,0.19913553961163344,6.555267955512525,7.497306349989092,-37.872620364708446,6.975558707478453
7.872574565879916,-0.17959066403545104,6.6302410190124155,7.567061937063876,-38.36121133996614,9.07212991557916
7.870778659239562,-0.5632027774351125,6.705911638383054,7.657783236219668,-39.044457839674514,11.688578246366882
7.865146631465211,-0.9536473558318577,6.782489470745251,7.774669018683337,-39.976693487954634,14.85923962940267
7.855610157906892,-1.353414290711404,6.860236160932084,7.923261414977364,-41.19781701454801,18.609722308430573
7.842076014999779,-1.765392460856884,6.939468775081858,8.10935863806167,-42.712162491248534,22.929620912823516
7.82442209039121,-2.1925140857693695,7.020562361462475,8.338654847189904,-44.44489143273121,27.714064593100808
7.802496949533516,-2.6369630000966815,7.103948909934374,8.615795493120912,-46.15683991987645,32.64739144791953
7.7761273195325495,-3.098531399295446,7.190106864865583,8.942269407600106,-47.29275555387395,36.99306271686877
7.745142005539595,-3.5714589548341857,7.279529558941584,9.312200034768793,-46.7580873958332,39.28029142256007
7.709427415991253,-4.039039828792518,7.372651559289272,9.705002948994395,-42.74160814831941,37.04491442204201
7.669037017703328,-4.466455910275712,7.469701588779216,10.075452093214814,-33.03872027132746,27.249533967790907
7.624372458600571,-4.796843112988987,7.5704561097113645,10.347947432892724,-16.65094786694053,8.45801338957003
7.576404027470681,-4.963352591658392,7.673935584040292,10.432527566788425,3.696712410366921,-15.719601136191367
7.526770501554097,-4.926385467554723,7.778260859708176,10.275331555426511,21.68492528062124,-36.81404628086083
7.47750664687855,-4.7095362147485105,7.881014175262441,9.907191092617904,32.34435630915276,-48.251978122140734
7.430411284731065,-4.386092651656983,7.980086086188621,9.424671311396496,35.661943167144585,-50.180945865539144
7.386550358214495,-4.029473219985538,8.074332799302585,8.922861852741105,34.49653005488121,-46.524422739428886
7.346255626014639,-3.6845079194367254,8.163561417829996,8.457617625346817,31.46508279703879,-40.762928737173944
7.309410546820272,-3.3698570914663373,8.248137594083465,8.049988337975078,28.030861626166757,-34.771660071782804
7.275711975905609,-3.0895484752046696,8.328637477463216,7.7022717372572505,24.817547802272948,-29.295755478418027
7.244816491153562,-2.84137299718194,8.40566019483579,7.40931418247307,22.02555534054709,-24.529201359349273
7.216402761181743,-2.621117443776469,8.47975333666052,7.164022168879577,19.677375283615035,-20.445987859893716
7.190191586743978,-2.4243436909403187,8.551393558349316,6.9595622902806396,17.73199292154047,-16.949958820956205
7.165948149834575,-2.247023761724914,8.620989181252122,6.7900627020710775,16.13243630640527,-13.934481564244823
7.143477912217326,-2.085699398660861,8.688889808272833,6.650717886428629,14.823618670489893,-11.303197568074182
7.122620918230718,-1.9374632119559623,8.75539698713712,6.5376859107478875,13.757859080003659,-8.975299753685768
7.103246286111158,-1.7998846211559256,8.820773846244599,6.44793291321103,12.895574278269255,-6.8852101651307756
7.085247439899599,-1.670928878373233,8.88525317537671,6.379080811559723,12.204232103476182,-4.980624624053667
7.068538151115867,-1.5488865573384711,8.949043983492306,6.329274565319186,11.65678169568763,-3.2204432191314023
7.053049285542482,-1.432318740381595,9.012336729145497,6.297070133127872,11.229992780966818,-1.57312492030018
7.038726098138666,-1.3200188125719268,9.075307430476776,6.28133888392487,10.902815150452911,-0.015629643367078595
7.025525910012947,-1.2109906610673977,9.138120819316025,6.281182587491199,10.654743236094195,1.4670203658322876
7.013416003402273,-1.1044432287064558,9.200932645190937,6.295852791149522,10.464129926540053,2.8815691541146515
7.002371571115208,-0.9998019294410553,9.263891173102433,6.324668482690669,10.306397619572232,4.225775290345333
6.992373551820797,-0.896737953245333,9.32713785792934,6.366926235594122,10.152134116561498,5.487147268998296
6.983406172288343,-0.795216612079718,9.390807120285281,6.421797708284105,9.965144340778007,6.6413198160605065
6.975454006167546,-0.695565168671938,9.455025097368122,6.48821090644471,9.700672904263676,7.650389121333696
6.968498354480826,-0.5985584396293012,9.519907206432569,6.564714797658047,9.30423348192321,8.461792241186771
6.962512770084533,-0.5055161048100691,9.58555435440915,6.649332720069914,8.711775490364113,9.008684811449971
6.957457609036433,-0.418398349906428,9.652047681609849,6.739419568184414,7.852229385029917,9.213171236508634
6.953273625537368,-0.3398760560561288,9.719441877291693,6.8315512805495,6.653639585604645,8.99397067903967
6.949874864976807,-0.2733396602000824,9.787757390097187,6.921490987339897,5.0538237490878695,8.279782404346076
6.947141468374806,-0.22280142270920367,9.856972299970586,7.004288811383358,3.0154136604720643,7.028260072777897
6.944913454147714,-0.19264728610448303,9.92701518808442,7.074571412111137,0.5430296889366841,5.247842928607675
6.942986981286669,-0.1872169892151162,9.997760902205531,7.127049841397214,-2.3023598579969207,3.0162541683230812
6.941114811394518,-0.21024058779508542,10.069031400619503,7.157212383080444,-5.398709891254913,0.48708710659026566
6.939012405516567,-0.2642276867076345,10.140603524450308,7.162083254146347,-8.573583890365493,-2.122812907698606
6.93637012864949,-0.34996352561128946,10.21222435699177,7.14085512506936,-11.630991487393151,-4.566098054276639
6.932870493393377,-0.46627344048522096,10.283632908242463,7.095194144526594,-14.387762928264864,-6.609486380749107
6.928207758988525,-0.6101510697678696,10.354584849687729,7.029099280719103,-16.70757757694708,-8.075296357852661
6.922106248290846,-0.7772268455373403,10.42487584249492,6.948346317140576,-18.521455206997267,-8.866078481945632
6.914333979835472,-0.962441397607313,10.494359305666325,6.859685532321119,-19.829924512873763,-8.966548085759692
6.904709565859399,-1.1607406427360507,10.562956160989536,6.770020051463523,-20.68989918028646,-8.426711746383418
6.893102159432038,-1.3676396345389152,10.63065636150417,6.685752933999689,-21.19395294295639,-7.335723731692227
6.879425763086649,-1.579579163968479,10.697513890844167,6.612395696682767,-21.44974358412626,-5.795928695324528
6.863629971446964,-1.7940765998097417,10.763637847810994,6.554436409729521,-21.564441759599966,-3.902882849386603
6.845689205448867,-2.009721017405741,10.82918221190829,6.515407581235655,-21.63567110318413,-1.7329988101942888
6.825591995274809,-2.2260777284375823,10.894336287720646,6.498077593133712,-21.748201373398977,0.6623140731599243
6.803331217990434,-2.4435597421715722,10.959317063651984,6.504700733865311,-21.974733179877344,3.258249139226616
6.778895620568718,-2.6633070739703455,11.024364070990638,6.537283225257577,-22.379153304443093,6.05615730760152
6.752262549829014,-2.8870986070147766,11.089736903243214,6.597844798333592,-23.0210994215752,9.082774783808292
6.723391563758867,-3.1173096012305286,11.155715351226549,6.688672546171675,-23.961193591321656,12.390290224306618
6.692218467746561,-3.3569215371437453,11.222602076688267,6.812575448414742,-25.26671257844324,16.057988774125974
6.658649252375124,-3.6095886629281777,11.290727831172415,6.973155336156001,-27.01768766335038,20.195889260095587
6.622553365745842,-3.8797655395616815,11.360459384533975,7.175114228756957,-29.313382298890655,24.95040466963253
6.583755710350226,-4.172899362550588,11.432210526821544,7.424618275453282,-32.27852949714755,30.511168018769684
6.5420267167247195,-4.495684657522063,11.506456709576076,7.729729955640979,-36.06688401344743,37.11568437002997
6.497069870149499,-4.856353497656538,11.583754009132486,8.100886799341279,-40.85454477696356,45.04156120102614
6.448506335172934,-5.264898945426173,11.664762877125899,8.55130241135154,-46.80183393259983,54.55733766866898
6.395857345718672,-5.732917284752172,11.750275901239414,9.09687578803823,-53.92702996720365,65.75382568897994
6.3385281728711504,-6.272187584424208,11.841244659119797,9.754414044928028,-61.74937124303751,78.05810901437981
6.275806297026908,-6.889681296854583,11.938788799569076,10.534995135071826,-68.39133934421199,88.99687244879073
