th1 (rad),w1 (rad/s),th2 (rad),w2 (rad/s)
3.559992956128238,-1.443271238610007,6.131267212789861,0.8262388937150835
3.545560243742138,-1.3764202228870523,6.139529601727012,0.8860938217543209
3.5317960415132674,-1.3097950840784895,6.148390539944555,0.947141814303059
3.5186980906724825,-1.2434548680555726,6.157861958087586,1.0091189749662894
3.5062635419919266,-1.1774694206754401,6.167953147837249,1.0717534953359709
3.4944888477851723,-1.1119199573587653,6.178670682790608,1.134765175118396
3.4833696482115846,-1.046899481741455,6.190018334541793,1.1978651535570346
3.47290065339417,-0.982513005956028,6.201996986077363,1.2607559053065798
3.4630755233346098,-0.9188775247047004,6.214604545130429,1.3231315538065092
3.453886748087563,-0.8561216969129811,6.2278358606684945,1.3846785524493144
3.445325531118433,-0.7943851928974469,6.241682646192988,1.4450767779054865
3.4373816791894587,-0.7338176720805138,6.256133413972043,1.5040010704091955
3.4300435024686537,-0.6745773666465927,6.271173424676134,1.5611232423486774
3.4232977288021877,-0.6168292602640637,6.286784657099621,1.6161145591219315
3.4171294361995472,-0.560742867926389,6.30294580269084,1.668648675227966
3.4115220075202832,-0.5064896425864021,6.31963228944312,1.7184049846877345
3.406457111094419,-0.45424005568973846,6.336816339289997,1.765072319286216
3.401914710537522,-0.4041604207055294,6.3544670624828585,1.808352902379012
3.3978731063304664,-0.356409549737709,6.3725505915066485,1.8479664420390816
3.3943090108330893,-0.3111353515063428,6.391030255927039,1.8836542272575896
3.391197657318026,-0.26847149260257663,6.409866798199615,1.9151830768776004
3.388512942392,-0.22853425129452898,6.429018628968391,1.9423489847977027
3.3862275998790548,-0.19141969302940748,6.448442118816368,1.9649803080900012
3.3843134029487607,-0.1572012884585257,6.468091921897268,1.9829403576479767
3.3827413900641754,-0.1259280783575503,6.487921325473748,1.9961292735310976
3.3814821092806,-0.09762346606854105,6.507882618209059,2.0044850980731543
3.3805058746199146,-0.07228468864820732,6.52792746918979,2.00798399696723
3.3797830277334326,-0.04988298496481577,6.548007309159463,2.006639619160087
3.3792841978837846,-0.030364445104611934,6.568073705351064,2.000501627343537
3.3789805534327386,-0.0136514932602333,6.588078721624499,1.9896534689708378
3.3788440385001364,0.000355071815420948,6.607975256314208,1.9742094902485978
3.3788475892182905,0.011773576776804863,6.627717351216694,1.9543115203000467
3.3789653249860585,0.020738626864575362,6.647260466419694,1.9301250683490923
3.379172711254704,0.027398032125577697,6.6665617171031855,1.9018352829418277
3.37944669157596,0.03190962602071533,6.685580069932604,1.8696428193815922
3.379765787836167,0.03443808862620354,6.704276498126419,1.833759750906559
3.380110168722429,0.035151874154959045,6.7226140956354845,1.7944056423910262
3.3804616874639786,0.03422032628530872,6.7405581520593945,1.7518038844683805
3.3808038907268316,0.031811046420451045,6.758076190904078,1.706178362945393
3.381122001191036,0.028087561043455465,6.775137974533532,1.6577505150250686
3.3814028768014706,0.023207316078310374,6.791715479683782,1.6067368016933505
3.3816349499622538,0.01732000961486687,6.807782847700716,1.5533466057866443
3.3818081500584025,0.010566260175427764,6.823316313758583,1.4977805484758073
3.381913812660157,0.003076596252754647,6.838294119243341,1.440229203538573
3.3819445786226843,-0.005029255776179103,6.8526964112787265,1.3808721788915093
3.3818942860649224,-0.013642814180412178,6.866505133067641,1.3198775282173165
3.3817578579231182,-0.022667047161928394,6.879703908349814,1.2574014517903938
3.381531187451499,-0.032016374634486325,6.892277922867718,1.193588244314611
3.3812110237051543,-0.04161649998141749,6.904213805310865,1.1285704482476642
3.38079485870534,-0.05140410376064829,6.915499509793341,1.0624691732110305
3.3802808176677335,-0.06132642890731371,6.926124201525452,0.9953945452289072
3.37966755337866,-0.07134078399324884,6.936078146977741,0.9274462533184494
3.3789541455387275,-0.08141398780980182,6.945352609510926,0.8587141650498191
3.3781400056606294,-0.09152177516089563,6.953939751161424,0.7892789868592089
3.3772247879090207,-0.10164818044864932,6.961832541030016,0.719212948946299
3.3762083061045343,-0.11178491251800107,6.969024670519478,0.6485804983910008
3.375090456979354,-0.12193073137307096,6.9755104755033885,0.5774389876014194
3.3738711496656233,-0.13209083482717263,6.981284865379402,0.5058393483119603
3.3725502413173514,-0.14227626091587944,6.986343258862522,0.433826744072465
3.3711274787081926,-0.1525033099852453,6.990681526303247,0.36144119651204887
3.36960244560834,-0.16279298874920684,6.994295938268367,0.2887181826450664
3.367974515720848,-0.17317047726725154,6.997183120094818,0.2156892021402333
3.3662428109481755,-0.18366461869708448,6.99934001211622,0.14238231483089198
3.3644061647612045,-0.19430743079712773,7.000763835264529,0.06882264983962759
3.3624630904532333,-0.20513363746054442,7.001452061762925,-0.0049671114419983925
3.360411754078628,-0.2161802180282996,7.001402390648505,-0.0789662756062765
3.358249951898345,-0.22748597172860255,7.000612727892443,-0.15315569729861706
3.3559750921810587,-0.23909109430240694,6.999081170919457,-0.22751735532682787
3.3535841812380345,-0.2510367636817164,6.996805997366188,-0.3020339407971788
3.3510738136012175,-0.2633647314753782,6.993785657958216,-0.3766884531351349
3.348440166286464,-0.2761169169758593,6.990018773426865,-0.4514637998163147
3.345678997116705,-0.28933500042401844,6.985504135428702,-0.5263423956903313
3.342785647112465,-0.30306001235463237,6.980240711471798,-0.6013057579234976
3.339755046988919,-0.31733191599445476,6.974227653892563,-0.6763340928165013
3.336581727828974,-0.3321891799012735,6.967464312964398,-0.751405871074105
3.3332598360299617,-0.34766833832428196,6.959950254253657,-0.8264973885229607
3.3297831526467188,-0.36380353714342406,6.9516852803684275,-0.9015823098008033
3.3261451172752845,-0.380626063720994,6.942669457270419,-0.9766311931880809
3.3223388566380745,-0.39816385958743056,6.932903145338538,-1.051610995535766
3.3183572180422,-0.4164410156010366,6.9223870353831805,-1.1264845571760105
3.3141928078861898,-0.4354772500848466,6.911122189811421,-1.2012100678008775
3.3098380353853414,-0.4552873714689952,6.899110089133412,-1.2757405155728396
3.3052851616706516,-0.47588072816758203,6.886352683977684,-1.3500231232005018
3.3005263543889756,-0.4972606498052204,6.872852452745679,-1.4239987763807234
3.2955537478909234,-0.5194238854842086,6.858612464981872,-1.4976014518734178
3.2903595090360813,-0.5423600465440306,6.843636450463137,-1.5707576545271937
3.284935908570641,-0.5660510631946046,6.827928873917865,-1.643385874788891
3.279275397938695,-0.5904706664726157,6.811495015169976,-1.7153960805674648
3.273370691273969,-0.6155839091276363,6.794341054364302,-1.7866892597220076
3.267214852182693,-0.6413467412216606,6.776474161767082,-1.8571570318208748
3.260801384770476,-0.6677056583284198,6.7579025914488735,-1.9266813500637838
3.254124328187192,-0.6945974421281635,6.738635777948236,-1.9951343162336421
3.2471783537659107,-0.7219490147645528,6.718684434785899,-2.062378133084744
3.239958863618265,-0.7496774293942996,6.698060653455052,-2.1282652194894016
3.232462089324322,-0.7776900197298215,6.676778001260158,-2.1926385137481743
3.224685189127024,-0.8058847308526237,6.654851616122676,-2.2553319895032993
3.2166263418184977,-0.8341506519644419,6.632298296227643,-2.316171406470223
3.208284835298853,-0.8623687688666662,6.60913658216294,-2.374975314532315
3.1996611476101866,-0.8904129496768675,6.585386829017617,-2.43155632449013
3.190757018113418,-0.9181511715262166,6.561071265772716,-2.4857226518528166
3.181575506398156,-0.9454469887401741,6.536214039254188,-2.5372799315379897
3.172121036510754,-0.9721612344014856,6.510841239938808,-2.5860332913629107
3.1623994241667392,-0.9981539374690147,6.484980907025179,-2.6317896610604636
3.152417884792049,-1.0232864271527606,6.458663010414574,-2.674360281683999
3.1421850205205217,-1.0474235855314749,6.431919407597734,-2.7135633682658327
3.131710784665207,-1.070436199066668,6.404783773915075,-2.7492268671776596
3.12100642267454,-1.0922033504190871,6.377291505243298,-2.7811912396021126
3.1100843891703494,-1.1126147845462133,6.349479592847278,-2.809312194682307
3.0989582413248873,-1.131573178155905,6.321386470900454,-2.8334632910420146
3.087642509543328,-1.1489962398137226,6.293051837990034,-2.8535383241078316
3.076152547145191,-1.1648185697784545,6.264516454748955,-2.8694534194563444
3.0645043614474066,-1.178993214166228,6.235821920554392,-2.881148759422981
3.052714429305744,-1.1914928572353487,6.207010432960162,-2.8885898812995974
3.0407995007333906,-1.2023106080652117,6.178124534147166,-2.8917685001414806
3.0287763946527386,-1.2114603530184007,6.149206849145751,-2.8907028267223422
3.0166617911225546,-1.2189766622392981,6.120299820878528,-2.885437370490546
3.0044720245001617,-1.224914256012564,6.091445447173623,-2.876042237302945
2.992222881940036,-1.229347053975742,6.062685024800594,-2.862611951002208
2.9799294114002786,-1.2323668458863952,6.034058905290571,-2.845263845377394
2.9676057429414144,-1.2340816359557951,6.005606266836797,-2.8241360876898938
2.9552649265818567,-1.2346137229635763,5.977364905959899,-2.799385405992957
2.942918789352221,-1.2340975850143638,5.949371051899969,-2.771184599464102
2.9305778135020772,-1.232677640731439,5.921659205905328,-2.739719913772269
2.918251037094763,-1.2305059580274236,5.8942620067676055,-2.705188362292217
2.905945977514489,-1.2277399777141738,5.867210123144683,-2.667795069198836
2.893668577737347,-1.2245403126658576,5.840532172452694,-2.6277507027641285
2.8814231746106884,-1.2210686747004509,5.814254665425053,-2.5852690573016104
2.8692124878636838,-1.2174859715131214,5.788401974852037,-2.54056483096291
2.8570376281485528,-1.213950605581315,5.762996326542408,-2.493851634769369
2.8448981220927396,-1.2106169965985973,5.7380578101947135,-2.445340256555589
2.8327919521267537,-1.207634339210207,5.713604407629157,-2.395237192489453
2.8207156087346514,-1.2051455990198787,5.689652035704262,-2.3437434489500255
2.8086641527444525,-1.2032867422854021,5.6662146012147625,-2.291053609080438
2.7966312853215984,-1.2021861885650982,5.643304065123958,-2.2373551514391434
2.7846094234359473,-1.2019644708547634,5.620930513609567,-2.182828002881548
2.7725897787274,-1.2027340844112995,5.599102233580751,-2.127644304049982
2.7605624378832867,-1.2045995033756374,5.577825790540252,-2.071968363496767
2.7485164428495303,-1.2076573433201179,5.557106106905284,-2.015956775329266
2.736439869416329,-1.2119966477668955,5.536946539151991,-1.9597586751387195
2.72431990293866,-1.2176992773598245,5.517348952400604,-1.9035161096406132
2.712142910165062,-1.2248403815341813,5.498313791304198,-1.8473644967044038
2.6998945063497204,-1.2334889340429422,5.479840146337153,-1.791433154091842
2.687559617009291,-1.2437083154122008,5.461925814796235,-1.7358458770854095
2.675122533855169,-1.2555569271818947,5.444567356025381,-1.6807215471256622
2.66256696458335,-1.2690888245351934,5.427760140554124,-1.6261747554678478
2.649876076337998,-1.284354355546863,5.411498392999445,-1.5723164276168349
2.6370325327825292,-1.3014007967239167,5.395775228723277,-1.5192544358288598
2.6240185248152903,-1.3202729757241867,5.380582684364988,-1.4670941882202952
2.6108157950580484,-1.3410138730874486,5.365911742482785,-1.4159391839532924
2.597405656327174,-1.3636651954776535,5.3517523506432525,-1.3658915245425416
2.5837690043723978,-1.3882679133002098,5.338093435397827,-1.3170523715215237
2.5698863252393958,-1.4148627556176445,5.324922911682612,-1.2695223405013911
2.5557376976832193,-1.4434906550371829,5.3122276882775985,-1.223401821036203
2.5413027911328476,-1.4741931346848889,5.299993670067236,-1.1787912106633482
2.5265608597859988,-1.5070126285159613,5.288205757960602,-1.1357910500099104
2.511490733500839,-1.5419927250457672,5.276847847460504,-1.094502043941528
2.496070806250381,-1.5791783231319036,5.265902827021089,-1.0550249513841472
2.480279023019062,-1.6186156867112573,5.255352577507247,-1.0174603236858952
2.4640928661519497,-1.66035238342464,5.245177974270388,-0.9819080682370789
2.447489342317703,-1.704437089885969,5.2353588935880175,-0.9484668105849694
2.430444971418843,-1.7509192440332577,5.225874225482168,-0.9172330245524162
2.4129357789785106,-1.7998485226208654,5.216701895236644,-0.8882998960241602
2.394937293752302,-1.8512741195961435,5.207818896276403,-0.8617558822867304
2.3764245525563408,-1.905243799010858,5.199201337453536,-0.8376829253527892
2.3573721145662323,-1.9618026944625495,5.1908245082000075,-0.8161542749121017
2.3377540876216067,-2.020991826118846,5.182662965450887,-0.79723187487699
2.3175441693604184,-2.082846306494404,5.174690646702117,-0.7809632674990326
2.2967157062954744,-2.1473932077481885,5.166881014027126,-0.7673779714284471
2.2752417742179927,-2.2146490668499075,5.1592072343128415,-0.7564832957107952
2.2530952835494937,-2.284617011105485,5.151642401355733,-0.7482595615461007
2.230249113438439,-2.3572834958713944,5.144159805740272,-0.7426547187678371
2.206676278479725,-2.432614659501855,5.136733258552594,-0.7395783656020737
2.1823501318847063,-2.510552318332442,5.129337474896573,-0.7388952095124268
2.1572446087013817,-2.591009647416838,5.121948522801449,-0.7404180448947911
2.1313345122272134,-2.6738666212673703,5.114544342352501,-0.7439003708813172
2.1045958460145395,-2.7589653232329594,5.107105338643688,-0.7490288299365979
2.07700619278221,-2.8461052722535767,5.099615050344322,-0.7554157150096504
2.0485451400596744,-2.935038960946507,5.092060893194225,-0.7625918685458879
2.0191947504502092,-3.0254678480691757,5.084434974508766,-0.7700003782503877
1.9889400719695174,-3.117039099357792,5.076734970726262,-0.7769915581975912
1.9577696809759395,-3.209343420635919,5.068965055144286,-0.7828197839680503
1.9256762467695803,-3.3019143719391995,5.061136857304605,-0.7866428191694181
1.8926571030501882,-3.3942295860373277,5.053270429112911,-0.7875243179469875
1.858714807189815,-3.4857143326778464,5.045395185933441,-0.7844402016215593
1.8238576638630366,-3.5757478633091297,5.037550783917226,-0.7762895730445242
1.7881001852299454,-3.6636729308952782,5.029787888186781,-0.7619107337573685
1.7514634559209927,-3.7488087957826104,5.022168780849207,-0.7401026903685399
1.7139753679631666,-3.8304678915016597,5.014767753945522,-0.7096522632099425
1.67567068904815,-3.907976125629382,5.007671231313423,-0.6693665327562426
1.6365909277918562,-3.980696526406848,5.000977565985861,-0.618109877486972
1.5967839625277878,-4.0480556196416995,4.994796467210991,-0.55484428619109
1.5563034063313708,-4.109571548693929,4.98924802434908,-0.4786710049784284
1.5152076908444314,-4.164882565472033,4.9844613142992955,-0.38887096748581124
1.4735588651897111,-4.213774173050975,4.980572604624437,-0.2849409457366215
1.4314211234592014,-4.256202957566514,4.977723195167071,-0.16662205865094815
1.3888590938835361,-4.292315082980355,4.976056974580562,-0.033917298579995564
1.3459359430537325,-4.322457604145265,4.975717801594762,0.1129048262863945
1.3027113670122799,-4.347181220491598,4.976846849857625,0.2733225491374196
1.2592395548073638,-4.367233835771138,4.979580075348999,0.4465897300311068
1.2155672164496525,-4.383545239430789,4.9840459726493105,0.6317805577766892
1.1717317640553446,-4.397204255791989,4.990363778227078,0.8278476935881729
1.1277597214974246,-4.409430656428581,4.9986422551629595,1.0336901712227442
1.0836654149331388,-4.421544839504513,5.008979156875187,1.2482265634490812
1.0394499665380936,-4.434938632783411,5.021461422509677,1.4704687931835219
0.9951005802102595,-4.451050537610537,5.0361661104415125,1.6995925464155917
0.9505900748341541,-4.471348351046921,5.053162035905668,1.9350014331580743
0.9058765913236849,-4.497321508251887,5.072512050237249,2.1763836398760326
0.8609033762411661,-4.530484843296861,5.094275886636009,2.4237615799348227
0.8155985278081974,-4.572394940374028,5.1185135024353565,2.677536762334496
0.7698745784044572,-4.6246799725351675,5.145288870058701,2.938533624654051
0.7236277786791054,-4.689083983158171,5.174674206305242,3.2080473695089813
0.6767369388475237,-4.767526977582813,5.206754680000332,3.4879019370587843
0.6290616690716956,-4.8621829096715175,5.24163369937092,3.7805251906694175
0.5804398399749804,-4.9755785104016566,5.279438951277614,4.089049147430697
0.5306840548709638,-5.110716514927985,5.3203294427519205,4.417443289582423
0.479576889721684,-5.271226227454468,5.364503875647745,4.770687466276795
0.4268646274471393,-5.46154013184982,5.412210750310512,5.154984455084799
0.37224922612864114,-5.687081562082068,5.463760594861361,5.577992865691582
0.31537841050782045,-5.954411036278748,5.519540523518277,6.049008955249555
0.25583430014503294,-6.271183344722974,5.580030613070773,6.578893166541297
0.1931224666978032,-6.645533149299102,5.645819544736185,7.179211003269854
0.12666713520481215,-7.083958097487292,5.717611654768884,7.859292193062186
0.055827554229939236,-7.585603183926681,5.796204576699506,8.618282181348546
-0.020028477609327577,-8.128987903766895,5.882387398512992,9.426647377977222
-0.10131835664699652,-8.647215867024983,5.976653872292764,10.191572320089577
-0.18779051531724633,-9.002425827918074,6.07856959549366,10.721272962356899
-0.2778147735964271,-9.018712230056698,6.185782325117229,10.771104881238042
-0.36800189589699406,-8.634937735854948,6.293493373929609,10.257142391632017
-0.45435127325554353,-8.004921953816645,6.396064797845929,9.395269095648763
-0.5344004927937099,-7.337589317572631,6.490017488802416,8.477112962025664
-0.6077763859694363,-6.74136970884809,6.574788618422673,7.65366618170549
-0.6751900830579172,-6.239546686946155,6.651325280239728,6.957494409197093
-0.7375855499273787,-5.822824758398329,6.720900224331699,6.376065805282525
-0.7958137975113619,-5.475273486051145,6.784660882384524,5.887746918084847
-0.8505665323718734,-5.182342730438218,6.843538351565373,5.472869915285008
-0.9023899596762556,-4.9324112025741185,6.898267050718223,5.1158544194437745
-0.9517140717019967,-4.716538042110856,6.949425594912661,4.80485905126648
-0.9988794521231052,-4.527876224481685,6.997474185425326,4.530975279707689
-1.044158214367922,-4.361135293243028,7.042783938222403,4.28749421832227
-1.0877695673003522,-4.212165099991774,7.085658880405625,4.069342244198563
-1.12989121830027,-4.077649859917886,7.126352302847611,3.872668654640158
-1.1706677168994488,-3.9548869683867705,7.165078989394012,3.694548525928778
-1.2102165865833165,-3.8416276942528937,7.2020244746533,3.5327676863300765
-1.2486328635258455,-3.735962655691781,7.2373521515166015,3.385664554987775
-1.2859924900827633,-3.6362401454617617,7.271208797066479,3.252010497648303
-1.3223548915373808,-3.541009232608702,7.3037289020429625,3.1309155064128555
-1.3577649838634678,-3.4489822424395604,7.3350380571070914,3.021749715571615
-1.3922548062878635,-3.359012945476669,7.3652555542628075,2.9240739970337906
-1.4258449357426302,-3.2700877661199494,7.394496294233146,2.8375750608162646
-1.4585458134038296,-3.181327693160465,7.422872044841308,2.7620024334625994
-1.4903590903354342,-3.0919984512801513,7.450492069175934,2.6971065898014284
-1.5212790748482357,-3.001526005102249,7.477463135073949,2.642579418972484
-1.551294334899258,-2.9095137975760963,7.503888929263674,2.5980000048596645
-1.580389472875019,-2.8157575240627613,7.52986892931227,2.5627901324409015
-1.6085470481156465,-2.7202530140515235,7.555496830636679,2.5361846309113907
-1.6357495782561617,-2.623193221018167,7.580858676945793,2.5172212741793514
-1.6619815104663433,-2.52495157822634,7.606030889687586,2.5047532851946044
-1.6872310262486068,-2.4260510139003117,7.631078422539533,2.497484655389999
-1.71149153638761,-2.327120408453697,7.656053269093433,2.4940250066150504
-1.7347627404721468,-2.228842668354423,7.680993519159584,2.492957413676439
-1.757051167155691,-2.1319002680790096,7.705923093296348,2.4929103668410777
-1.778370169836481,-2.036924609034832,7.730852196964759,2.4926245352878214
