th1 (rad),w1 (rad/s),th2 (rad),w2 (rad/s)
3.2025841119982967,0.5342367388786544,4.400781028667773,-1.3453879470489136
3.2079264793870834,0.531996119333873,4.387327149197284,-1.2539500321070005
3.213246440580422,0.5282741030138794,4.374787648876214,-1.162278497381047
3.218529181610561,0.5231964833696953,4.363164863902403,-1.070350165479771
3.223761146444258,0.5168880536408683,4.352461362247605,-0.9781503453582585
3.2289300269806667,0.5094727910246547,4.342679858794023,-0.885672313094942
3.234024754890913,0.5010739910916228,4.333823135663073,-0.7929167508655123
3.239035494801829,0.49181435977026905,4.325893968154419,-0.6998911522750204
3.2439536383995318,0.4818160709010536,4.318895056631669,-0.6066092030689426
3.2487717991085425,0.4712007976729337,4.312828964600979,-0.5130901467399437
3.253483807085272,0.4600897261909765,4.3076980631335795,-0.41935814463116167
3.2580847043471817,0.448603558990598,4.303504481687268,-0.3254416397933623
3.262570739937088,0.4368625155426478,4.300250065289334,-0.23137273310017864
3.2669393650925143,0.42498633573460204,4.297936337958332,-0.13718657901256814
3.2711892284498605,0.41309429103463274,4.296564472168207,-0.042920806987806426
3.2753201713602067,0.4013052066281398,4.296135264098329,0.05138502705202186
3.2793332234264883,0.38973749634839044,4.296649114368849,0.14568995643082566
3.2832305983899723,0.3785092107929484,4.2981060139331575,0.2399520854592464
3.2870156904979018,0.36773809770893673,4.30050553478775,0.3341290375152942
3.2906930714749913,0.35754167261517594,4.303846825162903,0.42817837098370054
3.2942684882011433,0.3480372967644676,4.308128608872741,0.5220579654527238
3.2977488611687877,0.339342258972253,4.313349188527268,0.6157263810640192
3.3011422837585105,0.3315738575650148,4.319506452337908,0.709143193998242
3.3044580223341606,0.32484947872802744,4.3265978842778905,0.8022693107576773
3.307706517121441,0.3192866678317538,4.334620577385468,0.8950672632057528
3.3108993837997582,0.3150031908453429,4.343571250017525,0.9875014852941412
3.3140494157082117,0.31211708364529633,4.353446264870466,1.0795385711231205
3.317170586544665,0.3107466878275469,4.364241650581697,1.1711475125255129
3.3202780534229404,0.3110106724558738,4.3759531257069515,1.262299912831747
3.3233881601474993,0.31302804195150946,4.388576124835269,1.352970171956845
3.3265184405670145,0.3169181309744131,4.402105826554838,1.4431356365367964
3.329687621876759,0.3228005876007026,4.416537182920205,1.5327767076072476
3.332915627752766,0.330795346309935,4.431864949996277,1.6218768973201705
3.3362235812158656,0.3410225922221656,4.448083718969479,1.710422825472305
3.339633807138087,0.35360271764667467,4.465187947224202,1.798404146188731
3.343169834314554,0.3686562713180833,4.48317198868609,1.8858133949600127
3.346856397027735,0.3863038997142553,4.5020301226356905,1.9726457463461025
3.3507194360248773,0.4066662786020389,4.521756580099152,2.058898672992403
3.3547860988108975,0.42986403148229657,4.542345566829075,2.1445714970996144
3.3590847391257204,0.4560176299551654,4.563791281800071,2.229664826090408
3.363644915425272,0.48524726925684136,4.586087930060976,2.314179864864793
3.36849738811784,0.5176727103906176,4.609229728709623,2.398117597681863
3.373674115221746,0.5534130784487565,4.633210904686442,2.481477833311184
3.379208246006234,0.5925866049589413,4.658025683019554,2.5642581076432593
3.385134112055823,0.6353103004495786,4.683668264095987,2.646452438438193
3.391487215060319,0.6816995419718649,4.710132788480369,2.7280499273521923
3.398304210480038,0.731867559104438,4.737413287753891,2.8090332048663393
3.4056228860710824,0.7859248010636578,4.765503619802554,2.889376714330536
3.413482134081719,0.8439781670211347,4.794397386945859,2.9690448321324103
3.4219219157519305,0.9061300816724136,4.824087835267184,3.04798982213421
3.4309832165686545,0.9724773986025458,4.854567733488526,3.126149624138652
3.44070799055468,1.0431101151673559,4.885829229729913,3.203445478411979
3.451139091706353,1.1181098845823985,4.917863684514033,3.279779391384704
3.462320190552177,1.197548313830303,4.95066147842788,3.35503145174742
3.4742956736904804,1.28148504002047,4.984211792945354,3.4290570114351486
3.487110524090685,1.3699655831295618,5.018502363059706,3.501683752607282
3.5008101799219804,1.4630189797817632,5.053519200585779,3.572708669808171
3.5154403697197982,1.5606552110438878,5.089246287283861,3.6418950061143236
3.531046921830237,1.6628624472285698,5.125665237345004,3.708969193246461
3.5476755463025227,1.7696041444809054,5.162754929277469,3.7736178582633317
3.5653715877473315,1.880816041452135,5.200491107860102,3.8354849733547587
3.5841797481618527,1.9964031195137124,5.238845957593649,3.894169240064192
3.6041437793569897,2.116236606478175,5.277787649994291,3.9492218144776867
3.6253061454217717,2.2401511212540157,5.317279868139068,4.000144494811429
3.647707656634312,2.367942074680444,5.357281313087182,4.0463885065131135
3.6713870773811164,2.4993634591947154,5.397745198152314,4.08735403137163
3.6963807119730636,2.634126176039251,5.43861873846603,4.122390634941721
3.722721973733456,2.7718970623346753,5.479842644815447,4.150798749439401
3.7504409443568028,2.9122987903490647,5.521350632309841,4.171832365675005
3.7795639322602934,3.0549108164729506,5.563068955966591,4.184703076077331
3.8101130404250227,3.199271556600478,5.604915986727364,4.1885855899992075
3.8421057559910277,3.3448819567844295,5.646801842627356,4.18262481098739
3.875554575558872,3.4912106123452338,5.688628090737231,4.165944522441595
3.9104666816823244,3.637700564503769,5.730287535961646,4.137657672200701
3.946843687327362,3.783777870809215,5.771664112683653,4.096878177457086
3.9846814660354544,3.928862004206501,5.812632894458224,4.0427340886791585
4.02397008607752,4.0723780859441625,5.853060235345016,3.9743818549382413
4.064693866936961,4.2137709004852315,5.892804053894398,3.891021323707483
4.106831575941814,4.352520577522361,5.931714267131473,3.7919109871012773
4.150356781717037,4.488159759286906,5.969633377002486,3.6763828560753793
4.195238379309906,4.620292003943798,6.00639720556324,3.543856208374516
4.2414412993493436,4.748611113030692,6.041835767646985,3.393849321193298
4.28892741047965,4.872921019885904,6.075774260858918,3.2259881742301157
4.337656620678509,4.993155846648887,6.108034142601219,3.0400110039280532
4.387588179144998,5.109399742143458,6.138434252640499,2.8357675173684314
4.438682176566433,5.2219061662522925,6.166791927814184,2.6132115460197087
4.490901238228956,5.331116403525996,6.192924043274381,2.3723859432814702
4.544212402264216,5.437677283789963,6.216647902707196,2.113398606323486
4.5985891751021155,5.542458370688106,6.237781888770431,1.8363886225372124
4.654013758808997,5.646569254044162,6.256145774995803,1.5414816824577358
4.710479451349438,5.751378042395814,6.27156059182038,1.2287340329827763
4.767993231773397,5.858532677692303,6.283847932150208,0.8980643350450921
4.826578558550319,5.969987242175459,6.29282857550066,0.5491728263799529
4.886278430972074,6.088035913398176,6.298320303764459,0.18144722195038915
4.947158790106056,6.215357474639858,6.300134775983963,-0.2061449945038767
5.0093123648524545,6.3550729362500835,6.298073326038924,-0.6151773174344035
5.072863094214956,6.510817060356636,6.29192155286458,-1.0478946439266994
5.137971264818522,6.686819615710647,6.281442606425313,-1.5073427300305295
5.204839460975628,6.88798005345178,6.266369179125007,-1.997468514865552
5.273719261510146,7.119891264514421,6.246394493976352,-2.523122924982451
5.34491817415529,7.388705325605261,6.221163264726528,-3.089808175144161
5.418805227411343,7.700597762739365,6.190265182975086,-3.702817912266953
5.495811205038737,8.060304867454697,6.153237003852416,-4.365020305727108
5.576414253713284,8.46768690060857,6.109586800795145,-5.071802117015717
5.66109112271937,8.910570378608726,6.058868779624988,-5.800722519239048
5.750196826505457,9.352301482416703,6.000861554432597,-6.493731390158344
5.843719841329624,9.717732724759186,5.935924240531014,-7.037396947082561
5.940897168577216,9.898558496110024,5.865550271060188,-7.271052168389289
6.039882753538316,9.811856115109167,5.792839749376295,-7.071090836241293
6.138001314689407,9.483419443546499,5.722128841013882,-6.471051652790979
6.232835509124872,9.035630909002698,5.657418324485972,-5.645959027263938
6.323191818214899,8.584673347346673,5.600958734213333,-4.765933992945605
6.409038551688366,8.188081119094798,5.553299394283877,-3.9193869278100877
6.490919362879314,7.859857836276993,5.5141055250057756,-3.132614306235435
6.569517941242084,7.595199028720208,5.482779381943422,-2.404376948119717
6.645469931529286,7.383879009492653,5.458735612462225,-1.7251093314568036
6.719308721624213,7.215338064377608,5.441484519147656,-1.0845118899656407
6.791462102267989,7.0801456235470095,5.430639400248,-0.4739546080839627
6.862263558503459,6.970179340678537,5.42589985416716,0.11303063344074216
6.931965351910244,6.878431885170239,5.427030160501568,0.6808726811451652
7.000749670761946,6.798762187158375,5.433838887313019,1.2322406937761663
7.06873729263353,6.725688594612404,5.446161294250781,1.7683359986916964
7.135994178579654,6.654245414540724,5.463844654237698,2.2891609888004663
7.202536632725062,6.579899548489043,5.486736264125702,2.7937643789454736
7.268335628209952,6.498516690951103,5.5146739079151565,3.280469952821125
7.333320795119463,6.406364991526654,5.5474786074433675,3.747094725930598
7.39738444503473,6.300144256240976,5.584949554702673,4.191158819495687
7.460385887597139,6.1770295313230426,5.62686114289763,4.6100857971844045
7.52215618291037,6.0347190171007465,5.672962000869473,5.001389697968736
7.582503373081377,5.87147764697947,5.722975897849161,5.36284374426689
7.641218149551172,5.686169267144002,5.77660433529183,5.692625592021684
7.6980798422226115,5.478272056208315,5.833530591212047,5.9894347137365305
7.752862562784695,5.247873525152902,5.893424938349412,6.252578722657276
7.805341298036224,4.995643082971888,5.955950725575985,6.482026883674182
7.855297728865942,4.722781750264818,6.020770994412726,6.678430567056334
7.90252554636859,4.430950185994864,6.08755530008329,6.84311194818749
7.946835048228539,4.12217776449674,6.155986419565164,6.978023846547239
7.988056825873506,3.798756923602526,6.225766658030636,7.085685200312156
8.026044395109531,3.4631282358605247,6.296623510033758,7.16909817375227
8.060675677468137,3.117762421987237,6.36831449177128,7.231654098628656
8.091853301688008,2.765045645225062,6.440631032757567,7.2770361417889
8.11950375814026,2.4071738163701903,6.513401394175456,7.309126609614338
8.143575496303962,2.0460603682512413,6.586492660271599,7.331926104681159
8.164036099986474,1.6832602359940112,6.65981192131841,7.3494904334060855
8.180868702346414,1.3199109170867929,6.7333068256524715,7.365889412397125
8.194067811517282,0.9566898380284738,6.806965719776443,7.385189733330397
8.203634709897567,0.5937861832707693,6.880817617109747,7.411461918369545
8.209572571730275,0.2308852314879537,6.954932236293442,7.448808992612508
8.211881424045155,-0.13283539466541888,7.029420326219567,7.501411263840566
8.2105530700985,-0.4986944545443214,7.1044344388579725,7.573576269783805
8.205566125553057,-0.8684699675032448,7.180170201555811,7.669773016474118
8.196881425878024,-1.2443104954819248,7.256867931720552,7.7946103474592725
8.184438320923205,-1.6285410625295695,7.334814035195144,7.952682096158132
8.16815291029791,-2.023259016721223,7.414340856156725,8.148132382733667
8.147920320130696,-2.429528460132655,7.495822179984062,8.383674119040315
8.12362503552937,-2.8458556496510794,7.579658921174465,8.658615104806934
8.095166479032859,-3.265518849122746,7.666245072222535,8.96528413805908
8.06251129054163,-3.672503822661018,7.755897913603126,9.283473176308808
8.02578625231502,-4.03700775070755,7.848732645366214,9.574157009711692
7.985416174807945,-4.31474428713281,7.94447421546333,9.778257684667294
7.9422687319366165,-4.4580455655374065,8.042256792310003,9.831459901393293
7.897688276281243,-4.441435606290836,8.140571391323936,9.69882600526781
7.853273920218334,-4.282891555386012,8.237559651376614,9.403490232712823
7.810445004664474,-4.034319770711341,8.331594553703741,9.013401213855419
7.77010180695736,-3.7502996746791144,8.421728565842296,8.599019025438452
7.732598810210569,-3.46761828894849,8.507718756096681,8.206334340567853
7.697922627321084,-3.204215917515496,8.58978209950236,7.856235429133778
7.665880468145929,-2.965989125476783,8.668344453793697,7.554088340601855
7.636220576891161,-2.7528693334329524,8.743885337199716,7.297979057564292
7.608691883556832,-2.562369828998902,8.816865127775358,7.083383553651462
7.583068185266843,-2.3913004860426903,8.887698963311873,6.905339577195546
7.559155180406416,-2.2364979873085225,8.95675235908383,6.7593121130673435
7.53679020053333,-2.0950910225114296,9.024345480214503,6.64146168506354
7.515839290308216,-1.9645630915997245,9.090760097065138,6.5486648362460285
7.496193659392219,-1.842735180554373,9.156246745427598,6.4784440942290695
7.477766307586675,-1.7277226974233448,9.221031186369888,6.428873627383373
7.460489080612442,-1.6178900355785872,9.285319922643723,6.398485813297446
7.4443101802566565,-1.5118125401976008,9.349304780776697,6.386186017602381
7.42919205485468,-1.408250093561924,9.41316664095272,6.391175137561953
7.415109553919061,-1.3061346643431333,9.47707839232834,6.412876027843994
7.402048207275629,-1.204574010693608,9.541207152606779,6.450858176536825
7.390002467168693,-1.1028743636852592,9.605715734372147,6.504753821889231
7.37897372353184,-1.0005858343619338,9.670763272591039,6.57415773166433
7.36896786518822,-0.8975750320809753,9.736504849907682,6.658502238711518
7.359992114867411,-0.7941293129838037,9.803089872294798,6.756899465158967
7.352050821737572,-0.6910951454437423,9.870658866946387,6.867945241276812
7.345139870283135,-0.5900476571538089,9.939338319359155,6.989486107593941
7.339239393711597,-0.4934773670503668,10.009233180435094,7.118364785019161
7.334304620041093,-0.40496141161852295,10.080416828285285,7.250183290781685
7.330255005924907,-0.32926034200264687,10.152918661193102,7.379156571426103
7.32696240250488,-0.27225360838565105,10.226710226907363,7.4981659620336405
7.324239866421023,-0.2406130223547726,10.3016918865277,7.599140914929706
7.321833736197475,-0.24114017002103716,10.377683295676997,7.67386560388703
7.319422334497265,-0.2797860558219013,10.454421951715867,7.715191894924541
7.316624473939046,-0.36052444951430784,10.531573870665113,7.718447429152185
7.313019229443904,-0.4844006450548339,10.608758344956636,7.682638045017265
7.308175222993356,-0.6491143636548502,10.685584725406809,7.610996872841833
7.301684079356807,-0.8493440286945512,10.761694694135228,7.510622231583251
7.293190639069862,-1.077732134656444,10.836800916451061,7.391305077392397
7.2824133177232975,-1.3261972002672135,10.910713967224986,7.263961329510916
7.269151345720625,-1.5871669097072851,10.983353580520095,7.139169688386127
7.253279676623553,-1.854448464089065,11.054745277403956,7.0261640875051725
7.234735191982662,-2.1236528954628158,11.125006918279007,6.932383708695567
7.213498663028034,-2.3922493128325835,11.194330755365963,6.8634909084889975
7.189576169899708,-2.659393098393794,11.262965664450853,6.823687574526293
7.16298223891577,-2.9256660191752726,11.331202540196117,6.816171203005948
7.133725578724017,-3.1928264216906572,11.399364252226176,6.84362400512103
7.1017973145071105,-3.463625651246418,11.467800492277387,6.90868384661286
7.067161057994646,-3.7417169367333796,11.536887330743516,7.014388077477964
7.029743888627312,-4.031667255738283,11.607031211518295,7.164608215954314
6.989427216069929,-4.339077584301395,11.678677293677838,7.364508680758813
6.946036440226915,-4.670816890243298,11.752322380485426,7.621069372261631
6.899328271324482,-5.035372173100107,11.828533074208043,7.943707098906868
6.84897454959348,-5.4432939282475905,11.907970145197112,8.344996702403638
6.794541610311004,-5.907629177846494,11.991420112221148,8.84137084540487
6.7354653185325395,-6.443958261234388,12.079833820675196,9.453296748719419
6.671025735920195,-7.0688428712246925,12.17436678816239,10.203309877285811
6.6003373072079485,-7.793274993859963,12.276399886935248,11.107200966431886
6.522404557269349,-8.60245336326718,12.387471896599568,12.146292040481578
6.436380023636677,-9.405989355478752,12.508934817004384,13.198525409962564
6.34232013008189,-9.962187375673391,12.64092007110401,13.933032177620946
6.2426982563251565,-9.921263549496025,12.78025039288022,13.869516457013129
6.143485620830196,-9.214203834056585,12.918945557450352,12.916721421932966
6.05134358248963,-8.23389890739008,13.04811277166968,11.617705300541036
5.969004593415729,-7.324995263397769,13.164289824675091,10.441385269725956
5.895754640781751,-6.57673284034168,13.26870367737235,9.50391419316108
5.829987312378335,-5.971157741803275,13.363742819303962,8.776960543064806
5.770275734960302,-5.473708331704562,13.45151242473461,8.211829679643966
5.715538651643256,-5.055400574716021,13.533630721531049,7.768919951092305
5.664984645896096,-4.694862778462146,13.611319921041972,7.419890303972062
5.618036018111475,-4.376639726740264,13.685518824081692,7.144999448964329
5.574269620844072,-4.0894232080491415,13.756968818571336,6.930481637775296
5.533375388763581,-3.8247718753160997,13.82627363494909,6.7666373276836955
5.49512767001042,-3.5762718187887583,13.893940008225925,6.646515258633372
5.459364951822532,-3.3390189528245635,13.96040516081226,6.5649820219104
5.425974762294286,-3.1093321967441576,14.026054981031363,6.518020051434046
5.394881440326845,-2.884638607469179,14.091235181545704,6.502145801102779
5.366035054252153,-2.6634906254974835,14.156256639556732,6.513881784334577
5.339400147997178,-2.4456785507169334,14.221395457400078,6.5492555230152805
5.314943362490009,-2.232387457194257,14.28688801263023,6.603343834815707
5.292619487918066,-2.0263187811950703,14.352921450978387,6.669935631538198
5.272356300106115,-1.8316628457349746,14.41962080729377,6.741440742889084
5.254039671648766,-1.6537943014447853,14.48703521472266,6.809195782512645
5.237501728634318,-1.4986048795745366,14.555127172547786,6.864263795445108
5.222515679838573,-1.3715128573976685,14.623769810502237,6.898661014844579
5.208800551264596,-1.2763685474726105,14.692756420650683,6.906711746234283
5.1960368657898695,-1.2146074948469596,14.761823538113026,6.886068412919442
5.1838907908414,-1.1849676001408744,14.83068422224222,6.837993426382011
5.172041114839992,-1.1838634015454943,14.899064156506041,6.766800170179508
5.160202480824537,-1.206232903506036,14.966732158207837,6.678710813473359
5.148140151789476,-1.246518705236361,15.03351926634257,6.580576332250368
5.135674964737112,-1.2994835518249659,15.099325029665073,6.478840278238447
5.122680129218862,-1.3607148401639917,15.164113432447458,6.378920275972988
5.109072980817222,-1.4268236174754136,15.227902635207188,6.284986706394705
5.0948047446424685,-1.4954252360108369,15.290752502271136,6.2000180100183355
5.07985049228236,-1.565002427527848,15.35275268237132,6.126000133187413
5.064200468007082,-1.6347285901342545,15.414012683703193,6.064170907556952
5.047853182105739,-1.7042978509933364,15.474654392778763,6.015251927087042
5.030810203595806,-1.7737833059868904,15.534806912049634,5.979643077580261
5.013072370535937,-1.8435291233387143,15.594603342825437,5.957574705641357
4.99463707930255,-1.91407424625372,15.65417908988185,5.949222136334703
4.975496336840013,-1.986102410673618,15.713671311245198,5.954790702214142
4.9556353127332775,-2.0604127775177594,15.77321921826734,5.97457965439818
4.9350311849581,-2.137906160623196,15.832965014811322,6.009032150121442
4.913652123351868,-2.219582764954155,15.893055336312536,6.0587768943178215
4.891456295702326,-2.3065480790035084,15.953643105255713,6.124665297070693
4.868390814912291,-2.400023799455922,16.01488975822642,6.207806145683928
4.844390576917732,-2.501360095348435,16.07696781968326,6.309597414051371
4.819376975964247,-2.6120436358543313,16.140063793823774,6.431751189379491
4.793256539605704,-2.73369167094254,16.20438130571757,6.576301404401279
