th1 (rad),w1 (rad/s),th2 (rad),w2 (rad/s),a1 (rad/s^2),a2 (rad/s^2)
0.09073186885934176,-1.2028989620322716,2.817442514595016,0.1564653692546042,-4.435651132887558,-7.76392590960826
0.07870287923901904,-1.2472554733611472,2.819007168287562,0.07882611015852159,-4.30160819099902,-7.674318209711012
0.06623032450540757,-1.2902715552711375,2.8197954293891474,0.002082928061411471,-4.154521462404105,-7.575028094875005
0.0533276089526962,-1.3318167698951786,2.8198162586697615,-0.07366735288733858,-3.994946947068277,-7.466291117906227
0.040009441253744414,-1.3717662393658614,2.819079585140888,-0.14833026406640087,-3.823504930851601,-7.348447244292265
0.0262917788600858,-1.4100012886743774,2.817596282500224,-0.22181473650932354,-3.640876587774181,-7.221938572357916
0.012191765973342025,-1.4464100545521192,2.815378135135131,-0.2940341222329027,-3.447799470274958,-7.087305148036374
-0.0022723345721791677,-1.4808880492548688,2.812437793912802,-0.3649071737132664,-3.2450619827632763,-6.945178964947522
-0.01708121506472786,-1.5133386690825017,2.8087887221756693,-0.43435896336274166,-3.033496961808663,-6.796276292917895
-0.03221460175555288,-1.5436736387005883,2.804445132542042,-0.5023217262919206,-2.8139745087925925,-6.641388523777092
-0.047651338142558765,-1.5718133837885142,2.799421915279123,-0.5687356115296915,-2.587394236998561,-6.481371760491029
-0.0633694719804439,-1.5976873261584998,2.793734559163826,-0.6335493291346018,-2.3546771045779,-6.317135403248598
-0.07934634524202891,-1.621234097204279,2.78739906587248,-0.6967206831670878,-2.1167570076217324,-6.149630003388588
-0.0955586862140717,-1.6424016672804962,2.7804318590408093,-0.7582169832009736,-1.874572304075302,-5.979834662997982
-0.11198270288687666,-1.6611473903212493,2.7728496892087997,-0.8180153298309535,-1.6290574301312868,-5.808744255120048
-0.12859417679008917,-1.6774379646225621,2.7646695359104903,-0.876102772382154,-1.3811347569423273,-5.637356727719263
-0.1453685564363148,-1.6912493121919854,2.7559085081866685,-0.9324763396593466,-1.131706818053858,-5.466660735144675
-0.16228104955823466,-1.702566380372524,2.746583744790075,-0.9871429470107934,-0.8816490179931301,-5.297623815329299
-0.1793067133619599,-1.7113828705524552,2.7367123153199673,-1.0401191851640863,-0.6318029110631102,-5.131181300991847
-0.19642054206748447,-1.7177008996630863,2.7263111234683266,-1.0914309981740047,-0.38297011760846955,-4.968226120307978
-0.21359755106411532,-1.7215306008391709,2.7153968134865867,-1.1411132593770845,-0.13590692375029526,-4.8095996084512596
-0.23081285707250704,-1.7228896700766738,2.7039856808928158,-1.1892092554615972,0.10868040942311734,-4.656083417477049
-0.24804175377327378,-1.7218028659824427,2.6920935883382,-1.2357700896363677,0.35013961938613997,-4.508392579447385
-0.2652597824330982,-1.7183014697885812,2.679735887441836,-1.2808540154308417,0.5878757065059224,-4.367169747460701
-0.282442797130984,-1.712422712723522,2.6669273472875274,-1.3245257129054486,0.8213535106316007,-4.232980612117761
-0.29956702425821924,-1.7042091776172061,2.653682090158473,-1.3668555190266263,1.0500996321297535,-4.106310467467599
-0.3166091160343913,-1.6937081812959085,2.640013534968207,-1.4079186237013022,1.2737037376121634,-3.987561880980106
-0.3335461978473504,-1.680971143919787,2.6259343487311937,-1.4477942425111032,1.4918192960561936,-3.8770534067618767
-0.35035590928654825,-1.666052950959225,2.6114564063060826,-1.486564776578722,1.704163793990552,-3.7750192701073018
-0.3670164387961405,-1.6490113130193196,2.5965907585402954,-1.524314969279795,1.9105184790692276,-3.681609944487591
-0.3835065519263337,-1.6299061282286273,2.5813476088474974,-1.561131068724671,2.110727679863112,-3.5968935390751984
-0.39980561320861996,-1.6087988514299962,2.5657362981602505,-1.5971000041154229,2.304697746249919,-3.5208579156686963
-0.4158936017229199,-1.585751873967497,2.5497652981190964,-1.6323085832721098,2.492395649569825,-3.4534134581675238
-0.43175112046259484,-1.5608279174717987,2.533442212286375,-1.666842717853785,2.673847274932125,-3.3943964252534236
-0.4473593996373128,-1.5340894447224775,2.516773785107837,-1.7007866821063193,2.8491354299136966,-3.343572827335085
-0.46270029408453756,-1.5055980904233406,2.4997659182867737,-1.7342224103796702,3.0183975846118214,-3.3006427817287456
-0.47775627498877093,-1.4754141145772224,2.482423694182977,-1.7672288381969576,3.1818233478699876,-3.2652453150447927
-0.49251041613454316,-1.4435958810985225,2.4647514058010076,-1.7998812913474056,3.3396516738124666,-3.23696359831321
-0.5069463749455284,-1.4101993643603978,2.4467525928875333,-1.8322509273305376,3.4921677820097323,-3.215330617887722
-0.5210483685891324,-1.3752776865403005,2.428430083614228,-1.8644042335094149,3.6396997641660973,-3.199835302863134
-0.5348011454545354,-1.3388806888986395,2.409786041279134,-1.8964025865380463,3.7826148408133617,-3.1899291467035966
-0.5481899523435217,-1.3010545404905058,2.3908220154137534,-1.9283018780050822,3.9213152238957036,-3.185033375904533
-0.5612004977484268,-1.261841388251549,2.3715389966337024,-1.9601522117641275,4.0562335362803275,-3.184546730489158
-0.5738189116309423,-1.2212790528887456,2.351937474516061,-1.991997679069019,4.187827738212871,-3.1878539284648775
-0.5860317021598298,-1.179400775506617,2.3320174977253707,-2.0238762183536676,4.316575514766353,-3.1943348873581323
-0.5978257099148959,-1.1362350203589533,2.311778735541834,-2.055819567227249,4.442968088685011,-3.2033747688277865
-0.6091880601184855,-1.0918053394721032,2.2912205398695615,-2.0878533149155265,4.567503440958366,-3.2143748953530773
-0.6201061135132065,-1.0461303050625195,2.2703420067204063,-2.1199970638690573,4.690678948084499,-3.226764559503176
-0.6305674165638318,-0.9992235155816744,2.249142036081716,-2.152264709464089,4.812983481081417,-3.240013705122844
-0.6405596517196485,-0.9510936807708603,2.227619388987075,-2.1846648465153176,4.934889057135272,-3.253646405395925
-0.6500705885273571,-0.9017447901995076,2.2057727405219216,-2.2172013105692767,5.056842189813006,-3.2672549956685883
-0.6590880364293522,-0.8511763683013776,2.183600727416229,-2.2498738605259625,5.179255146475373,-3.280514640968431
-0.667599800112366,-0.7993838168366239,2.161101988810969,-2.2826790069356466,5.302497389129381,-3.2931980328430033
-0.6755936382807322,-0.7463588429453301,2.1382751987416126,-2.3156109872640767,5.426887543308171,-3.3051898228370895
-0.6830572267101854,-0.6920899675122484,2.1151190888689717,-2.3486628854924474,5.552686303132751,-3.3165003179296493
-0.6899781263853079,-0.6365631044809209,2.091632460014047,-2.3818278886717437,5.680090732772034,-3.327277895582563
-0.6963437574301171,-0.5797621971532005,2.0678141811273294,-2.4151006676275695,5.8092304575847,-3.3378195529508807
-0.7021413794016491,-0.5216698925773535,2.0436631744510536,-2.4484788631570784,5.940166244730035,-3.3485789968518667
-0.7073580783274227,-0.4622682301300532,2.0191783858194827,-2.481964653125597,6.072891446262205,-3.36017171802292
-0.7119807606287233,-0.4015393156674311,1.9943587392882267,-2.5155663703058266,6.207336712926157,-3.3733765824515625
-0.7159961537853976,-0.3394659485381695,1.9692030755851684,-2.5493001361303422,6.3433782824229725,-3.389133617751115
-0.7193908132707793,-0.2760321657139398,1.9437100742238649,-2.5831914723078535,6.480850004299211,-3.408537872118188
-0.7221511349279186,-0.2112236656709477,1.9178781595007863,-2.617276851029035,6.619559092098785,-3.432829469692298
-0.7242633715846281,-0.14502807474995982,1.891705390990496,-2.651605145725958,6.7593054041056835,-3.4633802652300916
-0.7257136523321277,-0.07743502070890299,1.8651893395332364,-2.686238948378259,6.89990386322544,-3.50167779349447
-0.7264880025392167,-0.008435982076648585,1.838326950049454,-2.7212557263132036,7.041209453462202,-3.5493074914999307
-0.7265723623599832,0.06197611245797344,1.8111143927863218,-2.756748801228203,7.183144095019421,-3.6079344205353756
-0.7259526012354035,0.13380755340816763,1.7835469047740398,-2.792828145433557,7.325724620671739,-3.6792859076426008
-0.7246145257013218,0.20706479961488503,1.7556186233197042,-2.829621004509983,7.469091067119532,-3.7651366463705807
-0.7225438777051729,0.2817557102860804,1.7273224132746043,-2.867272370973689,7.6135345649772175,-3.8672978358835306
-0.7197263206023121,0.3578910559358526,1.6986496895648675,-2.9059453493325242,7.759524261179895,-3.9876118978060533
-0.7161474100429536,0.43548629854765153,1.6695902360715422,-2.9458214683105846,7.907732932059902,-4.127954204222879
-0.7117925470574771,0.5145636278682506,1.6401320213884363,-2.9871010103528133,8.059061232202128,-4.29024310057073
-0.7066469107787946,0.5951542401902719,1.610261011284908,-3.0300034413585206,8.214660857513744,-4.476459344068493
-0.7006953683768918,0.6773008487654093,1.5799609768713228,-3.0747680347992055,8.375957263625068,-4.68867593693347
-0.6939223598892378,0.76106042140166,1.5492132965233307,-3.12165479416854,8.544672957474367,-4.929099250633346
-0.6863117556752212,0.8465071509764036,1.5179967485816452,-3.170945786674874,8.722852760007047,-5.200122348278721
-0.6778466841654571,0.9337356785764741,1.4862872907148965,-3.222947010157661,8.912892817327482,-5.5043915491153905
-0.6685093273796924,1.0228646067497489,1.45405782061332,-3.277990925648815,9.117575520237121,-5.844887569740373
-0.6582806813121949,1.1140403619521202,1.4212779113568317,-3.3364398013462186,9.340112889617345,-6.225023044506612
-0.6471402776926737,1.2074414908482936,1.3879135133433695,-3.398690031791285,9.584201415858562,-6.648758891795123
-0.6350658627841907,1.3032835050068792,1.3539266130254566,-3.465177620709236,9.85409182626682,-7.120742868026611
-0.622033027734122,1.4018244232695474,1.3192748368183642,-3.5363850493895024,10.15467781462805,-7.646474744429862
-0.6080147835014265,1.5033712014158278,1.283910986324469,-3.612849796833801,10.491608408792716,-8.232503842931466
-0.5929810714872682,1.6082872855037549,1.247782488356131,-3.6951748352631157,10.87142935029892,-8.88666612924696
-0.5768981986322307,1.717001579006744,1.2108307400034999,-3.7840414965555853,11.30175952133056,-9.618369552041374
-0.5597281828421632,1.8300191742200498,1.172990325037944,-3.880225192075999,11.791508846760626,-10.43893753015032
-0.5414279910999626,1.9479342626876561,1.134188073117184,-3.984614567377502,12.351143716080493,-11.36202076051492
-0.5219486484730861,2.071445699848461,1.094341927443409,-4.098234774982651,12.993003765626499,-12.404085464922812
-0.5012341914746015,2.2013757375047263,1.0533595796935824,-4.222275629631879,13.731667732397314,-13.584979004298306
-0.4792204340995542,2.3386924148286994,1.0111368233972635,-4.358125419674862,14.5843518596218,-14.928555829393026
-0.45583350995126726,2.4845359334249175,0.9675555692005149,-4.507410977968792,15.571293745641514,-16.46330677328166
-0.43098815061701806,2.6402488708813325,0.9224814594208269,-4.672044045701609,16.71601129042428,-18.222850398647314
-0.4045856619082047,2.8074089837855754,0.8757610189638109,-4.8542725496880825,18.0451983893344,-20.245972210309464
-0.37651157207034897,2.987860967678919,0.8272182934669301,-5.056732271791177,19.587763158101097,-22.57554858769128
-0.3466329623935598,3.18373859925993,0.7766509707490183,-5.28248775766809,21.372008178229205,-25.254996589751766
-0.31479557640096045,3.397458681042222,0.7238260931723375,-5.535037723565607,23.41896387261359,-28.31952415824086
-0.28082098959053825,3.631648319768358,0.6684757159366814,-5.818232965148016,25.728004890704845,-31.77683960666805
-0.24450450639285468,3.888928368675406,0.6102933862852012,-6.136001361214697,28.247485250891778,-35.567233970091365
-0.2056152227061006,4.171403221184324,0.5489333726730543,-6.4916737009156105,30.817719558938045,-39.485335401552256
-0.16390119049425736,4.479580416773705,0.4840166356638982,-6.886527054931133,33.06772994496496,-43.03737955943904
-0.11910538632652032,4.810257716223354,0.41515136511458683,-7.316900850525523,34.2513246891884,-45.213129294115646
-0.07100280916428678,5.1527709631152385,0.34198235660933163,-7.76903214346668,33.0600084886665,-44.223169320822386
-0.019475099533134393,5.483371048001904,0.2642920351746648,-8.211263836674904,27.632007232449645,-37.50503159531503
0.035358610946884646,5.7596911203264005,0.18217939680791578,-8.586314152628054,16.3010676213631,-22.754344838920105
0.09295552215014866,5.922701796540031,0.09631625528163525,-8.813857601017254,-0.49790145563396726,-0.5624308448386128
0.15218254011554896,5.9177227819836915,0.008177679271462707,-8.81948190946564,-18.644037141269976,23.396474576847563
0.21135976793538588,5.731282410570992,-0.0800171398231937,-8.585517163697165,-32.401761803539316,41.25550867101016
0.2686725920410958,5.4072647925355986,-0.16587231146016534,-8.172962076987064,-39.038311418476326,49.337608002187544
0.32274523996645177,5.016881678350836,-0.247601932230036,-7.679585996965188,-39.89038242561517,49.567467622475476
0.37291405674996014,4.617977854094684,-0.3243977921996879,-7.1839113207404335,-37.64889600849707,45.678701504704016
0.419093835290907,4.241488894009713,-0.3962369054070922,-6.727124305693393,-34.30978388932372,40.40207246251853
0.46150872423100414,3.8983910551164755,-0.46350814846402616,-6.3231035810682075,-30.894706871758185,35.11171347002674
0.5004926347821689,3.589443986398894,-0.5267391842747082,-5.97198644636794,-27.80966021807495,30.336636835743317
0.5363870746461579,3.3113473842181445,-0.5864590487383876,-5.668620078010507,-25.16472207038542,26.20596300796982
0.5695005484883393,3.0597001635142904,-0.6431452495184927,-5.406560447930809,-22.94916004094055,22.689601228253576
0.6000975501234822,2.830208563104885,-0.6972108539978008,-5.179664435648273,-21.11151610265016,19.70682455183819
0.6283996357545311,2.6190934020783834,-0.7490074983542835,-4.9825961901298905,-19.592601986155422,17.170139885496468
0.6545905697753149,2.423167382216829,-0.7988334602555824,-4.810894791274926,-18.337634387916587,15.000853196948137
0.6788222435974832,2.239791038337663,-0.8469424081683317,-4.660886259305444,-17.299714176913128,13.13308765509018
0.7012201539808599,2.066793896568532,-0.8935512707613861,-4.529555382754543,-16.43995714633337,11.513457708060653
0.7218880929465452,1.9023943251051982,-0.9388468245889315,-4.414420805673936,-15.726494470708285,10.099362853808602
0.7409120361975972,1.7451293803981154,-0.9829910326456709,-4.31342717713585,-15.133230393889743,8.857058192246782
0.7583633300015783,1.593797076459218,-1.0261253044170293,-4.224856595213382,-14.638684766590442,7.759908820723065
0.7743013007661704,1.4474102287933135,-1.0683738703691632,-4.147257507006151,-14.225018824705604,6.786934040242623
0.7887754030541035,1.3051600405462573,-1.1098464454392247,-4.079388166603724,-13.877253509592826,5.921634232133649
0.8018270034595661,1.166387505450329,-1.1506403271052619,-4.020171824282388,-13.582658939126777,5.151057265443634
0.8134908785140694,1.0305609160590612,-1.1908420453480857,-3.9686612516279514,-13.330286433863122,4.465055620395202
0.8237964876746601,0.8972580517204299,-1.2305286578643653,-3.9240106954239993,-13.110615999169314,3.8556905772170453
0.8327690681918644,0.7661518917287368,-1.2697687648186053,-3.885453789651829,-12.915296229007165,3.316747943063501
0.8404305871091517,0.6369989294386651,-1.3086233027151237,-3.852286310221194,-12.736957811678874,2.8433378882036764
0.8468005764035385,0.5096293513218764,-1.3471461658173356,-3.8238529313391574,-12.569085343136729,2.431558568531131
0.8518968699167572,0.38393849789050905,-1.3853846951307272,-3.799537345653846,-12.405934807892207,2.078209140689279
0.8557362548956623,0.259879149811587,-1.4233800685872655,-3.778755254246953,-12.242485952736432,1.7805426065814676
0.8583350463937781,0.13745429028422268,-1.461167621129735,-3.7609498281811384,-12.074420033175905,1.5360527831257471
0.8597095892966203,0.016710089952463633,-1.4987771194115465,-3.745589300349881,-11.898114263798353,1.3422926810843436
0.859876690196145,-0.1022710526855199,-1.5362330124150452,-3.7321663735390374,-11.71064495706385,1.1967237504975212
0.8588539796692898,-0.21937750225615843,-1.5735546761504355,-3.7201991360340623,-11.509791976976645,1.0965968341967816
0.8566602046467282,-0.3344754220259249,-1.610756667510776,-3.7092331676920947,-11.29403791882845,1.0388662802811766
0.853315450426469,-0.4474158012142094,-1.647848999187697,-3.698844504889283,-11.062556461394953,1.0201385316476435
0.8488412924143268,-0.5580413658281589,-1.6848374442365899,-3.6886431195728067,-10.815185672503238,1.0366557086217234
0.8432608787560453,-0.6661932225531912,-1.7217238754323179,-3.6782765624865896,-10.55238366506302,1.0843133582109472
0.8365989465305134,-0.7717170592038215,-1.7585066410571837,-3.6674334289044803,-10.275165814377798,1.1587098478057005
0.8288817759384751,-0.8744687173475995,-1.7951809753462284,-3.6558463304264235,-9.98502461893359,1.2552230662339794
0.8201370887649991,-0.9743189635369354,-1.8317394386504926,-3.6432940997640837,-9.683835041283974,1.3691084160362874
0.8103938991296298,-1.0711573139497752,-1.8681723796481335,-3.629603015603721,-9.373749622673664,1.4956107791851065
0.799682325990132,-1.1648948101765118,-1.9044684098041706,-3.6146469078118697,-9.05708867003804,1.6300824053917804
0.7880333778883669,-1.2554656968768922,-1.9406148788822895,-3.598346083757952,-8.736231266052512,1.7680986179148195
0.775478720919598,-1.3428280095374174,-1.976598339719869,-3.580665097578804,-8.413512722862226,1.9055638688493124
0.7620504408242238,-1.4269631367660396,-2.012404990695657,-3.561609458890311,-8.091133435090411,2.038801919519375
0.7477808094565634,-1.5078744711169436,-2.04802108528456,-3.541221439695117,-7.771083001044826,2.1646256081054354
0.732702064745394,-1.585585301127392,-2.0834332996815115,-3.5195751836140627,-7.455082130771744,2.2803835845375025
0.7168462117341201,-1.6601361224351094,-2.1186290515176522,-3.496771347768688,-7.144543420705792,2.3839833197372062
0.700244850509769,-1.7315815566421673,-2.153596764995339,-3.4729315145713158,-6.840550711202428,2.473891434282341
0.6829290349433473,-1.7999870637541915,-2.188326080141052,-3.4481926002284924,-6.543855586123293,2.549113792314301
0.6649291643058054,-1.8654256196154244,-2.222808006143337,-3.4227014623053496,-6.254888707350153,2.609158785372048
0.6462749081096512,-1.927974506688926,-2.2570350207663905,-3.396609874451629,-5.973783136339659,2.653987767406421
0.6269951630427619,-1.9877123380523225,-2.291001119510907,-3.370069996777565,-5.700406569783303,2.6839567305867913
0.6071180396622387,-2.0447164037501557,-2.324701819478683,-3.343230429471697,-5.434399463757202,2.69975310410542
0.5866708756247371,-2.099060398387728,-2.3581341237733997,-3.3162328984306426,-5.175216277002028,2.702331107669518
0.5656802716408598,-2.150812561157748,-2.391296452757706,-3.2892095873539473,-4.9221674586334645,2.6928484940289903
0.5441721460292823,-2.2000342357440825,-2.4241885486312453,-3.2622811024136573,-4.6744602715248185,2.672606857939303
0.5221718036718415,-2.246778838459331,-2.456811359655382,-3.2355550338342645,-4.43123702317662,2.642997042679093
0.49970401528724817,-2.291091208691097,-2.489166909993725,-3.2091250634074737,-4.191609728485842,2.605450589662986
0.4767931032003372,-2.3330073059759555,-2.5212581606277995,-3.183070557510844,-3.9546906255288206,2.5613976819370463
0.45346303014057765,-2.3725542122312437,-2.553088866202908,-3.1574565806914734,-3.7196182916226457,2.5122316413797128
0.4297374880182652,-2.40975039514747,-2.5846634320098225,-3.1323342642776764,-3.4855793585617434,2.4592797520032113
0.4056399840667905,-2.4446061887330877,-2.6159867746525993,-3.1077414667576444,-3.251826006765633,2.4037799885964133
0.38119392217945963,-2.477124448800744,-2.647064189320176,-3.0837036668716804,-3.0176895366871133,2.346863116608529
0.3564226776914522,-2.5073013441676153,-2.677901225988893,-3.060235035705595,-2.782590383214926,2.2895395790578585
0.331349664249776,-2.5351272479997644,-2.7085035763459486,-3.0373396399150163,-2.5460449665657445,2.23269058288636
0.3059983917697784,-2.560587697665422,-2.738876972745099,-3.015012734086153,-2.3076697722647754,2.1770628256385653
