th1 (rad),w1 (rad/s),th2 (rad),w2 (rad/s),a1 (rad/s^2),a2 (rad/s^2)
1.8070705824949516,2.9321872037347254,4.637589614643305,-0.41528043230819484,-11.15896074739868,-3.4823929760265764
1.8363924545322987,2.820597596260739,4.633436810320223,-0.4501043620684606,-10.931182141161084,-3.206497132583805
1.8645984304949061,2.711285774849128,4.628935766699539,-0.4821693333942987,-10.665557473980263,-2.8575680650184756
1.8917112882433975,2.6046302001093253,4.624114073365596,-0.5107450140444835,-10.373819851039949,-2.454714854486246
1.9177575902444908,2.5008920015989258,4.619006623225151,-0.535292162589346,-10.066136744356909,-2.014544372386325
1.94276651026048,2.4002306341553568,4.613653701599258,-0.5554376063132093,-9.751056117366849,-1.551093752936746
1.9667688166020336,2.302720072981688,4.608099325536126,-0.5709485438425768,-9.435550665939342,-1.0759174898379145
1.9897960173318505,2.208364566322295,4.6023898400977,-0.581707718740956,-9.12512903882997,-0.5982781541376871
2.0118796629950735,2.117113275933995,4.596572762910291,-0.5876905002823328,-8.823987439477722,-0.1253976745372964
2.0330507957544133,2.028873401539218,4.590695857907467,-0.5889444770277058,-8.535180441778179,0.3372646386968755
2.0533395297698056,1.943521597121436,4.58480641313719,-0.585571830640737,-8.260795304397378,0.7857320533787927
2.07277474574102,1.860913644077462,4.578950694830782,-0.5777145101069491,-8.00211898239933,1.2172450294938668
2.0913838821817947,1.7808924542534688,4.573173549729713,-0.5655420598120104,-7.759791122620307,1.6300205633152178
2.1091928067243293,1.7032945430272657,4.567518129131593,-0.5492418541788583,-7.533939504894893,2.0230412944340546
2.126225752154602,1.6279551479783168,4.562025710589805,-0.5290114412345177,-7.324296702704622,2.3958758008325516
2.142505303634385,1.5547121809512705,4.55673559617746,-0.5050526832261922,-7.13029830479627,2.748529109235521
2.158052425443898,1.4834091979033077,4.551685069345198,-0.47756739213383703,-6.9511640126047345,3.0813210003288454
2.1728865174229313,1.4138975577772603,4.546909395423859,-0.44675418213054857,-6.785963454614995,3.3947889422228186
2.187025493000704,1.3460379232311104,4.542441853602554,-0.41280629270832037,-6.633668768521179,3.6896122264647153
2.200485872233015,1.2797012355458985,4.538313790675471,-0.3759101704436732,-6.493196001535927,3.966553937764574
2.213282884588474,1.2147692755305393,4.534554688971035,-0.3362446310660275,-6.363437249958432,4.22641763269291
2.2254305773437792,1.151134903030955,4.531192242660374,-0.2939804547390984,-6.243285260256509,4.470015942368092
2.236941926374089,1.08870205042839,4.528252438112983,-0.24928029531541748,-6.131651986142413,4.698148687968347
2.2478289468783728,1.027385530566966,4.5257596351598295,-0.202298808435734,-6.027482365823581,4.911588466938709
2.2581028021840424,0.9671107069087301,4.523736647075472,-0.1531829237663469,-5.929764366686986,5.111072009607649
2.2677739092531297,0.9078130632418603,4.5222048178378085,-0.10207220367027041,-5.837536149666092,5.297295909467804
2.2768520398855485,0.8494377017451994,4.521184095801106,-0.049099244575592366,-5.7498910360634135,5.470915591865923
2.2853464169030007,0.7919387913845652,4.52069310335535,0.005609911343066869,-5.665980816171426,5.632546606056111
2.2932658048168464,0.735278983222851,4.520749202468781,0.06193537740362798,-5.585017820337702,5.78276750778288
2.300618594649075,0.679428805019474,4.521368556242817,0.11976305248145679,-5.506276076887058,5.922123748247084
2.3074128826992695,0.6243660442506034,4.522566186767632,0.17898428996392762,-5.429091804884317,6.051132105277037
2.3136565431417755,0.5700751262017603,4.524356029667271,0.239495611016698,-5.352863430393257,6.170285288414713
2.319357294403793,0.5165464918978276,4.526750985777438,0.30119846390084515,-5.277051270111709,6.280056425618886
2.3245227593227713,0.46377597919671054,4.529762970416447,0.363999028157034,-5.201176993748105,6.380903198989557
2.329160519114738,0.41176420925922946,4.533402960698017,0.42780806014692957,-5.124822954254422,6.473271443322721
2.3332781612073306,0.36051597971668525,4.537681041299487,0.49254077458015677,-5.047631461344888,6.5575980568101775
2.3368833210044975,0.3100396651032364,4.542606449045288,0.5581167551482585,-4.969304067191116,6.634313099660576
2.33998371765553,0.2603466244313252,4.5481876165967705,0.6244598861448643,-4.8896009326265455,6.703840975214765
2.342587183899843,0.21145061510505977,4.5544322154582195,0.691498295897012,-4.808340346673211,6.766600600234018
2.3447016900508935,0.16336721163832765,4.56134719841719,0.7591643018993521,-4.72539848096856,6.823004477095897
2.346335362167277,0.11611322682864206,4.568938841436183,0.8273943466703111,-4.640709473123148,6.873456581021609
2.347496494435563,0.06970613209741058,4.577212784902886,0.8961289124805272,-4.55426594870747,6.918348970378076
2.3481935557565374,0.024163472610335884,4.586174074027691,0.9653124021843079,-4.466120110054874,6.958057017638397
2.3484351904826406,-0.020497728490212856,4.595827198049534,1.0348929723606919,-4.376385541015673,6.992933142818927
2.3482302131977386,-0.0642615839003696,4.606176127773141,1.1048223037888811,-4.285239899806096,7.023298910303526
2.347587597358735,-0.10711398289843055,4.61722435081103,1.1750552928919165,-4.192928696636498,7.049435324304944
2.3465164575297504,-0.14904326986479555,4.628974903739949,1.245549646134966,-4.099770378086916,7.071571128600087
2.3450260248311023,-0.1900409736456647,4.6414304002012985,1.3162653574209668,-4.006162964993512,7.0898688840656785
2.3431256150946456,-0.2301026032955998,4.654593053775508,1.3871640462616237,-3.9125925129864374,7.104408565387145
2.3408245890616897,-0.2692285284254642,4.668464694238124,1.4582081319154951,-3.819643681802283,7.115168390028921
2.338132303777435,-0.307424965243487,4.683046775557279,1.5293598158157844,-3.7280127065876703,7.122002574138859
2.335058054125,-0.3447050923093637,4.698340373715436,1.600579841557173,-3.638523054980837,7.124615710430325
2.3316110032019064,-0.38109032285917205,4.714346172131008,1.6718259986614763,-3.5521440182365067,7.122533495153411
2.327800099973315,-0.41661176304153713,4.7310644321176225,1.7430513336130105,-3.470012409563276,7.115069613271954
2.3236339823428995,-0.4513118871371699,4.748494945453753,1.81420202974573,-3.393457409639065,7.101288748057633
2.319120863471528,-0.4852464612335606,4.76663696575121,1.8852149172263064,-3.3240283831759507,7.079965947265913
2.314268398859192,-0.5184867450653201,4.785489114923473,1.9560145766989656,-3.263525159343217,7.049542996824364
2.3090835314085387,-0.5511219966587523,4.8050492606904625,2.026510006667209,-3.214029782992901,7.008083079544296
2.3035723114419513,-0.5832622944886813,4.825314360757135,2.096590837462652,-3.177938056237704,6.953225896004273
2.2977396884970647,-0.6150416750510583,4.8462802691317615,2.166123096422695,-3.157988250792661,6.882146668820523
2.2915892717465542,-0.646621557558985,4.867941500095989,2.2349445631109,-3.157283134681156,6.79152410762907
2.2851230561709643,-0.6781943889057965,4.890290945727098,2.302859804187191,-3.179299895447747,6.677524524995446
2.278341112281906,-0.709987387860274,4.91331954376897,2.369635049437145,-3.2278806725359703,6.53581185232336
2.2712412384033036,-0.7422661945856337,4.937015894263341,2.434993167960379,-3.3071943318432644,6.361596192670345
2.263818576457447,-0.7753381379040664,4.961365825942945,2.4986091298870825,-3.4216580568666703,6.14973647001203
2.2560651950784067,-0.8095547184727331,4.986351917241816,2.560106494587203,-3.5758057213405916,5.894915132464258
2.2479696478936795,-0.8453127756861389,5.011952982187688,2.6190556459118457,-3.774089535267077,5.59190382603029
2.239516520136818,-0.8830536710388097,5.038143538646806,2.6749746841721485,-4.020603100410785,5.235937152168784
2.23068598342643,-0.9232597020429175,5.064893285488528,2.727334055693836,-4.318719002946396,4.823205370437081
2.221453386406001,-0.9664468920723814,5.092166626045466,2.775566109398207,-4.670643699440404,4.351464398712605
2.211788917485277,-1.0131533290667856,5.119922287139448,2.819080753385333,-5.076907655003025,3.8207413096377634
2.201657384194609,-1.0639224056168157,5.148113094673302,2.8572881664817102,-5.535829386037982,3.234085651929088
2.191018160138441,-1.1192806994771956,5.176685976338119,2.8896290230010013,-6.043016291613423,2.5982837497051507
2.179825353143669,-1.1797108623933297,5.205582266568129,2.915611860498053,-6.590988350501537,1.9244206159489448
2.1680282445197356,-1.245620745898345,5.2347383851731095,2.9348560666575425,-7.16902557235752,1.2281520634197796
2.155572037060752,-1.3173110016219203,5.264086945839685,2.9471375872917402,-7.763337523546131,0.5295502788567511
2.1423989270445327,-1.3949443768573815,5.293558321712602,2.9524330900803077,-8.357625432407247,-0.14757936978237524
2.128449483275959,-1.478520631181454,5.323082652613405,2.950957296382484,-8.934051683612031,-0.776939822936298
2.1136642769641445,-1.5678611480175744,5.35259222557723,2.943187898153121,-9.474554446485392,-1.331468501750843
2.097985665483969,-1.6626066924824283,5.382024104558761,2.929873213135613,-9.962363654614501,-1.7853628703079814
2.0813595985591444,-1.7622303290285732,5.411322836690117,2.912019584432533,-10.383512360801477,-2.116131651587361
2.063737295268859,-1.866065452636588,5.440443032534443,2.8908582679166592,-10.728117074572655,-2.3063636002356303
2.045076640742493,-1.9733466233823147,5.4693516152136095,2.867794631914303,-10.991233312592179,-2.34494214813889
2.02534317450867,-2.0832589565082364,5.498029561532753,2.8443452104329143,-11.1731720819946,-2.2275351017106515
2.0045105849435876,-2.1949906773281826,5.526473013637082,2.822069859415808,-11.279267062297004,-1.9563255688522738
1.9825606781703058,-2.307783347951153,5.55469371223124,2.802506603727285,-11.319181146143118,-1.5390842022206788
1.9594828446907944,-2.420975159412584,5.582718778268513,2.7871157617050786,-11.305909332458524,-0.9877789593994124
1.9352730930966686,-2.534034252737169,5.610589935885564,2.7772379721110845,-11.254660301667519,-0.3169586220867354
1.909932750569297,-2.6465808557538444,5.638362315606675,2.7740683858902173,-11.181783877514288,0.457868263060812
1.8834669420117585,-2.7583986945289873,5.666102999465577,2.7786470685208253,-11.103869257740266,1.321690413795944
1.8558829550664686,-2.86943738710639,5.693889470150785,2.791863972658785,-11.037086284531275,2.261187987658641
1.8271885811954047,-2.9798082499517027,5.721808109877373,2.814475852535371,-10.996793497370035,3.2656324900032376
1.7973904986958877,-3.089776184925403,5.749952868402727,2.8471321774354035,-10.99740090876941,4.3275140982414655
1.7664927368466337,-3.199750194013097,5.778424190177081,2.890407318417818,-11.052455117062125,5.442952659387825
1.7344952349065026,-3.3102747451837184,5.80732826336126,2.944836845011696,-11.174908057575834,6.61196624422712
1.7013924874546653,-3.4220238257594766,5.836776631811377,3.0109565074539675,-11.377534887835202,7.838676461593073
1.6671722491970706,-3.5357991746378286,5.8668861968859165,3.089343272069898,-11.673477407716991,9.131528155856364
1.6318142574506924,-3.6525339487149986,5.897779629606616,3.180658553628462,-12.076903954409254,10.503597372165586
1.5952889179635423,-3.773302988259091,5.9295862151429,3.2856945273501177,-12.603792839410636,11.97305901270498
1.5575558880809515,-3.8993409166531974,5.962443160416401,3.4054251174771677,-13.272862890043095,13.563886328947227
1.5185624789144194,-4.032069545553628,5.996497411591173,3.5410639807666398,-14.106690489185967,15.306858391816018
1.4782417834588832,-4.1731364504454875,6.0319080513988395,3.6941325646848,-15.133065608857445,17.240956241092597
1.4365104189544284,-4.324467106534062,6.068849377045687,3.866542127095726,-16.38664415099492,19.41522519406227
1.3932657478890877,-4.488333548044011,6.107514798316645,4.060694379036349,-17.910936042080525,21.891148754708595
1.3483824124086476,-4.667442908464817,6.1481217421070085,4.2796058665834344,-19.760592507306786,24.745468131184115
1.3017079833239995,-4.865048833537885,6.1909178007728425,4.5270605478952755,-22.00373677412762,28.07307070447425
1.2530574949886206,-5.085086201279161,6.236188406251795,4.807791254940018,-24.723518833442064,31.988778320145606
1.202206632975829,-5.332321389613582,6.284266318801195,5.1276790381414745,-28.01669314693593,36.6249278420768
1.148883419079693,-5.612488321082941,6.33554310918261,5.493928316562243,-31.983715563404715,42.11700567608344
1.0927585358688636,-5.932325476716988,6.390482392348233,5.915098373323077,-36.6971404872789,48.55877884133683
1.0334352811016938,-6.299296881589777,6.449633376081463,6.400686161736445,-42.11779052031951,55.88408112299914
0.970442312285796,-6.720474786792972,6.513640237698827,6.959526972966437,-47.89296283176573,63.58297955368318
0.9032375644178663,-7.19940441511063,6.583235507428491,7.595356768503269,-52.91778405936135,70.08532948687099
0.83124352026676,-7.728582255704243,6.659189075113524,8.296210063371978,-54.551508728970276,71.65950215533906
0.7539576977097175,-8.274097342993946,6.742151175747244,9.012805084925368,-47.876272614704476,61.3703404594918
0.6712167242797781,-8.75286006914099,6.832279226596498,9.626508489520287,-27.261147310763363,31.276252827552458
0.5836881235883682,-9.025471542248624,6.9285443114917005,9.93927101779581,6.15777712333573,-17.061099539211103
0.49343340816588194,-8.963893771015266,7.027937021669659,9.768660022403699,37.891734567278235,-63.32558658220392
0.40379447045572925,-8.584976425342484,7.125623621893696,9.135404156581659,53.12123148501264,-86.70764758230223
0.3179447062023044,-8.053764110492358,7.216977663459512,8.268327680758636,52.77082174277246,-88.42224139181064
0.23740706509738085,-7.526055893064633,7.299660940267098,7.38410526684053,45.49079323082438,-80.49962609117178
0.16214650616673454,-7.07114796075639,7.373501992935504,6.579109005928812,36.98270140369143,-70.88124517009861
0.09143502655917064,-6.701320946719475,7.439293082994792,5.870296554227826,29.31489675583258,-62.45859089765148
0.024421817091975884,-6.40817197916115,7.49799604853707,5.245710645251311,22.89821028575984,-55.816747804365015
-0.03965990269963561,-6.1791898763035515,7.550453154989583,4.687543167207661,17.62071407798329,-50.80863221127642
-0.10145180146267113,-6.002982735523719,7.59732858666166,4.179456845094896,13.264285523019794,-47.13204738596953
-0.1614816288179083,-5.87033988029352,7.639123155112609,3.708136371235201,9.6280722547607,-44.500147539911474
-0.22018502762084352,-5.7740591577459135,7.676204518824961,3.263134895836086,6.554998686065487,-42.67742791964058
-0.27792561919830266,-5.708509170885258,7.708835867783322,2.83636061663968,3.930244502018937,-41.4768618589326
-0.33501071090715523,-5.6692067258650685,7.737199473949719,2.421591998050354,1.6735074252889046,-40.74856083986627
-0.3917027781658059,-5.65247165161218,7.761415393930222,2.0141063896516913,-0.2687325617239334,-40.368797037532296
-0.4482274946819277,-5.655158977229419,7.781556457826739,1.6104184192763684,-1.9296191602386814,-40.231507505703426
-0.5047790844542219,-5.674455168831806,7.797660642019503,1.208103344219334,-3.3270805792270464,-40.2424600671476
-0.56152363614254,-5.7077259746240765,7.809741675461696,0.8056787435478581,-4.468139617309136,-40.31579742810678
-0.6186008958887808,-5.752407370797168,7.817798462897175,0.4025207692667903,-5.352734992258837,-40.37261294588495
-0.6761249695967524,-5.8059347207197565,7.8218236705898425,-0.001205360192059246,-5.977280865629959,-40.34120567799334
-0.7341843168039499,-5.865707529376056,7.8218116169879215,-0.4046174169719926,-6.338030483416625,-40.15861773477408
-0.7928413920977104,-5.929087834210223,7.817765442818201,-0.8062035943197334,-6.434156137689858,-39.772969587870435
-0.8521322704398127,-5.993429395587121,7.809703406875004,-1.2039332901984379,-6.270338739145712,-39.146015631675866
-0.9120665643956839,-6.056132782978579,7.797664073973019,-1.5953934465151964,-5.858603977336969,-38.25529630970865
-0.9726278922254696,-6.114718822751948,7.781710139507867,-1.977946409612283,-5.219168691492754,-37.09531294812984
-1.033775080452989,-6.1669105096668755,7.761930675411744,-2.348899539093581,-4.380171784538049,-35.67731880041043
-1.0954441855496577,-6.210712227512256,7.7384416800208085,-2.7056727270976855,-3.376333552054831,-34.02758493385596
-1.1575513078247803,-6.244475563032805,7.711384952749832,-3.045948576436245,-2.2467682287151094,-32.18430273273855
-1.2199960634551084,-6.266943245319956,7.680925466985469,-3.3677916037636306,-1.032313046908745,-30.19354655712708
-1.282665495908308,-6.2772663757890435,7.647247550947833,-3.6697270693349013,0.22720649279772195,-28.104872361825294
-1.3454381596661984,-6.274994310861066,7.610550280254484,-3.9507757929531544,1.4953918224845435,-25.967140177547286
-1.408188102774809,-6.2600403926362205,7.5710425223249525,-4.210447194728627,2.7410930757154253,-23.825035546958556
-1.4707885067011712,-6.232629461879066,7.528938050377667,-4.4486975501982124,3.939507131413887,-21.716576819807294
-1.5331148013199618,-6.193234390564927,7.484451074875684,-4.665863318396285,5.072558564664755,-19.671692160800937
-1.5950471452256112,-6.14250880491828,7.437792441691721,-4.862580240004295,6.12867135799302,-17.71178157414478
-1.656472233274794,-6.08122209133835,7.389166639291679,-5.039698055745743,7.102093309761334,-15.850071415166294
-1.7172844541881775,-6.010201158240736,7.338769658734221,-5.198198769897406,7.991945937325551,-14.092524593818272
-1.777386465770585,-5.930281698867481,7.286787671035247,-5.339124015835589,8.801153062558475,-12.439075950347195
-1.8366892827592598,-5.842270168241896,7.233396430876891,-5.4635147753390605,9.535366005862166,-10.884999695180559
-1.8951119844416788,-5.746916508183275,7.178761283123501,-5.572364772290866,10.201964710651744,-9.422266003590913
-1.9525811495235117,-5.644896861076758,7.123037635400593,-5.666587432326775,10.809180095524187,-8.040793439522783
-2.0090301181342793,-5.536805060121516,7.066371761077325,-5.746995366722003,11.365357158603533,-6.729545223145739
-2.0643981687354946,-5.42315148853548,7.008901807410105,-5.81429081895346,11.878361389295028,-5.47744761028418
-2.1186296836208496,-5.30436787464253,6.95075889922057,-5.869065295056302,12.355121616206926,-4.2741281440722885
-2.171673362367275,-5.1808166584804605,6.892068246270007,-5.911806576497025,12.801298521187901,-3.1104822548950146
-2.2234815289520795,-5.052803673268581,6.832950180505037,-5.9429113990459745,13.221067591716508,-1.9790811754174233
-2.274009565684765,-4.920592997351416,6.7735210665145775,-5.962702210800149,13.617006467267439,-0.8744348658203582
-2.3232154956582796,-4.7844229326787415,6.713894044406576,-5.971446559458353,13.990078087353421,0.20687733902370703
-2.371059724985067,-4.644522151805207,6.654179578811992,-5.969377786068116,14.339701849272013,1.266196822622568
-2.417504946503119,-4.501125133312486,6.594485800951311,-5.95671581784189,14.663904638700764,2.3028853679510255
-2.4625161978362438,-4.354486086925479,6.534918642772892,-5.93368696416238,14.959541997655778,3.3145224018028414
-2.5060610587054986,-4.204890666948921,6.475581773131268,-5.900541740144352,15.222577066245547,4.297185631036534
-2.5481099653749877,-4.0526648962864655,6.416576355729825,-5.857569883833986,15.448401765424727,5.245797840170458
-2.5886366143378523,-3.898180878632218,6.358000656891486,-5.805111905432281,15.632181636168339,6.154519283305686
-2.6276184231241744,-3.7418590622705348,6.299949537837163,-5.7435667125992245,15.76920352513794,7.017162264093136
-2.6650370137468795,-3.5841670270191552,6.2425138707111705,-5.6733950899582934,15.85520453220622,7.827602912755978
-2.700878684017071,-3.425614981697093,6.185779919811588,-5.595119060830734,15.886661722286643,8.580165422502647
-2.7351348338340418,-3.2667483644742266,6.129828729203281,-5.509317406605708,15.86102515747441,9.26995638197963
-2.7678023174787842,-3.1081381128994825,6.074735555137224,-5.416617842785911,15.776881589875574,9.893131250964988
-2.798883698607779,-2.950369297000727,6.020569376709364,-5.317686530276261,15.634042132000243,10.447081031106258
