th1 (rad),w1 (rad/s),th2 (rad),w2 (rad/s)
0.24163296965638312,1.9166198408931059,2.1044915709593766,0.052710875390005726
0.26079916806531417,1.8742142065226481,2.1050186797132766,-0.07904902589292272
0.2795413101305406,1.831461788088831,2.1042281894543473,-0.20876048027581778
0.2978559280114289,1.7886063085767085,2.1021405846515893,-0.3363763713732887
0.315741991097196,1.7458781710459823,2.0987768209378563,-0.46187396342415465
0.3332007728076558,1.7034948203913838,2.0941580813036147,-0.5852539025262214
0.35023572101156963,1.6616612744305712,2.0883055422783525,-0.7065390994250564
0.36685233375587534,1.6205707992968528,2.081240151284102,-0.8257735364860352
0.38305804174884384,1.5804057044691218,2.0729824159192414,-0.9430210389905685
0.39886209879353507,1.5413382337224228,2.063552205529336,-1.058364047668541
0.4142754811307593,1.5035315296867744,2.0529685650526504,-1.1719024255941624
0.42931079642762704,1.4671406514012888,2.041249540796709,-1.2837523284012016
0.4439822029416399,1.4323136260773481,2.028412017512697,-1.3940451623545962
0.4583053392024134,1.3991925180628946,2.014471565889151,-1.5029266502422427
0.47229726438304237,1.3679144995448982,1.9994422993867285,-1.6105560203585896
0.48597640937849135,1.3386129086389171,1.9833367391831425,-1.7171053290039997
0.49936253846488055,1.3114182809676578,1.9661656858931025,-1.8227589217969764
0.5124767212745571,1.2864593403559754,1.9479380966751327,-1.927713033459144
0.5253413146781168,1.2638639325316274,1.9286609663405414,-2.032175519218855
0.5379799540034331,1.2437598822809512,1.9083392111483528,-2.1363657030466836
0.5504175528262426,1.2262757487784461,1.8869755541178859,-2.2405143178103826
0.5626803103140271,1.2115414449864512,1.864570410939782,-2.344863499029499
0.5747957247638916,1.199688674000842,1.8411217759494871,-2.449666775703
0.5867926115039,1.1908511164757947,1.8166251081924571,-2.5551889765716225
0.598701122668658,1.1851642766938173,1.7910732184267408,-2.661705935251883
0.6105527654355962,1.1827648575775007,1.764456159074222,-2.769503828945905
0.6223804140113712,1.1837894830614843,1.736761120784763,-2.878877917450513
0.634218308841986,1.1883725145405568,1.707972341610258,-2.9901303546534233
0.6461020339873916,1.1966426097799767,1.6780710380637236,-3.103566614008912
0.6580684600851914,1.2087175391783571,1.6470353719236346,-3.219489890436217
0.670155635476975,1.224696595572195,1.6148404730192725,-3.338192599088142
0.6824026014326969,1.2446496994759628,1.581458547028391,-3.459943770885941
0.6948490984274566,1.2686020041269164,1.5468591093195316,-3.584970732957922
0.7075351184687257,1.2965124460074238,1.5110094019899525,-3.7134329586057913
0.7205002429288,1.3282442924299467,1.4738750724038945,-3.8453854065062205
0.7337826858530995,1.3635253839976582,1.4354212183388322,-3.9807281393048237
0.747417939693076,1.401895627085305,1.3956139369457838,-4.119138742542228
0.761436895963929,1.4426396957651229,1.3544225495203615,-4.259984505731766
0.7758632929215803,1.4847044453059972,1.3118227044630437,-4.402213279442464
0.7907103373746402,1.5266041410197484,1.2678005716686191,-4.544226643524624
0.8059763787848377,1.5663234549445935,1.2223583052333729,-4.68374815166465
0.8216396133342837,1.6012392780805826,1.1755208237167263,-4.81771436249287
0.8376520061150895,1.6280972903352406,1.1273436800917975,-4.942236583205115
0.8539329790184419,1.6430936983688391,1.0779213142597464,-5.0527010410295885
0.8703639160021303,1.6421159858945809,1.0273943038494504,-5.144080118301887
0.886785075861076,1.621172447254128,0.9759535026664315,-5.211494834748279
0.9029968003336173,1.5769758753918457,0.9238385543189488,-5.250981456042314
0.9187665590875358,1.507553217119053,0.8713287397585256,-5.260288421527901
0.9338420912587263,1.4126810574880855,0.8187258555432466,-5.239433403311289
0.9479689018336072,1.293965472474896,0.7663315215101337,-5.190778324343006
0.9609085565583562,1.15451612167278,0.7144237382667037,-5.118561176193832
0.9724537177750839,0.998337502098988,0.6632381265047653,-5.028058488287182
0.9824370927960738,0.8296599586798781,0.6129575416218935,-4.924683711694938
0.9907336923828726,0.6524059647248491,0.5637107045049442,-4.813284172433267
0.997257752030121,0.46988012394762535,0.5155778627806116,-4.697749825667155
1.0019565532695973,0.28466810793896563,0.46860036452394005,-4.580906469518381
1.004803234348987,0.09867744329121023,0.42279129982875624,-4.464597389397392
1.0057900087818992,-0.08675113080912195,0.37814532593478234,-4.349854693428578
1.004922497473808,-0.2707134596729138,0.33464677900049655,-4.237090370482368
1.002215362877079,-0.4526217550801765,0.2922758752956729,-4.126269291089999
0.9976891453262772,-0.6321061519832013,0.2510131823847729,-4.017049761062588
0.9913680838064451,-0.8089399468302165,0.210842684774147,-3.9088904587266877
0.983278684338143,-0.982985859896707,0.17175378018688012,-3.8011284316633516
0.9734488257391759,-1.1541592160462493,0.1337424958702466,-3.6930344438356504
0.9619072335787134,-1.3224040034472009,0.0968121514318901,-3.583851585117491
0.9486831935442415,-1.4876784118202762,0.060973635580715196,-3.4728219620444842
0.9338064094260387,-1.649947205349076,0.02624541596027035,-3.3592051020592293
0.9173069373725479,-1.8091789566913028,-0.007346635060321946,-3.242290671897134
0.8992151478056348,-1.965346700339238,-0.03976954177929329,-3.1214072994020614
0.8795616808022424,-2.1184309583451393,-0.0709836147733139,-2.995928685254736
0.858377371218791,-2.2684243725532913,-0.10094290162586127,-2.8652777603095902
0.8356931274932581,-2.4153373718258564,-0.12959567922895718,-2.7289293469489135
0.8115397537749995,-2.5592044337985587,-0.1568849726984463,-2.5864115868855677
0.785947709437014,-2.700090586565891,-0.182749088567302,-2.4373062791982725
0.758946803571355,-2.8380978490213637,-0.20712215135928472,-2.2812482147680897
0.7305658250811414,-2.9733713369883916,-0.2299346335069656,-2.1179235869894937
0.7008321117112575,-3.106104768728442,-0.25111386937686053,-1.947067599685507
0.669771064023973,-3.2365450862113723,-0.2705845453737156,-1.768461483095952
0.6374056131618593,-3.3649958608667285,-0.28826916020467513,-1.5819292752082958
0.603755654553192,-3.491819061412831,-0.30408845295675807,-1.387334943661354
0.5688374639390638,-3.6174346058420714,-0.31796180239337163,-1.18458073814633
0.532663117880643,-3.742316868274535,-0.3298076097748349,-0.9736081136072336
0.49523994919789766,-3.866986918959223,-0.33954369091090725,-0.7544032079781715
0.4565700800083054,-3.9919986799278044,-0.34708772299068896,-0.527009775031895
0.41665009320902735,-4.117916299160357,-0.3523578207410079,-0.2915537677411729
0.3754709302174238,-4.245278790240144,-0.3552733584184196,-0.04828555918754979
0.33301814231502236,-4.3745462750381545,-0.3557562140102951,0.20235183019808622
0.2892726795646408,-4.506020016462975,-0.3537326957083142,0.4596171989841603
0.24421247940001106,-4.639726114810439,-0.34913652371847265,0.7223139702900343
0.19781521825190668,-4.775251174948178,-0.3419133840155723,0.9885651388635162
0.1500627065024249,-4.9115196449269165,-0.33202773262693713,1.2555067183066555
0.10094751005315573,-5.04651138848664,-0.3194726654438706,1.5188994389007078
0.05048239616828933,-5.176942032632754,-0.30428367105486354,1.7726935063949012
-0.0012870241580382052,-5.29797728507106,-0.2865567359909145,2.008651350031229
-0.0542667970087488,-5.403129292662446,-0.26647022249060226,2.2162430296053928
-0.10829808993537327,-5.484565128397474,-0.24430779219454835,2.383144691049845
-0.163143741219348,-5.534066253076708,-0.22047634528404988,2.4966796892554814
-0.21848440375011507,-5.5446856981946535,-0.19550954839149506,2.5462627454230193
-0.2739312607320616,-5.51270236872475,-0.17004692093726487,2.526263301627019
-0.32905828441930907,-5.439006586591915,-0.14478428792099468,2.438035644719973
-0.3834483502852282,-5.329080374426918,-0.12040393147379495,2.2899044740368812
-0.4367391540294974,-5.191483633314412,-0.09750488673342614,2.094968020038299
-0.48865399036264157,-5.035651787884491,-0.07655520653304315,1.8678722227347513
-0.5390105082414864,-4.87004026550436,-0.05787648430569564,1.6220540298697128
-0.58771091089653,-4.701155909724881,-0.04165594400699851,1.3682517171778996
-0.6347224699937789,-4.533405131182942,-0.027973426835219514,1.114202168374032
-0.6800565213056083,-4.369409601900865,-0.016831405151479194,0.8650337813784734
-0.723750617324617,-4.210471126412408,-0.00818106733769446,0.6238974635284252
-0.7658553285887411,-4.0570054418709764,-0.0019420927024102067,0.3925711033092492
-0.8064253830074508,-3.9088795974691637,0.0019836183306822857,0.17193704625630848
-0.8455141789821424,-3.7656492819146625,0.0037029887932453704,-0.03767789613225314
-0.883170671801289,-3.6267153919058384,0.003326209831922839,-0.2362756233166806
-0.9194378257203475,-3.4914225548301587,0.000963453598756033,-0.42404240679357585
-0.9543520512686491,-3.359118551567098,-0.003276970469179726,-0.6012607258713911
-0.9879432367843201,-3.2291884329307785,-0.009289577727893638,-0.7682577622285981
-1.0202351211136278,-3.1010726867825182,-0.016972155350179617,-0.9253770866570107
-1.051245847981453,-2.9742755459016914,-0.026225926216749726,-1.0729646170295868
-1.0809886034404699,-2.8483672981228536,-0.036955572387045596,-1.21136308279538
-1.1094722764216984,-2.7229830045800214,-0.0490692032149994,-1.340911333078703
-1.1367021064674987,-2.5978191066502045,-0.06247831654578643,-1.461946193436215
-1.1626802975340007,-2.4726288251832838,-0.07709777848014858,-1.5748054561165223
-1.1874065857858336,-2.347216901206627,-0.0928458330413138,-1.679831151457235
-1.2108787547978999,-2.221434012626897,-0.10964414455588616,-1.7773726075036398
-1.2330930949241687,-2.095171073209753,-0.12741787063092255,-1.8677890344952508
-1.2540448056562663,-1.9683535445297273,-0.14609576097587507,-1.9514515172970772
-1.2737283411015636,-1.8409358474850324,-0.16561027614884583,-2.0287443916817343
-1.292137699576414,-1.7128959342428307,-0.18589772006566316,-2.100066038201982
-1.3092666589188422,-1.5842300660986148,-0.20689838044768297,-2.1658291619784245
-1.3251089595798284,-1.4549478329124552,-0.22855667206746721,-2.226460645529151
-1.339658437908953,-1.3250674427937268,-0.2508212785227587,-2.282401069577418
-1.3529091123368902,-1.1946113051241334,-0.27364528921853287,-2.334103996693793
-1.3648552253881314,-1.0636019252595625,-0.2969863291854708,-2.3820351066716636
-1.375491244640727,-0.9320581253116821,-0.32080668025218745,-2.426671261961094
-1.3848118258938438,-0.799991602640197,-0.3450733928717984,-2.4684995669872665
-1.3928117419202457,-0.6674038367409026,-0.36975838854167103,-2.508016466948698
-1.3994857802876548,-0.5342833570178043,-0.394838553211158,-2.545726909411509
-1.4048286138578328,-0.40060338970460685,-0.4202958223052731,-2.5821435647917723
-1.4088346477548788,-0.2663199135595772,-0.44611725795319085,-2.617786068033111
-1.4114978468904746,-0.13137017302569728,-0.47229511863352197,-2.6531802009066197
-1.4128115486207315,0.004328272832401725,-0.49882692064258816,-2.688856878656553
-1.4127682658924074,0.14087784332108558,-0.5257154894291537,-2.7253507309157623
-1.4113594874591966,0.27840038532214195,-0.5529689967383113,-2.76319796769081
-1.4085754836059752,0.41703550347401847,-0.5806009764152195,-2.802933087165767
-1.404405128571235,0.5569373720676958,-0.6086303072868772,-2.84508380085176
-1.3988357548505579,0.6982694608378132,-0.6370811452953947,-2.890163308558513
-1.3918530602421797,0.8411963831520723,-0.6659827783809799,-2.938658735154849
-1.383441096410659,0.9858717880309495,-0.6953693657325284,-2.991014130562012
-1.3735823785303494,1.1324208675414045,-0.7252795070381485,-3.0476059335807237
-1.3622581698549354,1.2809156610228505,-0.7557555663739557,-3.1087082395133816
-1.349449013244707,1.4313409764381781,-0.7868426487690895,-3.174444686967692
-1.3351356034803252,1.5835485739871682,-0.8185870956387664,-3.2447235105875962
-1.3193001177404535,1.7371975755747757,-0.8510343307446424,-3.319152726367355
-1.3019281419847057,1.891680410631574,-0.884225858008316,-3.3969342795153348
-1.28301133787839,2.0460367976821203,-0.9181952008034693,-3.476740443818006
-1.262550969901569,2.198864299217484,-0.9529626052416493,-3.556584250563418
-1.2405623269093942,2.3482436281478583,-0.9885284477472835,-3.6337093363142143
-1.2170798906279157,2.4917095024158953,-1.0248655411104257,-3.704542502967606
-1.1921627956037568,2.6263095252132893,-1.0619109661401018,-3.7647690336276063
-1.1658997003516238,2.748795289758672,-1.099558656476378,-3.8095937536170768
-1.1384117474540372,2.8559687050967835,-1.1376545940125486,-3.8342216897918755
-1.1098520604030693,2.9451538389146035,-1.1759968109104675,-3.834518701911916
-1.0804005220139232,3.0146915328845365,-1.2143419979295866,-3.8077099437751274
-1.0502536066850778,3.0643007044814263,-1.252419097367338,-3.752898334668657
-1.0196105996402636,3.0951664398781027,-1.2899480807140244,-3.671206316283035
-0.9886589352414825,3.109713354818337,-1.3266601438768548,-3.565480295908549
-0.9575618016932992,3.111150555466908,-1.3623149468359403,-3.4396752524414986
-0.9264502961386301,3.10295083659294,-1.3967116993603552,-3.298144001165968
-0.8954207877727006,3.088413425896958,-1.429693139372015,-3.1450381432773034
-0.864536653513731,3.070386513597594,-1.461143520804788,-2.9839270152720263
-0.8338327883777551,3.051150074176671,-1.4909827909575084,-2.8176362308339744
-0.8033212876359884,3.032416318312003,-1.5191591532658482,-2.648247625383974
-0.7729971244528684,3.015396317451972,-1.545641629519688,-2.477190141129522
-0.7428431612783487,3.000891979920811,-1.5704135309309832,-2.3053657636764044
-0.7128342414791407,2.989388174833099,-1.5934671885677474,-2.133276063582141
-0.6829403597308097,2.9811327661207714,-1.6147999492035687,-1.9611326765640085
-0.6531290320696019,2.9762006438411226,-1.6344112759692089,-1.7889464431994193
-0.6233670256311907,2.974542234383176,-1.6523007404012031,-1.6165959135678816
-0.5936216032873589,2.9760188070418123,-1.668466699536882,-1.443878398640333
-0.5638614152169408,2.9804273304870996,-1.6829054835232853,-1.2705473130367557
-0.5340571419120698,2.9875174230399377,-1.6956109566536528,-1.0963392375662355
-0.5041819676816703,2.997002504614461,-1.7065743490293153,-0.9209935077299334
-0.47421194263552574,3.0085667990164806,-1.7157842841066147,-0.7442664826193983
-0.4441262746453609,3.021869435618924,-1.7232269489328087,-0.5659420789014907
-0.4139075802891717,3.036546581699386,-1.7288863697218235,-0.38583969661193246
-0.38354211447217784,3.0522122969231558,-1.7327447666879428,-0.20382031158905295
-0.3530199915029463,3.068458626244139,-1.7347829698038333,-0.019791245741929142
-0.32233540524050486,3.0848553220026527,-1.7349808822612527,0.16629006839505078
-0.2914868520204783,3.1009494969121714,-1.733317981577302,0.354413154978639
-0.2604773570513566,3.1162654460768797,-1.7297738500275157,0.5445123237519481
-0.2293147025905878,3.1303048296929408,-1.7243287267899963,0.7364652642879101
-0.1980116542936584,3.1425473722193313,-1.7169640741471173,0.9300924606214972
-0.1665861805714651,3.1524522037548928,-1.7076631495409023,1.125157514325178
-0.13506165853391616,3.1594599416150047,-1.6964115743976504,1.3213684818517855
-0.10346705911776612,3.162995582181923,-1.6831978895791326,1.518380336522579
-0.07183710329594689,3.162472243364866,-1.6680140862139068,1.7157986583434246
-0.04021238086229823,3.157295765509481,-1.6508560996304726,1.9131846371169279
-0.008639423207203421,3.1468701430017103,-1.6317242532593033,2.110061447301333
0.022829278222813686,3.1306037202960852,-1.61062363878629,2.3059220181063704
0.05413531542577454,3.1079160452872374,-1.5875644186052262,2.500238180994422
0.08521447587864692,3.0782452308431463,-1.562562036795282,2.692471130912931
0.11599692818707838,3.0410556332645973,-1.5356373254861526,2.8820830893217164
0.14640748451972435,2.995845616044347,-1.5068164945929354,3.0685500087448294
0.1763659406801678,2.942155130429188,-1.4761309945054872,3.251375112752064
0.2057874919844597,2.879572812992581,-1.4436172433779666,3.430103024762687
0.2345832201143855,2.807742276891825,-1.4093162131303398,3.6043342068701043
0.26266064288330376,2.7263672599281326,-1.3732728710616389,3.773739409179329
0.28992431548258507,2.635215291032561,-1.3355354769698455,3.938073824162224
0.3162764683929107,2.534119549081069,-1.2961547387282233,4.097190652386342
0.3416176638837214,2.4229786150558015,-1.2551828322043599,4.251053818383168
0.36584745003427943,2.301753860607072,-1.2126722940205281,4.399749630335223
0.38886498864035013,2.170464271895032,-1.1686747977171759,4.5434972553911415
0.41056963135930047,2.0291785747340962,-1.1232398251632645,4.682657982754366
0.43086141710664144,1.8780046019007632,-1.076413245335721,4.8177433660115465
0.44964146312564907,1.7170759218035132,-1.0282358116756054,4.949422468522158
0.4668122223436842,1.5465358259665165,-0.9787415869903838,5.07852857174186
0.48227758060334935,1.3665188499484802,-0.9279563012729652,5.206065832219318
0.49594276910283414,1.1771300831441347,-0.875895642950772,5.333216467959676
0.5077140699342755,0.9784226228941818,-0.8225634782711753,5.461349086597102
0.5174982961632173,0.7703736819360456,-0.7679499874052043,5.592028683196762
0.5252020329825777,0.552860132921239,-0.7120297005732367,5.727028542643282
0.5307306343117901,0.3256347945018767,-0.6547594151468038,5.8683436166319405
0.5339869822568089,0.08830575659538925,-0.5960759789804844,6.01820361150732
0.5348700398227627,-0.15967708689051702,-0.5358939428654111,6.17908148114132
0.5332732689538575,-0.41902066147060607,-0.47410312805399796,6.3536882935727315
0.5290830623391515,-0.6905585291075251,-0.41056624511827067,6.544936796173511
0.5221774770480763,-0.9751666114593913,-0.34511687715653555,6.755840452215405
0.5124258109334824,-1.2735798049667737,-0.2775584726343815,6.989287436908404
0.49969001288381465,-1.5860317156018062,-0.20766559826529746,7.247583350328248
0.4838296957277966,-1.911590314659385,-0.135189764762015,7.531586504851824
0.46471379258120277,-2.247003316934824,-0.059873899713496756,7.83917404664632
0.4422437594118545,-2.584846552421775,0.018517840752966447,8.162740164009083
0.41639529388763674,-2.910945381938183,0.10014524239305728,8.485656607378651
0.3872858400682549,-3.2017688919437584,0.18500180846684378,8.778613172026342
0.3552681511488173,-3.4241606156772764,0.27278794018710717,8.999039110427077
0.3210265449920446,-3.54157341718782,0.36277833129137793,9.099309602150669
0.28561081082016637,-3.5289041351438013,0.4537714273128846,9.04663849955213
0.25032176946872836,-3.3881880223673564,0.544237812308406,8.844105402755401
0.2164398892450548,-3.149755002609203,0.6326788663359599,8.531898760375709
0.18494233921896278,-2.8558802709021465,0.717997853939717,8.16505534544435
0.1563835365099413,-2.5427697009041776,0.7996484073941605,7.789467796947703
0.13095583950089953,-2.233397365312836,0.8775430853636376,7.432867351389426
0.10862186584777117,-1.9392565944617903,0.9518717588775318,7.107710235263226
0.08922929990315326,-1.6646260224064946,1.022948861230164,6.817163491244579
0.07258303967908832,-1.410020116363891,1.0911204961426098,6.559779971590354
0.0584828385154494,-1.1742721445649689,1.1567182958585134,6.332237667844254
0.04674011706979971,-0.9556240726969916,1.220040672536956,6.130720337461651
0.0371838763428298,-0.7522445113558307,1.2813478759115724,5.95153668346154
0.02966143122927149,-0.5624503559095542,1.3408632427461877,5.791357361490298
0.02403692767017595,-0.3847842922105899,1.3987768163610907,5.647274185486125
0.02018908474807005,-0.21802600182197737,1.455249558215952,5.516783344460895
0.018008824729850277,-0.06117522324784316,1.5104173916605608,5.397740879221894
0.017397072497371845,0.08657524416431747,1.5643948004527797,5.288312180200264
0.01826282493901502,0.22586837660176412,1.6172779222547824,5.1869245882170905
0.02052150870503266,0.3572101392472705,1.6691471681369534,5.092226284619846
0.024093610097505366,0.4809938462901098,1.720069430983152,5.0030520260881435
0.028903548560406465,0.597521441064998,1.7700999512440334,4.918395192207209
0.034878762971056444,0.7070218832893065,1.8192839031661054,4.83738524044421
