th1 (rad),w1 (rad/s),th2 (rad),w2 (rad/s),a1 (rad/s^2),a2 (rad/s^2)
0.1342021012667811,2.7875818492475317,0.9699454978469717,-1.715506299889551,5.706971376947014,-17.67502737735866
0.1620779197592564,2.8446515630170017,0.9527904348480762,-1.8922565736631376,6.009429306371091,-17.966279329917562
0.19052443538942643,2.9047458560807127,0.9338678691114448,-2.0719193669623133,6.30835310525008,-18.2328877911551
0.21957189395023355,2.9678293871332135,0.9131486754418217,-2.2542482448738643,6.583121867232165,-18.449110888056587
0.2492501878215657,3.0336606058055353,0.890606192993083,-2.43873935375443,6.804651054894241,-18.57755922424174
0.27958679387962104,3.101707116354478,0.8662187994555387,-2.6245149459968475,6.933034630036136,-18.56593974909218
0.31060386504316584,3.171037462654839,0.8399736499955702,-2.8101743434877693,6.91538584214216,-18.344087007512414
0.34231423966971425,3.2401913210762605,0.8118719065606925,-2.9936152135628933,6.6848322007197565,-17.822613127584187
0.3747161528804769,3.307039643083458,0.7819357544250636,-3.171841344838735,6.1623617352533895,-16.8955406935402
0.4077865493113115,3.368663260435992,0.7502173409766763,-3.3407967517741373,5.26399215229211,-15.450359097053667
0.4414731819156714,3.4213031819589133,0.7168093734589349,-3.495300342744674,3.915891615757486,-13.389154170108778
0.47568621373526054,3.460462098116488,0.6818563700314881,-3.6291918844457616,2.078369834693948,-10.662054201673936
0.5102908347164254,3.4812457964634276,0.6455644511870305,-3.735812426462501,-0.22522259679726134,-7.307394462700573
0.5451032926810597,3.478993570495455,0.6082063269224055,-3.808886371089507,-2.886107261931643,-3.48257562480259
0.5798932283860143,3.4501324978761385,0.5701174632115105,-3.843712127337533,-5.710646067786273,0.5373731418976535
0.6143945533647757,3.393026037198276,0.5316803419381352,-3.8383383959185564,-8.454685567449406,4.4085244951345315
0.6483248137367584,3.308479181523782,0.4932969579789496,-3.794253150967211,-10.883835017466565,7.8028419073288235
0.6814096055519963,3.1996408313491163,0.4553544264692775,-3.7162247318939228,-12.832572550522787,10.490863096091767
0.7134060138654874,3.0713151058438886,0.41819217915033824,-3.611316100933005,-14.234031099927288,12.382869227143024
0.7441191649239263,2.9289747948446156,0.3820790181410082,-3.4874874086615746,-15.112045048827751,13.516987977609501
0.7734089128723725,2.777854344356338,0.3472041440543924,-3.3523175288854796,-15.549004957622483,14.013494461593602
0.8011874563159358,2.6223642947801133,0.31368096876553764,-3.2121825842695437,-15.650046405935969,14.024222220899052
0.8274110992637369,2.4658638307207537,0.2815591429228422,-3.071940362060553,-15.516914284583349,13.695773914319961
0.8520697375709444,2.3106946878749204,0.25083973930223663,-2.9349826229173535,-15.23454235270576,13.15070793496919
0.8751766844496937,2.158349264347863,0.2214899130730631,-2.8034755435676617,-14.867332769265468,12.482390456361836
0.8967601770931722,2.009675936655208,0.19345515763738647,-2.6786516390040433,-14.46080078773203,11.757383474223946
0.9168569364597243,1.8650679287778877,0.16666864124734604,-2.561077804261804,-14.045285449982115,11.020719844968644
0.9355076157475032,1.7246150742780666,0.141057863204728,-2.4508706058121175,-13.639872945170914,10.301460249629878
0.9527537664902839,1.5882163448263575,0.11654915714660681,-2.347856003315819,-13.255742246019175,9.617424706459799
0.9686359299385474,1.4556589223661658,0.09307059711344862,-2.251681756251221,-12.898733826848762,8.978822353415753
0.9831925191622091,1.3266715840976782,0.0705537795509364,-2.1618935327170634,-12.571204591125893,8.390871051303161
0.9964592350031859,1.2009595381864193,0.048934844223765775,-2.077984822204032,-12.273315449451854,7.855614551251479
1.0084688303850502,1.0782263836919008,0.028154996001725458,-1.999428676691517,-12.003900694135915,7.373148103391979
1.0192510942219692,0.9581873767505417,0.008160709234810288,-1.9256971956575972,-11.761042614739717,6.942426826588596
1.0288329679894748,0.8405769506031445,-0.011096262721765685,-1.8562729273917113,-11.542444278920215,6.56178800000169
1.037238737495506,0.7251525078139424,-0.0296589919956828,-1.7906550473916945,-11.34566686279728,6.229280980028565
1.0444902625736456,0.6116958391859696,-0.04756554246959974,-1.7283622375914087,-11.168277480202535,5.942869634589315
1.0506072209655053,0.5000130643839442,-0.06484916484551383,-1.6689335412455155,-11.007938679207207,5.700551359935654
1.0556073516093447,0.38993367759187214,-0.08153850025796898,-1.611928027646159,-10.862460460815404,5.500422220302061
1.0595066883852635,0.2813090729837181,-0.09765778053443057,-1.5569238054431382,-10.729828634485015,5.340707840859599
1.0623197791151007,0.17401078663886793,-0.11322701858886194,-1.5035167270345422,-10.608218585141184,5.219773017135352
1.0640598869814895,0.06792860078745609,-0.12826218585920737,-1.4513189968631888,-10.49600036323789,5.136118559834089
1.064739172989364,-0.0370314028449228,-0.14277537582783925,-1.3999578112648479,-10.391738911096036,5.088370951207146
1.0643688589609148,-0.14094879195588317,-0.15677495394048774,-1.3490741017527763,-10.29419185277385,5.075268450980238
1.062959371041356,-0.24389071048362165,-0.1702656949580155,-1.298321417242974,-10.202306362706299,5.095646020016157
1.0605204639365198,-0.34591377411068464,-0.18324890913044523,-1.2473649570428125,-10.115216030726325,5.148420602812646
1.057061326195413,-0.4470659344179479,-0.19572255870087335,-1.195880751014686,-10.032238251775935,5.232577775195502
1.0525906668512335,-0.5473883169357072,-0.2076813662110202,-1.143554973262731,-9.952872417412166,5.347160421055635
1.0471167836818764,-0.6469170411098288,-0.21911691594364752,-1.0900833690521747,-9.876799026764095,5.491259885058009
1.0406476132707783,-0.7456850313774698,-0.23001774963416927,-1.0351707702015946,-9.80387973635842,5.66400991243574
1.0331907629570036,-0.843723828741054,-0.2403694573361852,-0.9785306710772372,-9.734158311065311,5.86458360239235
1.0247535246695931,-0.9410654118517071,-0.2501547640469576,-0.9198848350533138,-9.667862408967551,6.092193547949208
1.015342870551076,-1.0377440359413825,-0.2593536123974907,-0.8589628995738217,-9.605406122190528,6.346095298144188
1.0049654301916622,-1.1337980971632877,-0.26794324139322895,-0.7955019465923798,-9.547393197217515,6.625594247996566
0.9936274492200293,-1.2292720291354629,-0.27589826085915276,-0.7292460041124141,-9.4946208668576,6.930056029430373
0.9813347289286747,-1.3242182378040388,-0.2831907209002769,-0.6599454438181104,-9.448084237040199,7.258920435011743
0.9680925465506343,-1.4186990801744408,-0.289790175338458,-0.587356239467993,-9.40898117952653,7.611718848053396
0.9539055557488898,-1.5127888919697061,-0.295663737733138,-0.511239050987459,-9.378717679286504,7.988095067652878
0.9387776668291927,-1.6065760687625712,-0.3007761282430126,-0.43135810031093025,-9.35891356248303,8.387829292184286
0.9227119061415671,-1.7001652043874016,-0.3050897092461219,-0.3474798073890874,-9.351408472681443,8.810864840110726
0.905710254097693,-1.7936792891142161,-0.3085645073200128,-0.25937115898798013,-9.358267846536698,9.257336913323897
0.8877734612065509,-1.8872619675795832,-0.3111582189098926,-0.16679778985474114,-9.381788431918093,9.727602300759763
0.8689008415307551,-1.9810798518987642,-0.31282619680844,-0.0695217668471435,-9.424502540079878,10.222268310252593
0.8490900430117675,-2.075324877299563,-0.3135214144769114,0.03270091625538242,-9.489179651782026,10.74221829952747
0.8283367942387718,-2.170216673817383,-0.31319440531435755,0.14012309925065713,-9.578823088196511,11.288629792352074
0.806634627500598,-2.2660049046993485,-0.311793174321851,0.25300939717417786,-9.696658033760936,11.862979068123563
0.7839745784536045,-2.3629714850369576,-0.30926308035010924,0.3716391878554135,-9.84610499162627,12.467022929819914
0.7603448636032349,-2.4614325349532202,-0.3055466884715551,0.49630941715361265,-10.030729358341457,13.102743522400392
0.7357305382537027,-2.5617398285366346,-0.30058359430001896,0.6273368523776166,-10.254152616680589,13.772234745619272
0.7101131399683364,-2.6642813547034407,-0.2943102257762428,0.7650591998338093,-10.519902767124758,14.477497730770787
0.6834703264213019,-2.7694803823746885,-0.28665963377790465,0.9098341771415173,-10.831169751127431,15.220096221528962
0.655775522597555,-2.8777920798859626,-0.2775612920064895,1.0620351393568068,-11.190413953493419,16.00059800042612
0.6269976017986953,-2.989696219420897,-0.2669409406129214,1.222041119361068,-11.598750054845755,16.817692480153415
0.5971006396044863,-3.1056837199693543,-0.2547205294193107,1.3902180441626022,-12.054991897832444,17.66682361263955
0.5660438024047928,-3.226233638947679,-0.2408183489776847,1.5668862802889978,-12.554194746147171,18.53810886554564
0.533781466015316,-3.3517755864091505,-0.22514948617479472,1.7522673689444541,-13.085471166684746,19.413231992076607
0.5002637101512244,-3.482630298075998,-0.20762681248535017,1.9463996888652202,-13.628798385045581,20.2609178752542
0.4654374071704644,-3.6189182819264536,-0.18816281559669798,2.1490088676177623,-14.150517196137951,21.030577162753843
0.42924822435119986,-3.760423453887833,-0.16667272692052035,2.3593146392453006,-14.59733984967744,21.64388059127998
0.3916439898123215,-3.9063968523846073,-0.14307958052806735,2.5757534451581003,-14.889133354369864,21.984665507975112
0.35258002128847543,-4.055288185928306,-0.11732204607648634,2.7956001002378517,-14.91186854213373,21.889173750319717
0.31202713942919236,-4.204406871349643,-0.08936604507410782,3.014491837741049,-14.514363076957373,21.141787328687805
0.26998307071569594,-4.349550502119216,-0.05922112669669733,3.225909711027927,-13.515927637904705,19.486341093840203
0.2264875656945038,-4.484709778498264,-0.02696202958641806,3.420773121966329,-11.73538072816515,16.667804981394077
0.18164046790952115,-4.6020635857799155,0.007245701633245234,3.5874511717802697,-9.050342655673866,12.516868641904809
0.135619832051722,-4.692567012336654,0.04312021335104793,3.712619858199318,-5.481019113417296,7.0690957390679205
0.08869416192835547,-4.747377203470827,0.0802464119330411,3.783310815589997,-1.261791927021618,0.6665654769680005
0.0412203898936472,-4.759995122741043,0.11807952008894107,3.789976470359677,3.162250946938527,-6.047133267240729
-0.006379561333763231,-4.728372613271658,0.15597928479253784,3.72950513768727,7.252769413348544,-12.293804834823362
-0.05366328746647981,-4.655844919138172,0.19327433616941053,3.6065670893390367,10.562732678293496,-17.423240634361072
-0.10022173665786152,-4.550217592355237,0.2293400070628009,3.432334682995426,12.873353535952077,-21.109003748682362
-0.1457239125814139,-4.421484056995716,0.26366335389275514,3.2212446455086026,14.207020726199286,-23.368722903613506
-0.18993875315137107,-4.279413849733723,0.29587580034784117,2.9875574164724674,14.74234943978329,-24.445092265556262
-0.2327328916487083,-4.1319903553358905,0.32575137451256586,2.7431064938169047,14.70964666353163,-24.65804410890204
-0.2740527952020672,-3.984893888700574,0.3531824394507349,2.4965260527278845,14.319981524380177,-24.303641041445516
-0.31390173408907296,-3.841694073456772,0.37814769997801373,2.253489642313429,13.736045484164963,-23.611799763741818
-0.35231867482364065,-3.7043336186151223,0.400682596401148,2.017371644676011,13.070215899137674,-22.74260812068268
-0.3893620110097919,-3.5736314596237455,0.42085631284790814,1.7899455634691843,12.394089765349579,-21.799138047417646
-0.42509832560602934,-3.44969056197025,0.4387557684826,1.5719541829950079,11.750084940086802,-20.843450840105724
-0.4595952312257318,-3.332189712569382,0.45447531031255006,1.3635196745939506,11.161247276351608,-19.91026611199179
-0.49291712835142565,-3.220577239805866,0.46811050705848956,1.1644170134740328,10.638404022989379,-19.017006797126417
-0.5251229007494843,-3.114193199575972,0.4797546771932299,0.9742469455027687,10.184986545287355,-18.170621510759883
-0.5562648327452441,-3.0123433341230985,0.4894971466482576,0.7925407303951699,9.80012931828071,-17.372005540571088
-0.5863882660864751,-2.9143420409402916,0.4974225539522093,0.618820674989459,9.480596661713285,-16.618777647782693
-0.615531686495878,-2.8195360743231586,0.5036107607021039,0.45263289851163213,9.22194937679064,-15.906982465044251
-0.6437270472391096,-2.727316580555252,0.5081370896872202,0.2935630738611896,9.019233197899595,-15.232110032186704
-0.6710002130446621,-2.637124248576256,0.5110727204258321,0.14124197353932258,8.867372928607546,-14.589688878687072
-0.6973714555304247,-2.5484505192901805,0.5124851401612253,-0.004654915247548158,8.761388886168072,-13.975616005689686
-0.7228559607233265,-2.4608366304284996,0.5124385910087498,-0.14441107530444502,8.696508317860312,-13.386326137213743
-0.7474643270276115,-2.3738715472498964,0.5109944802557054,-0.27827433667658247,8.66821646802174,-12.818863742474838
-0.7712030425001104,-2.2871893825696787,0.5082117368889395,-0.4064629741013308,8.672274429507224,-12.270896963884965
-0.7940749363258072,-2.2004666382746065,0.5041471071479262,-0.5291719437401805,8.704720011499473,-11.740697466389799
-0.8160796027085533,-2.1134194381596116,0.4988553877105244,-0.6465789184040784,8.761861121346467,-11.227100911171778
-0.8372137970901494,-2.025800826946147,0.4923895985264836,-0.7588499275157963,8.840267019637261,-10.729457054899306
-0.8574718053596109,-1.9373981567497742,0.48480109925132564,-0.8661444980647893,8.936760281726604,-10.247575004925869
-0.8768457869271086,-1.8480305539325081,0.4761396542706777,-0.968620248114048,9.04841077475934,-9.781667061001285
-0.8953260924664337,-1.7575464461849148,0.46645345178953723,-1.0664369187240608,9.172532058788876,-9.332293311285278
-0.9129015569282828,-1.665821125597026,0.4557890826022966,-1.1597598518369137,9.306680109512193,-8.900308394399639
-0.929559768184253,-1.5727543245019042,0.4441914840839275,-1.24876293578091,9.448653992751693,-8.486811386205806
-0.945287311429272,-1.4782677845743872,0.4317038547261184,-1.333631049642968,9.596498005927115,-8.093099495020505
-0.9600699892750159,-1.382302804515116,0.4183675442296887,-1.414562044593173,9.748504781792304,-7.720626076178759
-0.973893017320167,-1.284817756697193,0.404221923783757,-1.4917683053549606,9.90321888781926,-7.370963360787098
-0.986741194887139,-1.1857855678190004,0.38930424073020736,-1.5654779389628315,10.05944052681465,-7.04577020758483
-0.9985990505653289,-1.085191162550854,0.373649461340579,-1.6359356410386798,10.216229034674022,-6.746765115949663
-1.0094509621908374,-0.9830288722041137,0.3572901049301922,-1.7034032921981765,10.372905968612814,-6.475704673954143
-1.0192812509128786,-0.8792998125179856,0.34025607200821045,-1.768160338937718,10.529057675792053,-6.234367553463303
-1.0280742490380583,-0.7740092357600651,0.32257446861883327,-1.830504014472351,10.684537321737357,-6.024544101710047
-1.035814341395659,-0.6671638625426916,0.30426942847410976,-1.8907494554894515,10.839466434831985,-5.848031512910877
-1.042485980021086,-0.5587691981943717,0.28536193391921527,-1.9492297706185602,10.994236081829012,-5.706634490498273
-1.0480736720030297,-0.44882683737608153,0.26586963621302967,-2.006296115523543,11.149507823122258,-5.60217122424036
-1.0525619403767905,-0.33733175914485897,0.24580667505779424,-2.0623178277659466,11.306214596618087,-5.536484396689907
-1.055935257968239,-0.2242696131786781,0.22518349678013477,-2.1176826717328456,11.465561632905583,-5.5114567836901385
-1.0581779541000258,-0.10961399684962227,0.20400667006280632,-2.1727972395697472,11.629027393472608,-5.5290307984056035
-1.059274094068522,0.006676277085103821,0.18227869766710886,-2.228087547553803,11.798364320019482,-5.591231007906683
-1.0592073312976709,0.12465992028529865,0.15999782219157083,-2.28399985763287,11.975598844077021,-5.700188165043061
-1.057960732094818,0.2444159087260689,0.13715782361524212,-2.3410017392833007,12.163029567606493,-5.858162553798206
-1.0555165730075573,0.3660462044021338,0.11374780622240911,-2.3995833648212828,12.363221688822772,-6.067563303252123
-1.051856110963536,0.48967842129036154,0.08975197257419629,-2.460258997853804,12.578994463903438,-6.330958571262796
-1.0469593267506325,0.6154683659293959,0.06514938259565825,-2.523568583566432,12.813396538568385,-6.651068813278283
-1.0408046430913385,0.7436023313150798,0.03991369675999393,-2.590079271699215,13.06966101356632,-7.030731252433353
-1.0333686197781877,0.8742989414507429,0.014012904043001779,-2.6603865842235486,13.351127617452304,-7.472817436221814
-1.0246256303636803,1.007810217625266,-0.012590961799233708,-2.735114758585767,13.661112602796939,-7.9800763472978
-1.0145475281874277,1.1444213436532353,-0.03994210938509138,-2.8149155220587447,14.002696887706552,-8.554861415871809
-1.0031033147508952,1.2844483125303008,-0.06809126460567883,-2.900464136217463,14.37838805803701,-9.198678866570573
-0.9902588316255923,1.428232193110671,-0.09709590596785346,-2.9924509248831686,14.789590238081775,-9.911464435672073
-0.9759765096944856,1.5761280954914887,-0.12702041521668514,-3.091565569239889,15.23578545952942,-10.690452648449703
-0.9602152287395707,1.7284859500867829,-0.15793607090908404,-3.198470095724386,15.713289636641235,-11.528445518717874
-0.9429303692387029,1.885618846453195,-0.1899207718663279,-3.3137545509115647,16.21339730041785,-12.41121795629267
-0.9240741807741709,2.0477528194573735,-0.22305831737544354,-3.437866730474491,16.719682278920352,-13.31372971922627
-0.9035966525795972,2.214949642246577,-0.25743698468018844,-3.571004027666754,17.204207568817168,-14.194791647682838
-0.8814471561571314,2.3869917179347486,-0.29314702495685596,-3.7129519441435823,17.622490654566608,-14.989960593016015
-0.8575772389777839,2.5632166244804147,-0.3302765443982918,-3.8628515500737426,17.907421730879037,-15.602925134530567
-0.8319450727329798,2.742290841789205,-0.3689050598990292,-4.018880801419049,17.96320243334892,-15.896859847721938
-0.8045221643150877,2.9219228661226944,-0.4090938679132197,-4.177849399896268,17.662095284175997,-15.689641099516642
-0.7753029356538608,3.0985438189644543,-0.4508723619121824,-4.334745810891435,16.849468199400203,-14.760607080965492
-0.7443174974642163,3.2670385009584564,-0.4942198200210967,-4.4823518817010894,15.365354116254803,-12.880416683136481
-0.7116471124546317,3.4206920421210043,-0.5390433388381076,-4.611156048532454,13.090162677399434,-9.874812182121547
-0.6774401920334217,3.5515936688949985,-0.5851548993234321,-4.70990417035367,10.012225911750464,-5.719219993198372
-0.6419242553444716,3.651715928012503,-0.6322539410269689,-4.767096370285653,6.292192924170998,-0.629398472191048
-0.6054070960643466,3.714637857254213,-0.6799249047298254,-4.773390355007564,2.2764107020337256,4.918791289532278
-0.5682607174918045,3.73740196427455,-0.727658808279901,-4.724202442112241,-1.579114381206014,10.294387188657499
-0.530886697849059,3.72161082046249,-0.7749008327010234,-4.621258570225666,-4.853399265841594,14.912395787895791
-0.49367058964443405,3.673076827804074,-0.82111341840328,-4.472134612346708,-7.290791970297144,18.415257102090656
-0.45693982136639333,3.600168908101103,-0.8658347645267471,-4.287982041325802,-8.842293975959006,20.73070189272615
-0.4209381322853823,3.5117459683415126,-0.9087145849400051,-4.08067502239854,-9.616639819986355,22.004237064440296
-0.3858206726019672,3.415579570141649,-0.9495213351639905,-3.860632651754137,-9.796027172376533,22.482614772639476
-0.3516648769005507,3.317619298417884,-0.9881276616815319,-3.6358065040277423,-9.567367345835226,22.41890049773241
-0.31848868391637186,3.2219456249595315,-1.0244857267218093,-3.4116174990504184,-9.086406852005627,22.02309552694506
-0.28626922766677654,3.1310815564394754,-1.0586019017123134,-3.191386543780968,-8.46809887958614,21.449028690163484
-0.2549584121023818,3.046400567643614,-1.090515767150123,-2.976896256879333,-7.790684908614196,20.800109178041783
-0.22449440642594565,2.9684937185574722,-1.1202847297189165,-2.768895165098915,-7.1042625509027895,20.141189014897108
-0.19480946924037093,2.8974510930484443,-1.1479736813699055,-2.567483274949944,-6.439208809540773,19.510165529773847
