th1 (rad),w1 (rad/s),th2 (rad),w2 (rad/s)
0.15027278056753968,3.1379656022525753,1.3726713154305283,1.7267960693706923
0.1816524365900654,3.1714587323299006,1.3899392761242353,1.5267265161519326
0.21336702391336443,3.2002287921684207,1.4052065412857546,1.3260777199593485
0.24536931183504862,3.224807502971232,1.418467318485348,1.1251768668283926
0.27761738686476095,3.245731644364882,1.429719087153632,0.9243301861791168
0.31007470330840975,3.2635373946256845,1.4389623890154233,0.7238167068772919
0.3427100772546666,3.278754809161626,1.4462005560841962,0.5238837301792235
0.3754976253462829,3.2919024087277595,1.4514393933859884,0.3247441730691955
0.4084166494335605,3.3034817714041793,1.4546868351166804,0.12657595674990146
0.4414514671476023,3.313971933268553,1.4559525946841794,-0.07047633845279883
0.47459118648028786,3.323823299301463,1.4552478312996513,-0.26629725253220915
0.5078294194733025,3.3334506450648123,1.4525848587743293,-0.46079324494399265
0.5411639259239507,3.3432246479509664,1.4479769263248894,-0.6538819413540575
0.5745961724034604,3.353461223165675,1.4414381069113489,-0.8454770555164929
0.6081307846351172,3.3644077585249472,1.432983336356184,-1.0354679781398208
0.6417748622203666,3.3762251602548914,1.4226286565747857,-1.2236927787685665
0.6755371138229155,3.3889644795123974,1.4103917287871,-1.4099031689328239
0.7094267586180395,3.402536868416891,1.3962926970977718,-1.5937199416480254
0.7434521273022084,3.4166758656495193,1.3803554976812915,-1.7745777454355627
0.7776188859587037,3.4308917868371163,1.3626097202269358,-1.9516591220106458
0.8119278038270749,3.444419671688018,1.3430931290068293,-2.123820061245302
0.846372000543955,3.456165301353463,1.3218549283943763,-2.2895135745488084
0.8809336535574896,3.4646586883638606,1.2989597926488883,-2.4467245659990158
0.9155802404411283,3.4680311607138785,1.2744925469888981,-2.592938574920494
0.9502605520482671,3.4640395066364102,1.2485631612396932,-2.725177062963103
0.9849009471146312,3.45016518257292,1.221311390610062,-2.840137990231426
1.0194025989403603,3.4238121419333547,1.192910010707748,-2.934473824330753
1.0536407203596938,3.3826062548798412,1.1635652724644403,-3.005209884019202
1.0874667829084923,3.3247602203329567,1.1335131736242483,-3.0502509276229666
1.120714385111822,3.2494212459572904,1.1030106643480186,-3.068858734637226
1.1532085975713948,3.1568915176839414,1.0723220770016464,-3.061946071053129
1.1847775127482343,3.048632555304775,1.0417026162911152,-3.032063406794717
1.215263838301282,2.9270373446934057,1.011381982223168,-2.983058296378655
1.2445342117482159,2.7950422853190315,0.9815513992593814,-2.919511682812021
1.2724846346014063,2.6557020606574255,0.9523562824312611,-2.846126558646792
1.2990416552079804,2.5118394702421,0.9238950168447932,-2.7672275233581547
1.3241600499104014,2.365828199772513,0.8962227416112117,-2.6864524034790778
1.3478183319081265,2.2195087397345503,0.869358217576421,-2.6066350161729632
1.370013419305472,2.074202890899873,0.8432918674146913,-2.5298290170204023
1.3907554482144708,1.9307839582064645,0.8179935772444873,-2.45741123615617
1.4100632877965356,1.78976765062647,0.7934194648829256,-2.3902144011844553
1.4279609643028002,1.6514015908231483,0.769517320871081,-2.3286576239567136
1.4444749802110317,1.5157425631965655,0.746230744631514,-2.27285908657881
1.4596324058429975,1.3827180873459608,0.7235021537657259,-2.222726028925817
1.473459586716457,1.2521729407964743,0.7012748934764678,-2.178022919272441
1.4859813161244217,1.1239029649325456,0.6794946642837434,-2.138421145860513
1.4972203457737472,0.9976788839911604,0.6581104528251382,-2.1035341447384206
1.5071971346136588,0.8732626417001776,0.6370751113777541,-2.07294156667347
1.5159297610306606,0.7504183127601832,0.6163456957110194,-2.046205453214285
1.5234339441582625,0.6289191756687368,0.5958836411788765,-2.0228807235409345
1.52972313591495,0.5085521220481721,0.5756548339434672,-2.0025216883953108
1.5348086571354316,0.389120248830932,0.5556296170595141,-1.9846858388957977
1.538699859623741,0.27044422988026784,0.5357827586705561,-1.96893580192037
1.5414043019225436,0.15236287980149998,0.5160934006513525,-1.9548400916458557
1.5429279307205586,0.03473319017059444,0.4965449997348939,-1.9419730980011842
1.5432752626222646,-0.08256997584462396,0.4771252687548821,-1.9299146186988945
1.5424495628638184,-0.19965441091401076,0.4578261225678931,-1.9182491472100642
1.5404530187546783,-0.3166112399825431,0.43864363109579246,-1.906565063134024
1.5372869063548529,-0.43351570509786463,0.4195779804644522,-1.8944538254495684
1.5329517493038742,-0.5504280405184319,0.40063344220995656,-1.8815092370018982
1.5274474688986899,-0.6673944355292052,0.38181834983993757,-1.8673268258957547
1.5207735245433978,-0.7844480930098143,0.36314508158098,-1.851503373109794
1.5129290436132996,-0.9016103989169314,0.3446300478498821,-1.8336366034066098
1.5039129396241302,-1.018892222427992,0.32629368181581603,-1.813325046919902
1.4937240173998503,-1.1362953692065823,0.308160431346617,-1.7901680705493932
1.4823610637077844,-1.2538142115378346,0.2902587506411231,-1.7637660707121006
1.4698229215924061,-1.3714375192507189,0.2726210899340021,-1.7337208115574183
1.4561085463998988,-1.4891505146080315,0.25528388181842787,-1.6996358851128144
1.4412170412538186,-1.6069371728639261,0.23828752296729971,-1.6611172617987497
1.4251476695251792,-1.724782788092029,0.2216763503493122,-1.6177738912809938
1.407899841644259,-1.8426768212870783,0.20549861143650228,-1.5692183047887038
1.3894730734313883,-1.9606160447402083,0.18980642838861522,-1.5150671610239448
1.3698669129839862,-2.078607993363779,0.17465575677837578,-1.4549416689814918
1.3490808330503485,-2.1966747300356055,0.16010634008856087,-1.3884678129327475
1.3271140857499926,-2.3148569280980436,0.1462216619592334,-1.3152762982961241
1.303965516469012,-2.433218269675696,0.13306889897627214,-1.2350021332511054
1.2796333337722552,-2.5518501529701982,0.12071887764376109,-1.1472837613827875
1.2541148322425533,-2.6708766941686384,0.10924604002993321,-1.051761667741741
1.227406065300867,-2.790459998279159,0.0987284233525158,-0.9480763979933862
1.1995014653180753,-2.9108056550014982,0.08924765937258194,-0.8358659631353063
1.1703934087680603,-3.032168385492737,0.08088899974122889,-0.714762658752212
1.140071724913133,-3.154857715133868,0.07374137315370677,-0.5843894206562935
1.1085231477617943,-3.2792434624324525,0.06789747894714383,-0.4443559879269292
1.0757307131374698,-3.4057606930172626,0.06345391906787454,-0.29425538114776173
1.0416731062072973,-3.534913555274848,0.06051136525639692,-0.13366157739619253
1.0063239706545488,-3.667277035240467,0.05917474948243499,0.03787014825311
0.9696512003021441,-3.8034950565042145,0.059553450964966094,0.22079782176496343
0.931616249737102,-3.944272373552164,0.06176142918261573,0.4155784742957811
0.8921735260015804,-4.090356166641632,0.06591721392557354,0.6226388808989212
0.8512699643351641,-4.2425008641915545,0.07214360273456275,0.8423218520799135
0.8088449556932485,-4.401406140979729,0.08056682125536188,1.074793529108894
0.7648308942834513,-4.567612924395929,0.09131475654645083,1.3198899617260231
0.719154765039492,-4.741335558975998,0.10451365616371106,1.5768719939373197
0.671741409449732,-4.92220114109033,0.12028237610308426,1.8440478253787433
0.6225193980388287,-5.108863570717822,0.1387228543568717,2.1182185582493718
0.5714307623316505,-5.298470816545726,0.15990503993936542,2.3939190008855955
0.5184460541661932,-5.486011489823242,0.18384422994822136,2.6624956601437106
0.46358593926796077,-5.663685415598691,0.21046918654965846,2.9112348232570766
0.40694908511197386,-5.820656307513358,0.23958153478222924,3.123058948145932
0.3487425220368403,-5.943787105416082,0.27081212426368856,3.2776540144797672
0.2893046509826795,-6.019949074766763,0.30358866440848625,3.3548723161215164
0.22910516023501187,-6.039783840354755,0.3371373875697014,3.340231963790529
0.16870732183146434,-6.001381917864993,0.3705397072076067,3.2303043403608007
0.10869350265281441,-5.911484087372884,0.4028427506112147,3.0345431412091997
0.04957866177908557,-5.783105447603168,0.4331881820233067,2.7719426144235317
-0.00825239269694611,-5.631128137330069,0.46090760816754206,2.464701884016285
-0.0645636740702468,-5.468528025651044,0.4855546270077049,2.1327134594703354
-0.11924895432675724,-5.304635064424964,0.5068817616024083,1.7909256056573317
-0.17229530497100687,-5.1451300035178065,0.5247910176589816,1.449204713587192
-0.22374660500618493,-4.992854561577861,0.5392830647948536,1.1134025649631303
-0.27367515062196357,-4.848741333558543,0.5504170904444848,0.7866352336279037
-0.322162563957549,-4.712563887120687,0.5582834427807639,0.47033267826631087
-0.36928820282875585,-4.583453889095012,0.562986769563427,0.1649700675982103
-0.415122741719706,-4.4602275420530475,0.5646364702394091,-0.12946792525088874
-0.45972501714023645,-4.341580357887102,0.5633417909869002,-0.41321084840045624
-0.5031408207191075,-4.22619865598132,0.5592096825028956,-0.6865476815793259
-0.5454028072789207,-4.112821101534237,0.5523442056871023,-0.9497468649231351
-0.586531018294263,-4.000271347638006,0.5428467370378709,-1.2030210408855098
-0.6265337317706431,-3.887474441637601,0.5308165266290158,-1.4465178946144048
-0.6654084761870191,-3.7734643269477646,0.5163513476828717,-1.680325818520905
-0.7031431194564968,-3.6573865315298133,0.49954808949766266,-1.9044876189171
-0.7397169847717949,-3.5384982168417323,0.48050321330849166,-2.1190181693542316
-0.7751019669402123,-3.416166652656976,0.45931303161494935,-2.323923505853945
-0.809263633466782,-3.2898665619330787,0.4360737965564099,-2.5192198021445718
-0.8421622990861127,-3.1591764505614948,0.41088159853496414,-2.7049512313774624
-0.8737540635917277,-3.0237738821103854,0.38383208622118953,-2.881206076929523
-0.9039918024128315,-2.8834296070102363,0.3550200254518943,-3.048130693276572
-0.9328260984829339,-2.7380004658769113,0.3245387185191286,-3.205941092034855
-0.960206103141703,-2.5874210307333563,0.29247930759878005,-3.3549320669834892
-0.9860803134490366,-2.431694008249412,0.25892998692894514,-3.495483889348366
-1.0103972535315306,-2.2708794941781134,0.22397514803546148,-3.628066706260841
-1.0331060484733119,-2.1050832303731677,0.18769448097285307,-3.753242861384385
-1.0541568807770436,-1.9344440707252426,0.15016205235900923,-3.871667424497913
-1.0735013214842961,-1.7591209085427444,0.1114453781140301,-3.9840872617001812
-1.0910925305697237,-1.5792793568614734,0.07160450549702829,-4.091338993636272
-1.1068853241383383,-1.3950785099968095,0.030691115560665568,-4.194346167512791
-1.1208361092383063,-1.2066581589486902,-0.011252346114462339,-4.294115898130716
-1.1329026908277933,-1.0141269006532152,-0.0541935050957695,-4.391735096487968
-1.1430439598343254,-0.8175516956239274,-0.09811085606064918,-4.488366174802282
-1.1512194767905646,-0.616949626594933,-0.142994517808672,-4.585241751429539
-1.157388973056514,-0.4122829467888448,-0.1888469353229674,-4.683657310604068
-1.1615118025244024,-0.20345906118933765,-0.2356835084290081,-4.784959895026266
-1.163546393136296,0.009662024353837867,-0.28353310737927073,-4.890529564651364
-1.1634497728927575,0.2272488572455741,-0.33243840302578437,-5.001748311637642
-1.1611772843203019,0.4494622533376683,-0.3824558861421608,-5.119948070294165
-1.1566826617869252,0.67639246210685,-0.4336553668451025,-5.246325052378946
-1.1499187371658568,0.9079565120040973,-0.48611861736889195,-5.381801645815347
-1.1408391720458158,1.1437375333000026,-0.5399366338270454,-5.526809909932274
-1.1294017967128158,1.3827437400532274,-0.5952047329263681,-5.68096439327488
-1.1155743593122835,1.6230660054884651,-0.6520143768591169,-5.842592790573228
-1.0993436992573988,1.8614298474978415,-0.7104403047648492,-6.008115007445205
-1.0807294007824204,2.092688667676554,-0.7705214548393012,-6.171330323152059
-1.0598025141056548,2.309413156207589,-0.8322347580708218,-6.322820890337062
-1.036708382543579,2.501898283209298,-0.8954629669741925,-6.4499110598848635
-1.011689399711486,2.6590493958452908,-0.9599620775730411,-6.537820193090876
-0.985098905753033,2.7704860207865623,-1.02534027950395,-6.572484894793385
-0.9573940455451674,2.8295469768712125,-1.0910651284518837,-6.544630809893303
-0.9290985757764553,2.83588138151694,-1.156511436550817,-6.453300729902448
-0.9007397619612859,2.7959652527652703,-1.2210444438498413,-6.306570875836018
-0.8727801094336332,2.7210417825687117,-1.2841101526082015,-6.118777585148177
-0.845569691607946,2.6237644152855113,-1.3452979284596833,-5.9060102931469975
-0.8193320474550909,2.515388936442443,-1.4043580313911532,-5.682380928243732
-0.7941781580906665,2.404429209830119,-1.4611818406735906,-5.458288280420495
-0.7701338659923653,2.2965691416686163,-1.5157647234777956,-5.240368073247659
-0.7471681745756792,2.1952030105032057,-1.5681684042102721,-5.032264541158472
-0.7252161444706471,2.1021103295263255,-1.618491049621857,-4.83555701921772
-0.7041950411753838,2.018030807357307,-1.6668466198140341,-4.650533378423244
-0.6840147331018107,1.9430805437398961,-1.7133519535982666,-4.47673960117404
-0.6645839276644118,1.8770273105732016,-1.758119349610007,-4.3133357608820555
-0.6458136545586798,1.8194624272914817,-1.8012527072188276,-4.159312506214036
-0.6276190302857649,1.7699035073533722,-1.842845832280968,-4.013615908068714
-0.6099199952122312,1.7278533799517999,-1.8829819913616552,-3.8752153418233366
-0.5926414614127131,1.6928321541903746,-1.9217341447798886,-3.74313729604434
-0.5757131398708094,1.6643932325838064,-1.959165517740332,-3.6164794678119
-0.5590692075449714,1.6421299515581242,-1.995330312418451,-3.494413874774017
-0.5426479080293901,1.6256768935715422,-2.030274451166191,-3.3761841758133513
-0.5263911390936747,1.6147082821446013,-2.0640362929243246,-3.2611002307551717
-0.5102440562722287,1.6089348740812432,-2.096647295231876,-3.148531632918773
-0.49415470753141627,1.6081001607848957,-2.128132611561064,-3.0379011810522596
-0.4780737059235673,1.6119763295096892,-2.1585116233715866,-2.928678809040001
-0.4619539426284704,1.620360220798095,-2.1877984114619866,-2.820376234048191
-0.44575034042048944,1.6330693923759363,-2.2160021738024684,-2.71254243869754
-0.4294196464967301,1.6499383273698462,-2.2431275981894436,-2.6047600236928803
-0.4129202632230316,1.6708147847815729,-2.2691751984263724,-2.496642426067423
-0.3962121153752159,1.6955562700582243,-2.2941416226870466,-2.3878319779692596
-0.37925655267463365,1.7240265958232415,-2.3180199424667394,-2.277998771548171
-0.36201628671640124,1.7560925029658547,-2.340799930182221,-2.1668402907760687
-0.3444553616867427,1.7916203177787502,-2.3624683330899816,-2.0540817671059677
-0.32653915850895515,1.8304726302385257,-2.3830091507610414,-1.939477210329456
-0.3082344322065699,1.8725049910132248,-2.402403922864336,-1.8228110573283978
-0.28950938229643763,1.917562639826139,-2.42063203343762,-1.703900368767489
-0.27033375589817626,1.965477294950168,-2.437671037125295,-1.5825974867969475
-0.2506789829486746,2.016064052307085,-2.4534970119932646,-1.4587930456923426
-0.23051834242560373,2.06911846214103,-2.4680849424501883,-1.3324192027615704
-0.20982715780419342,2.1244138704627225,-2.481409134477804,-1.2034529301158647
-0.1885830190995662,2.1816991300090796,-2.493443663778963,-1.07191918100717
-0.1667660277994754,2.240696799580888,-2.5041628555890347,-0.9378937200078181
-0.14435905980366653,2.301101959294715,-2.513541792789113,-0.8015053875496304
-0.12134804021071938,2.3625817703940157,-2.5215568466646094,-0.6629375598182088
-0.09772222250677923,2.424775899822049,-2.5281862222627915,-0.5224285683242051
-0.07347446350855874,2.4872979102234205,-2.5334105079460336,-0.38027086283956757
-0.04860148440632453,2.549737684662302,-2.5372132165744294,-0.23680873902080243
-0.02310410755970151,2.611664912499966,-2.5395813039646375,-0.09243450863695582
0.0030125415652981526,2.672633610312588,-2.540505649051007,0.05241693545015294
0.029738877668424032,2.732187592664452,-2.5399814796965057,0.19727511917770602
0.057060753595068556,2.7898667465206133,-2.5380087285047286,0.3416424153631699
0.08495942106027468,2.845213905565546,-2.5345923043510967,0.4850036667032619
0.11341156011593015,2.8977820724915118,-2.529742267684064,0.6268366824248179
0.14238938084084526,2.9471417037857996,-2.5234739008598157,0.766623216786347
0.17186079787870326,2.992887756791125,-2.515807668691952,0.9038599921686862
0.2017896754466145,3.0346462050410272,-2.5067690687702653,1.038069314332689
0.23213613749702477,3.072079754977634,-2.4963883756269385,1.1688088445631777
0.26285693504680113,3.1048925426936376,-2.484700287181307,1.2956801412982573
0.2939058604737375,3.13283364884981,-2.4717434857683243,1.418335657556276
0.3252341969622356,3.155699337597585,-2.4575601291927613,1.536483972515728
0.35679119033821144,3.1733339948587265,-2.442195289467604,1.6498931369852148
0.3885245302867987,3.1856298066926527,-2.4256963580977517,1.7583921139990195
0.4203808283537252,3.192525274785015,-2.4081124369577616,1.8618703891039392
0.45230608110157533,3.194002709921916,-2.3894937330667223,1.960275903608367
0.4842461082007945,3.1900848739985395,-2.3698909740306386,2.0536115240215116
0.5161469569407799,3.180830956612874,-2.3493548587904236,2.141930300427129
0.5479552665069087,3.166332074923348,-2.3279355557861523,2.225329786106003
0.5796185872561422,3.146706477445032,-2.3056822579250924,2.303945692542878
0.6110856520305925,3.1220946165560357,-2.2826428009996635,2.377945141338326
0.6423065981961529,3.092654233511526,-2.25886334958628,2.447519751331672
0.6732331405312681,3.058555576331233,-2.2343881520729636,2.512878769288359
0.7038186962945805,3.019976847236162,-2.20925936438008,2.5742424193256643
0.7340184647669421,2.9770999540468543,-2.1835169401868235,2.6318356127755678
0.7637894643074107,2.9301066202760517,-2.157198584059068,2.6858821286589496
0.7930905305101712,2.8791748922251275,-2.1303397627724783,2.736599346926815
0.8218822794324224,2.824476068488798,-2.10297376930321,2.7841935930367
0.8501270401173104,2.766172067826191,-2.075131833372843,2.8288561336645555
0.8777887607955723,2.704413245067332,-2.0468432720361975,2.870759849361215
0.9048328932462456,2.6393366611195495,-2.0181356735425853,2.9100566003708828
0.9312262598574411,2.5710648116248116,-1.9890351075388764,2.9468752960068088
0.9569369079736892,2.4997048187183806,-1.9595663545788082,2.9813206751052768
0.9819339561608731,2.425348090911168,-1.9297531478277554,3.0134728041857675
1.0061874370699848,2.3480704565769392,-1.8996184197858978,3.0433872999521068
1.0296681416357543,2.2679327760556394,-1.8691845467863768,3.071096282512572
1.0523474693963106,2.184982035164374,-1.8384735839612512,3.0966100639642007
1.0741972897479544,2.099252918148136,-1.8075074833216092,3.119919572568165
1.0951898189294358,2.0107698501014863,-1.7763082875959275,3.1409995045054715
1.1152975174304507,1.9195494871149112,-1.7448982925508727,3.159812182190645
1.1344930123015997,1.8256036165759737,-1.7133001707289663,3.1763120796915087
1.1527490484673595,1.7289424102941358,-1.6815370499320512,3.1904509517772244
1.1700384725703008,1.629577950017989,-1.6496325404142789,3.2021834739434603
1.1863342520704807,1.5275279196535576,-1.6176107056748443,3.2114732676621967
1.2016095312670163,1.422819332873125,-1.5854959729982223,3.2182991501533365
1.2158377245957475,1.3154921412111171,-1.5533129814966888,3.222661414110103
1.2289926460078586,1.205602549005942,-1.5210863673555879,3.224587913683749
1.241048671497918,1.0932258506780683,-1.4888404882187505,3.224139712726398
1.2519809300046987,0.9784586056642266,-1.4565990910914866,3.221416043864727
1.261765516061341,0.8614199790550475,-1.4243849306528393,3.2165583359035703
1.2703797158518915,0.7422521027211991,-1.3922193472938036,3.2097530946039563
1.2778022368791035,0.6211193521023557,-1.360121816347764,3.201233468548472
1.2840134304001272,0.49820648582534954,-1.3281094816622792,3.1912793959620385
1.2889954952583806,0.37371565519826844,-1.2961966877026587,3.18021630613529
1.2927326518103632,0.24786235332132892,-1.2643945246413058,3.1684124346811418
