th1 (rad),w1 (rad/s),th2 (rad),w2 (rad/s)
2.0486940839049343,2.0685971657629167,3.8717019040422755,0.4524245204187435
2.0693800555625637,1.9828840386614315,3.876226149246463,0.454959184364982
2.089208895949178,1.8987307564924758,3.880775741090113,0.46274170238727486
2.108196203514103,1.8160466432527058,3.885403158113986,0.47547971188991284
2.12635666994663,1.7347513623309583,3.890157955232885,0.4928937262211326
2.1437041835699397,1.6547751241396007,3.8950868924950965,0.5147163711494546
2.1602519348113356,1.5760587413787435,3.900234056206591,0.540691624553954
2.176012522225123,1.4985535538088193,3.905640972452131,0.5705740912010177
2.1909980577632115,1.4222212412154105,3.911346713364141,0.6041283373413582
2.205220270175366,1.3470335406608456,3.9173879967375544,0.6411283035889814
2.2186906055819744,1.2729718820772118,3.9237992797734442,0.6813568090644687
2.2314203244027464,1.200026954698648,3.9306128478640887,0.7246051550235745
2.243420593949733,1.12819821568375,3.9378588994143247,0.7706728320788129
2.2547025761065704,1.057493351466325,3.945565627735113,0.8193673315942213
2.265277509621234,0.9879277018207832,3.953759301051055,0.8705040588382997
2.2751567866394415,0.9195236562674252,3.962464341639438,0.9239063429719799
2.284352023202116,0.8523100322086069,3.9717034050691575,0.9794055368893143
2.292875123524202,0.7863214440216074,3.981497460438051,1.036841198286043
2.300738337964418,0.7215976721872358,3.9918658724209113,1.0960613420769876
2.3079543146862904,0.6581830413609511,4.002826485841681,1.1569227533914472
2.3145361450999,0.5961258160583379,4.014395713375595,1.219291349821319
2.3204974032604833,0.5354776222982014,4.026588626873808,1.2830425813535982
2.3258521794834652,0.476292903099007,4.039419052687344,1.3480618564589624
2.330615108514455,0.41862841513758675,4.052899671251933,1.4142449830990471
2.334801392665831,0.3625427731368964,4.067042121082924,1.4814986139190776
2.3384268203972,0.30809604763935594,4.081857107222115,1.5497406855648885
2.341507780873594,0.25534942073322053,4.097354514077764,1.6189008428505747
2.344061275080926,0.20436490302129479,4.113543522506269,1.6889208393413613
2.346104924111139,0.15520511364229386,4.130432730899683,1.7597549067302694
2.347656975247562,0.10793312345921718,4.148030279966986,1.8313700860877735
2.348736306482154,0.0626123595925317,4.166343980827864,1.9037465145466088
2.3493624300780795,0.019306567263294334,4.18538144597333,1.9768776611272143
2.3495554957507125,-0.02192017762967595,4.205150222584602,2.0507705050704894
2.3493362939744156,-0.06100341471875785,4.225657927635307,2.125445649056596
2.348726259827228,-0.09787821713476219,4.246912384125873,2.2009373578547193
2.34774747765588,-0.1324790983057992,4.268921757704421,2.2772935100357308
2.346422686672822,-0.16473992959891,4.291694692804778,2.3545754461089623
2.3447752873768333,-0.1945938968321169,4.315240447265867,2.432857690481457
2.3428293484085123,-0.2219735310862085,4.3395690241706815,2.512227516580855
2.34060961309765,-0.24681085841150824,4.36469129933649,2.5927843138490343
2.338141504513535,-0.26903772441297036,4.39061914247498,2.6746387015291484
2.3354511272694056,-0.28858636384429703,4.417365529490271,2.7579113165636584
2.3325652636309626,-0.3053903028542134,4.444944642655908,2.8427311807354068
2.3295113606024205,-0.3193857030502859,4.4733719544632615,2.9292335245971572
2.3263175035719175,-0.3305132826982502,4.502664289709233,3.01755691193572
2.323012370744935,-0.3387209816367148,4.53283985882859,3.107839467838001
2.319625160928568,-0.34396757299254455,4.563918253506969,3.2002139655891795
2.3161854851986425,-0.3462274659860679,4.595920393162861,3.294801473154972
2.312723210538782,-0.345496988264676,4.6288684078944105,3.3917032008482813
2.3092682406561353,-0.3418024795360391,4.662785439902893,3.490990132379592
2.305850215860775,-0.33521056384995246,4.697695341226689,3.5926899702004524
2.3024981102222757,-0.325840983976102,4.733622240928693,3.696770897234814
2.2992397003825147,-0.3138823593595533,4.770589949901042,3.803121673822209
2.2961008767889193,-0.2996111412760167,4.808621166639264,3.9115276859126364
2.293104765376159,-0.2834138457802865,4.84773644349839,4.021642788115333
2.290270626918356,-0.26581229526740435,4.887952871379544,4.132957209378311
2.287612503965682,-0.24749103175056214,4.929282443473327,4.244762489700023
2.285137593648176,-0.22932521833681718,4.971730068370327,4.356115474951492
2.282844341464808,-0.2124061812217005,5.015291223119842,4.465804869592402
2.280720279652591,-0.19806028633778847,5.059949271815766,4.5723257138986035
2.278739676789213,-0.18785523809988114,5.105672528954752,4.673869240793937
2.276861124408214,-0.18358647214518942,5.152411221362692,4.768337458361094
2.275025259686762,-0.18723567922201742,5.200094595946302,4.853392755965205
2.273152902894542,-0.2008944643463778,5.248628523505954,4.926551797105614
2.271143958251078,-0.226649590512924,5.297894041477011,4.98532880247841
2.268877462345949,-0.2664327140396776,5.347747329501795,5.027425314155455
2.266213135205552,-0.3218466022427252,5.3980215826433495,5.050952087838575
2.262994669183125,-0.3939897106322206,5.448531103521735,5.054656126600151
2.259054772076803,-0.4833084279248685,5.499077664787737,5.038116135109094
2.2542216877975543,-0.5895075170051428,5.549458826138828,5.001867613904365
2.248326612627503,-0.7115418470603189,5.599477502277872,4.9474276115374005
2.2412111941568997,-0.8476971208839216,5.648951778393246,4.877208081522308
2.2327342229480607,-0.9957482785070751,5.69772385920847,4.794330547457042
2.22277674016299,-1.153167964256904,5.74566716468304,4.7023754460845355
2.211245060520421,-1.3173492736658525,5.792690919143885,4.605110298424154
2.1980715677837623,-1.4858088408842858,5.838742022128127,4.506239261176415
2.1832134793749196,-1.656346082240089,5.883804414739891,4.409205098820322
2.166650018552519,-1.8271475880965338,5.927896465728094,4.317058654481084
2.1483785426715536,-1.9968377728679425,5.971067052272905,4.232396005071904
2.128410164942874,-2.1644851812952086,6.013391012323624,4.15735313543451
2.106765313129922,-2.3295776398252777,6.054964543677969,4.093643072206473
2.0834695367316693,-2.491979574842364,6.095900974400034,4.042620042001456
2.0585497409832456,-2.651882741822629,6.136327174820049,4.005357653159489
2.0320309135650194,-2.8097586797379472,6.176380751351644,3.9827317192425076
2.00393332676764,-2.9663183648612623,6.216208068544069,3.9755020073859497
1.9742701431190275,-3.122482277981246,6.2559630886179285,3.984390308462801
1.943045320339215,-3.279362570623084,6.295806991702556,4.010154605009058
1.9102516946329842,-3.4382581744093534,6.335908537752647,4.0536608174678666
1.8758691128888907,-3.60066341393313,6.376445145927326,4.115954804111485
1.8398624787495594,-3.7682908081870945,6.417604693968441,4.198338148502669
1.8021795706676884,-3.9431091279607706,6.459588075453468,4.302451908073885
1.7627484793880808,-4.127398238369051,6.502612594534207,4.430372913743068
1.7214744970043903,-4.32382250496545,6.5469163236716374,4.584727158972246
1.6782362719547357,-4.535523974929405,6.59276359526136,4.768823550246047
1.6328810322054417,-4.766233802130594,6.64045183076382,4.986806955306916
1.5852186941841357,-5.020392352996254,6.690319900316889,5.243817733670257
1.5350147706541732,-5.3032479945350595,6.742758077653591,5.546115783762556
1.4819822907088227,-5.620855644287103,6.798219235491217,5.901058007379628
1.4257737342659516,-5.979783342551288,6.857229815565013,6.316659227966946
1.3659759008404386,-6.38608536810085,6.920396407844683,6.800115369696742
1.30211504715943,-6.842588153624108,6.9883975615416505,7.3539473947846385
1.233689165623189,-7.342666729355257,7.061937035489497,7.967202663708139
1.1602624983296363,-7.858025213016385,7.141609062126578,8.598213639748467
1.0816822461994726,-8.321045342860408,7.227591198524063,9.14969747366111
0.9984717927708685,-8.618273668886578,7.319088173260674,9.459486625259714
0.9122890560820027,-8.637498394949334,7.413683039513272,9.366590933114422
0.8259140721325093,-8.370856770414532,7.507348948844416,8.856110310782803
0.742205504428364,-7.940136446224346,7.595910051952244,8.095186339589093
0.6628041399661205,-7.4851066406358315,7.676861915348135,7.276978505884348
0.5879530735597622,-7.081687934428034,7.749631700406979,6.506139258356179
0.5171361942154818,-6.751549504043863,7.814693092990541,5.811895097703732
0.4496206991750432,-6.492360808303955,7.872812043967578,5.190008188144995
0.3846970910920037,-6.294938858547909,7.924712125849028,4.6265874383574825
0.32174770250652457,-6.149701783976267,7.970978000232602,4.107086694903402
0.2602506846667619,-6.048481560465801,8.012048867181637,3.618887617910366
0.19976586906210386,-5.984729755968839,8.04823774336074,3.1516733044919008
0.13991857150241546,-5.953260321408332,8.07975447640566,2.6971786795352104
0.08038596828833214,-5.949909782992923,8.106726263201011,2.2488453830339554
0.020886870458402908,-5.971225663054283,8.129214717031351,1.8015342271391566
-0.038825386172139924,-6.014206174858018,8.147230059302743,1.3513240585419573
-0.0989674479207201,-6.076089307827955,8.160743299888162,0.8953874157628161
-0.15972834099899963,-6.1541853111130145,8.16969717404579,0.43192279967170044
-0.22127019411012977,-6.245748711327574,8.174016402042508,-0.0398788777297171
-0.2837276812234055,-6.3478892149386255,8.173617613265211,-0.5198560678733954
-0.3472065733727918,-6.457523157379892,8.168419052586477,-1.0069078846733763
-0.4117818049465907,-6.571367658655816,8.158349973739744,-1.4990536211941072
-0.4774954815331489,-6.685977938809666,8.143359437527803,-1.993534290624616
-0.5443552609212455,-6.79782445745417,8.123424094621557,-2.4869624846606175
-0.6123335054957872,-6.90340140960295,8.098554469774951,-2.975517253859338
-0.6813675195918167,-6.999352962249252,8.068799297236358,-3.4551706445732964
-0.7513610492143092,-7.082600062496317,8.034247590790626,-3.921924285647854
-0.8221870498392724,-7.150450042722326,7.995028347934148,-4.372030271202714
-0.8936915502664956,-7.20067413390529,7.95130804522212,-4.802171847743963
-0.9656982916055485,-7.2315438265515795,7.903286326744681,-5.209585838857044
-1.0380137298710643,-7.241824327219783,7.85119046835611,-5.5921185583289805
-1.1104319731432621,-7.230730333404823,7.7952692827728205,-5.948217557551842
-1.1827392764773104,-7.197854486557267,7.735787107197302,-6.276870435822493
-1.2547178213428831,-7.1430814112598044,7.673018402839077,-6.5775075303238975
-1.3261486354554812,-7.0665002769953436,7.607243327535838,-6.849887205471377
-1.3968136382254346,-6.968326967940489,7.538744455481124,-7.0939812661184956
-1.4664969079048396,-6.8488440552588825,7.46780464281994,-7.30987480768682
-1.5349853484574283,-6.708363562965624,7.394705894743072,-7.497690685668575
-1.6020689840870845,-6.547214462665194,7.319728987886386,-7.6575445472617
-1.6675411287137365,-6.3657541142801835,7.2431535424137685,-7.7895324549784375
-1.7311986698565383,-6.164400502694607,7.165258217863984,-7.893749680264511
-1.7928426748834843,-5.943680065660113,7.086320721061339,-7.97033623574912
-1.8522794755400853,-5.704284182495028,7.006617358703848,-8.019542127032574
-1.9093223173650355,-5.447126124382074,6.926421937433522,-8.041803221412188
-1.9637935786088563,-5.173389690581263,6.8460039052194,-8.037817269843288
-2.015527475514669,-4.884561143793447,6.765625732520967,-8.008609285595519
-2.0643730869526036,-4.582437608346825,6.685539639665012,-7.955576456378585
-2.110197463036072,-4.2691078016010024,6.605983875101226,-7.880505149976076
-2.152888541052082,-3.946904543482998,6.527178823601465,-7.785556177227337
-2.1923575864869123,-3.6183323677010906,6.449323261829192,-7.673218785399222
-2.228540910163923,-3.2859770182645778,6.372591073975199,-7.54623811631579
-2.261400680346569,-2.9524059702706835,6.297128692812041,-7.407524276946108
-2.2909247400492756,-2.620069918606252,6.22305345004258,-7.260053116400203
-2.317125439235338,-2.291214357148099,6.150452918878578,-7.106769019222397
-2.3400375828068194,-1.9678082252476834,6.079385228686355,-6.950498656801324
-2.359715665059296,-1.6514936890492744,6.009880242118341,-6.793882161743522
-2.3762306019497887,-1.3435580917947858,5.941941420500906,-6.639325237177474
-2.3896661828677366,-1.044926492356013,5.875548168129131,-6.488972887978096
-2.400115447791297,-0.756171351063093,5.81065843924935,-6.34470320095465
-2.407677161301928,-0.47753492100150186,5.747211407239804,-6.208138120052807
-2.412452510511943,-0.20895967721750097,5.685130026039276,-6.080667469505203
-2.414542107284118,0.04987752984890287,5.6243233513442235,-5.963482439795186
-2.414043331985629,0.29953120593605964,5.564688526946272,-5.857615168113184
-2.4110480199262687,0.5407555884328168,5.50611237526514,-5.763981710156008
-2.4056404640419404,0.7744775771613748,5.44847255816358,-5.68342643721845
-2.3978956882703266,1.00177537033706,5.391638293791395,-5.6167665669867475
-2.387877934566956,1.2238633002118604,5.335470628121528,-5.5648360477131265
-2.375639301564837,1.4420827764864688,5.279822267644397,-5.528528274796483
-2.3612184737999726,1.6578986322501883,5.224536984896432,-5.508837014616565
-2.3446394874774708,1.8728993564954461,5.169448614750266,-5.506894257382306
-2.325910493912516,2.0887984030124946,5.114379672176443,-5.5240021813568845
-2.305022509882391,2.3074315060458965,5.059139650362874,-5.561653370244528
-2.2819481948219322,2.5307408945951386,5.003523116660428,-5.621527791149456
-2.2566407858759807,2.760730127492856,4.947307838748934,-5.705444945912254
-2.229033484601052,2.999360842760435,4.8902533892898115,-5.815232070501462
-2.1990398761734475,3.248342098333975,4.832101068584797,-5.952440118756761
-2.1665564551901078,3.508731527367728,4.77257666739723,-6.117794674233936
-2.1314691399164305,3.780227705352317,4.71139872065489,-6.3102120559304575
-2.093666862862907,4.060007444596849,4.648296600095586,-6.525172798250426
-2.0530667884169387,4.3410278667589495,4.583044872113081,-6.752333686555524
-2.009656509749349,4.610054645676193,4.515521535247526,-6.972732893047634
-1.9635559632925872,4.846548170683957,4.44579420631705,-7.1571577807792774
-1.9150904815857477,5.024793151360335,4.374222628509257,-7.2690043615075615
-1.8648425500721444,5.121624009946006,4.301532584894181,-7.274930844898719
-1.8136263099726844,5.127851405082686,4.228783276445194,-7.160700567338867
-1.7623477959218574,5.054831293265595,4.157176270771805,-6.940323399032979
-1.7117994829892014,4.929052405106068,4.087773036781475,-6.648605457234266
-1.6625089589381408,4.779506114694218,4.021286982209133,-6.32374296138797
-1.6147138977911986,4.6284148724399214,3.958049552595253,-5.994606625060103
-1.5684297490667993,4.489083028749684,3.898103486344652,-5.677860217458331
-1.5235389187793025,4.367881615675448,3.8413248841700685,-5.3807333534577575
-1.479860102622548,4.266966396382169,3.787517550635491,-5.104755178639422
-1.4371904386587262,4.186317041643383,3.7364699988490964,-4.848525986991502
-1.3953272682422924,4.124962703599423,3.6879847389791816,-4.609361669664584
-1.354077641206298,4.081634944153228,3.641891122282536,-4.384153225055221
-1.3132612917647657,4.055085632849429,3.5980495900319838,-4.169771976039282
-1.2727104354362715,4.044225950922338,3.556351870271591,-3.9632359262680006
-1.2322681759270482,4.0481750857243455,3.516719511008911,-3.761758952017689
-1.1917864250698047,4.066265299829237,3.479101921488734,-3.562747133428522
-1.1511237720715124,4.098026737458189,3.443474450154449,-3.3637751085666325
-1.1101435046969306,4.14316295084968,3.4098366990687827,-3.1625591227076755
-1.0687118751884337,4.20152168096871,3.378211107841706,-2.9569354585603045
-1.0266966583787467,4.2730620793442515,3.348641753256103,-2.7448492263900475
-0.9839660375853042,4.357817820490824,3.3211932609922026,-2.5243569454281443
-0.9403878593803959,4.45585468925283,3.295949691537921,-2.293645812067881
-0.8958293124878676,4.5672209111840125,3.273013233417242,-2.051072355920592
-0.8501571033760275,4.6918886380482965,3.252502509858036,-1.7952228688587941
-0.8032382169955445,4.82968565177381,3.234550281169448,-1.5249971631856054
-0.7549413604778065,4.9802176229466095,3.219300309537592,-1.2397155064367502
-0.7051391842483403,5.142783263258287,3.2069031544732245,-0.9392456807017127
-0.6537113516157574,5.31628745223011,3.1975106976662073,-0.6241428764896165
-0.6005484770934564,5.499160678127858,3.191269268901311,-0.2957897525824599
-0.5455568703121778,5.689296344007477,3.1883113713754865,0.04348177457574254
-0.48866390687210304,5.884019685833604,3.188746189121244,0.3903101688519522
-0.429823710013767,6.0801019885253105,3.1926492908097637,0.7402901600125437
-0.3690226901285139,6.273830331926585,3.2000521924098893,1.0880462364113028
-0.3062843868092481,6.4611358318307985,3.2109326547740022,1.427405320692422
-0.24167302849094008,6.637773157729753,3.2252067079809263,1.7516648034005136
-0.17529529691364254,6.79953340638736,3.2427233560149316,2.053934234856141
-0.10729996284976895,6.942464502034939,3.263262698363493,2.3275136239481333
-0.03787531782941955,7.063071100977481,3.2865378346029743,2.566263503796931
0.032755393180355266,7.15847060157544,3.3122004696409437,2.7649245045958084
0.10434009919610966,7.226491898099616,3.3398497146869017,2.9193562463425975
0.17660501817710583,7.265715624579913,3.3690432771503276,3.0266826986660806
0.24926217442290496,7.275465030048036,3.399310104136988,3.0853481177143562
0.32201682472338533,7.255762644899923,3.4301635853141317,3.0950996203821655
0.39457445117238454,7.207268784048395,3.461114581517953,3.0569172961388
0.4666471390128685,7.131214654157485,3.4916837544793413,2.9729110789566575
0.5379592855544433,7.029337293481788,3.521412865268908,2.846197775056323
0.6082526584892611,6.903817775522971,3.549874843019471,2.680764582602958
0.6772908362444908,6.757219610198669,3.576682488845501,2.4813196516917673
0.7448630323464775,6.592421990751144,3.6014956853624187,2.253127307613287
0.810787252253989,6.41254272987042,3.6240269584385514,2.0018260316241663
0.8749126795526931,6.220848101409653,3.644045218754793,1.7332306999742961
0.9371211605667896,6.0206505759476165,3.6613775257545362,1.4531256590253034
0.9973276663262658,5.815199509013194,3.675908782344789,1.1670602267447112
1.0554796614163977,5.607573039306759,3.687579384612236,0.8801614296560885
1.1115553918094654,5.4005808615449515,3.696380998908797,0.5969790160347653
1.165561200424915,5.196686772012485,3.7023507890691447,0.32137476832528594
1.2175280681450398,4.9979572134829064,3.7055645367523975,0.05646261456156826
1.2675076402798688,4.806038266865692,3.706129162898013,-0.19540053937783974
1.3155680229485258,4.622159664125835,3.7041751575042348,-0.4325793549288435
1.361789619589784,4.447161309979255,3.699849363954946,-0.6540903084173513
1.4062612326895767,4.281535999989192,3.6933084608707727,-0.859509852821327
1.4490765926894686,4.125481575288076,3.6847133623425594,-1.0488723994249707
1.4903314084423493,3.978956390117397,3.67422463834831,-1.222568140891612
1.5301209723435234,3.8417332600256966,3.6619989569393936,-1.3812480521003472
1.5685383049437804,3.713448582443067,3.64818647641839,-1.525740608226957
1.6056727907682111,3.593644758566053,3.6329290703361203,-1.6569823202277358
1.6416092383538716,3.481805213258441,3.616359247133843,-1.775962334918186
1.6764272904864561,3.3773821445684655,3.598599623784661,-1.8836801180601406
1.7102011119321407,3.279817654172512,3.5797628226040596,-1.9811145546735063
1.7429992884738659,3.1885591741999115,3.5599516770573247,-2.069202530705591
1.774884880215865,3.103070186303808,3.539259651750269,-2.1488250690757096
1.805915582078903,3.0228371917047765,3.5177714010595116,-2.22079926608229
1.8361439539959508,2.9473737887815075,3.495563408398689,-2.285874525484663
1.865617691883766,2.8762225849577097,3.4727046631438423,-2.344731859910128
1.894379917733343,2.808955536132956,3.449257344544741,-2.3979852884039
1.9224694730946725,2.74517318347789,3.425277491660702,-2.446184587557842
1.9499212049294514,2.684503150688471,3.4008156457851233,-2.4898188454218215
1.976766236436336,2.626598176871003,3.375917457330905,-2.5293204226358514
