th1 (rad),w1 (rad/s),th2 (rad),w2 (rad/s),a1 (rad/s^2),a2 (rad/s^2)
4.2140519285267475,1.93313347588737,1.2757813492358232,-2.1831539167183323,7.503453792204753,-1.273135532375
4.233383263285621,2.0081680138094176,1.25394981006864,-2.1958852720420823,7.863161687490673,-0.9010940264864794
4.253464943423715,2.0867996306843244,1.231990957348219,-2.204896212306947,8.213257979123103,-0.5669889639759281
4.2743329397305585,2.1689322104755555,1.2099419952251496,-2.210566101946706,8.541849410992945,-0.28961243834765615
4.296022261835314,2.254350704585485,1.1878363342056826,-2.213462226330183,8.836569461401046,-0.08873022011936482
4.318565768881169,2.3427163991994955,1.1657017119423807,-2.2143495285313763,9.085586116222924,0.01631111764578634
4.341992932873164,2.433572260361725,1.143558216657067,-2.2141864173549184,9.278766775319033,0.00821425297482052
4.3663286554767815,2.5263599281149154,1.121416352483518,-2.21410427482517,9.408851847823263,-0.12661034763722442
4.3915922547579305,2.620448446593148,1.099275309735266,-2.215370378301542,9.472456294325989,-0.39661703225160866
4.417796739223862,2.7151730095364077,1.0771216059522506,-2.2193365486240584,9.47072522806917,-0.8041847443571436
4.444948469319225,2.8098802618170993,1.05492824046601,-2.2273783960676297,9.409520712390028,-1.3453530893310446
4.473047271937396,2.903975468941,1.0326544565053337,-2.24083192696094,9.299102135255898,-2.0103058113256993
4.502087026626806,2.9969664902935587,1.0102461372357243,-2.260934985074197,9.153359300920703,-2.784534843191376
4.532056691529742,3.088500083302766,0.9876367873849824,-2.2887803335061108,8.988738590856444,-3.6504987289593678
4.562941692362769,3.17838746921133,0.9647489840499213,-2.3252853207957043,8.823047293525631,-4.5895196866569465
4.5947255670548826,3.266617942146586,0.9414961308419643,-2.371180517662274,8.674322007177103,-5.583656832740129
4.6273917464763485,3.353361162218357,0.9177843256653415,-2.427017085989675,8.559910716420195,-6.617341658931108
4.660925358098532,3.438960269382559,0.8935141548054447,-2.4931905025789862,8.495860935341797,-7.678644111749415
4.695314960792357,3.523918878735977,0.8685822497796548,-2.5699769436964806,8.496646413285902,-8.760127980220613
4.730554149579717,3.608885342868836,0.84288248034269,-2.6575782234986867,8.575216468249364,-9.859332082201853
4.766643003008405,3.6946375075513296,0.8163066981077031,-2.756171544320705,8.743322345982893,-10.978967755330643
4.8035893780839185,3.7820707310111583,0.788744982664496,-2.8659612218740116,9.012064937478081,-12.126951685976838
4.84141008539403,3.872191380385939,0.7600853704457559,-2.98723073873378,9.392614335316264,-13.316401105046513
4.880131999197889,3.966117523739102,0.730213063058418,-3.1203947497842455,9.897069042561808,-14.565713912290834
4.919793174435281,4.06508821416472,0.6990091155605755,-3.2660518889071537,10.53944646037066,-15.89884763278045
4.960444056576928,4.170482678768426,0.666348596671504,-3.4250403652349584,11.336823171952386,-17.34590496348516
5.002148883364612,4.28385091048795,0.6320981930191545,-3.59849941486981,12.310671447810474,-18.94413428673177
5.0449873924694915,4.406957624966055,0.5961131988704564,-3.7879407577371276,13.488465713930749,-20.739461970962136
5.089056968719152,4.541842282105363,0.5582337912930851,-3.995335377446749,14.905656163219842,-22.78868553607121
5.134475391540206,4.690898843737561,0.5182804375186176,-4.223222232807461,16.60811654103724,-25.162458301669798
5.181384379977581,4.856980009147934,0.476048215190543,-4.474846815824159,18.655142244438668,-27.94914749437446
5.22995418006906,5.043531431592321,0.43129974703230145,-4.754338290767904,21.122932027201557,-31.25944806837139
5.280389494384983,5.254760751864336,0.38375636412462244,-5.066932771451618,24.10805098355165,-35.23103020563017
5.332937101903626,5.495841261699852,0.3330870364101063,-5.41924307350792,27.729191025768564,-40.03085624271411
5.387895514520625,5.773133171957538,0.2788946056750271,-5.819551635935061,32.12249062395999,-45.84854662732781
5.4456268462402,6.094358078197137,0.2206990893156765,-6.278037102208339,37.417983897647424,-52.863434717475236
5.506570427022172,6.468537917173611,0.1579187182935931,-6.806671449383091,43.66592872595797,-61.14162427722868
5.571255806193909,6.905197204433191,0.08985200379976219,-7.418087692155378,50.63843848468048,-70.35865488601128
5.640307778238241,7.411581589279995,0.015671126878208402,-8.12167424101549,57.34767920586865,-79.12521120671698
5.714423594131041,7.985058381338682,-0.0655456155319465,-8.91292635308266,61.04409763090413,-83.58347661126236
5.794274177944428,8.595499357647723,-0.1546748790627731,-9.748761119195285,55.842579269483736,-75.47956321006941
5.880229171520905,9.15392515034256,-0.2521624902547259,-10.503556751295978,33.53018651170543,-43.29242762699723
5.97176842302433,9.489227015459615,-0.3571980577676857,-10.93648102756595,-6.9931939698065575,14.533387378241153
6.066660693178926,9.41929507576155,-0.46656286804334524,-10.79114715378354,-47.25248289688188,72.14503793049384
6.160853643936542,8.946770246792731,-0.5744743395811807,-10.0696967744786,-65.62884489156995,99.33029957755708
6.250321346404469,8.290481797877032,-0.6751713073259666,-9.07639377870303,-63.71454469776014,98.31612359125593
6.333226164383239,7.65333635089943,-0.7659352451129969,-8.09323254279047,-53.95230224050258,86.42397885336588
6.409759527892233,7.113813328494404,-0.8468675705409017,-7.2289927542568115,-43.564614574731245,73.68814015617845
6.480897661177178,6.678167182747091,-0.9191574980834698,-6.492111352695027,-34.69658751548498,63.08785462343291
6.547679333004648,6.3312013075922415,-0.9840786116104201,-5.861232806460698,-27.548665901910326,54.90621244129964
6.610991346080571,6.055714648573138,-1.042690939675027,-5.312170682047702,-21.8321953071385,48.74717834880057
6.671548492566302,5.837392695501753,-1.095812646495504,-4.824698898559697,-17.216069513784586,44.151940698537246
6.729922419521319,5.665232000363908,-1.144059635481101,-4.3831794915743245,-13.430665377016153,40.74098213498246
6.7865747395249585,5.5309253465937465,-1.1878914303968442,-3.9757696702245,-10.276405326455796,38.22452638358649
6.841883992990896,5.428161293329189,-1.2276491270990892,-3.593524406388635,-7.6111077384227555,36.383828403863234
6.896165605924188,5.352050215944961,-1.2635843711629755,-3.2296861223500026,-5.335952687774294,35.05070354509903
6.949686108083638,5.298690689067218,-1.2958812323864755,-2.879179086899012,-3.384296339139623,34.09126241333177
7.00267301497431,5.264847725675822,-1.3246730232554655,-2.5382664627656943,-1.7134341891902982,33.39421312683634
7.0553214922310685,5.247713383783919,-1.3500556878831225,-2.204324331497331,-0.2985301929335045,32.86294803362222
7.107798626068908,5.244728081854585,-1.3720989311980958,-1.875694851161109,0.8720898774593097,32.410637375738034
7.160245906887454,5.2534489806291775,-1.3908558797097068,-1.5515884774037285,1.800904423660488,31.957760612883757
7.212780396693746,5.271458024865782,-1.4063717644837441,-1.232010871274891,2.4848378842263594,31.431657891620624
7.265494976942404,5.296306403708046,-1.418691873196493,-0.9176942923586847,2.9187895058570956,30.767721882570918
7.318458040979484,5.325494298766617,-1.4278688161200799,-0.6100170735329755,3.09906079774109,29.911783107190974
7.371712983967151,5.356484906744027,-1.4339689868554095,-0.31089924246106576,3.026513851449334,28.823113183536393
7.425277833034591,5.386750045258521,-1.4370779792800201,-0.022668110625701843,2.7091618839343043,27.477347658261333
7.4791453334871765,5.4138416640978635,-1.4373046603862771,0.2521053659569115,2.1638475980664373,25.86859046467452
7.533283750128155,5.4354801400785275,-1.4347836067267081,0.5107912706036567,1.4167295627324061,24.01006630480998
7.58763855152894,5.4496474357058515,-1.4296756940206716,0.7508919336517565,0.5024668825989366,21.93294986080272
7.642135025885999,5.4546721045318405,-1.422166774684154,0.9702214322597837,-0.5377755815733245,19.68337332310815
7.696681746931318,5.449294348716108,-1.4124645603615562,1.1670551654908652,-1.65915655258115,17.317996516655835
7.751174690418479,5.4327027831902965,-1.4007940087066475,1.3402351306574236,-2.816335443471953,14.898804858852799
7.805501718250381,5.404539428755577,-1.3873916574000733,1.4892231792459516,-3.9664904604972167,12.487902990546521
7.859547112537937,5.364874524150604,-1.3724994256076137,1.6141022091514168,-5.07176823007117,10.142985534541138
7.913195857779443,5.314156841849893,-1.3563584035160996,1.7155320644968282,-6.100926437388749,7.9139436040137925
7.966337426197942,5.253147577476005,-1.3392030828711312,1.794671500536966,-7.030116307843012,5.840791820478258
8.018868901972702,5.1828464143975745,-1.3212563678657616,1.8530794187417485,-7.8429017034973185,3.9528560381543953
8.070697366116677,5.104417397362601,-1.302725573678344,1.8926079791232926,-8.52970053621432,2.2689959877124073
8.121741540090303,5.019120392000458,-1.2837994938871111,1.9152979390004166,-9.086861457110539,0.7985618103170568
8.171932744010308,4.928251777429352,-1.2646465144971069,1.9232835571035871,-9.515570020461874,-0.45721652322601736
8.221215261784602,4.8330960772247336,-1.245413678926071,1.918711391871327,-9.820734774464155,-1.5036605120096203
8.26954622255685,4.734888729480092,-1.2262265650073578,1.9036747867512307,-10.0099533239616,-2.3510814412297543
8.31689510985165,4.634789196240476,-1.2071898171398454,1.8801639723389332,-10.092613309306168,-3.0133448953318944
8.363243001814055,4.533863063147415,-1.188388177416456,1.8500305233856142,-10.079148984284997,-3.506624862479567
8.408581632445529,4.433071573304565,-1.1698878721825998,1.8149642747608186,-9.980451488505397,-3.848370204287039
8.452912348178574,4.33326705841951,-1.1517382294349916,1.7764805727179482,-9.807418224068162,-4.0564800404692045
8.49624501876277,4.235192876178829,-1.133973423707812,1.7359157723132561,-9.570621252826342,-4.148669845387708
8.538596947524557,4.139486663650565,-1.1166142659846796,1.694429073859379,-9.280073702052732,-4.142003366077196
8.579991814161062,4.046685926630038,-1.099669975246086,1.653009040198607,-8.945074725541643,-4.05256385795392
8.620458673427363,3.957235179374621,-1.0831398848440998,1.612483401619068,-8.574116189556166,-3.8952393500027775
8.660031025221109,3.8714940174790597,-1.0670150508279093,1.5735310081190401,-8.174837083055191,-3.683599198971208
8.698745965395899,3.789745646648508,-1.051279740746719,1.536695016129328,-7.754014252699137,-3.4298421780717754
8.736643421862384,3.7122055041215165,-1.0359127905854257,1.5023965943486102,-7.317580268862491,-3.1447992986338873
8.773765476903598,3.6390297014328916,-1.0208888246419396,1.4709486013622712,-6.870661024602578,-2.837977275153351
8.810155773917927,3.5703230911868657,-1.0061793386283169,1.4425688286107377,-6.417627110375302,-2.5176309524057676
8.845859004829796,3.5061468200831127,-0.9917536503422095,1.41739251908668,-5.96215416841277,-2.1908551226601944
8.880920473030628,3.446525278398985,-0.9775797251513427,1.3954839678600781,-5.5072883814597455,-1.8636879999893206
8.915385725814618,3.3914523945843875,-0.9636248854727419,1.3768470878601848,-5.0555140444681665,-1.5412202176033458
8.949300249760462,3.3408972541397057,-0.94985641459414,1.3614348856841514,-4.608820841313009,-1.2277045976639753
8.982709222301859,3.2948090457265757,-0.9362420657372985,1.3491578397075117,-4.16876902418634,-0.9266631294521104
9.015657312759124,3.2531213554847125,-0.9227504873402234,1.3398912084129906,-3.7365511841742376,-0.6409885952803672
9.048188526313972,3.2157558436429703,-0.9093515752560934,1.333481322460187,-3.3130497153824003,-0.3730391169192293
9.080346084750401,3.182625346489146,-0.8960167620314916,1.3297509312909945,-2.8988894172992286,-0.12472457176975074
9.112172338215293,3.153636452316154,-0.8827192527185816,1.328503685573297,-2.4944849559173163,0.10241563782348924
9.143708702738454,3.1286916027569807,-0.8694342158628486,1.329527841951532,-2.1000831190657947,0.30714357079287485
9.174995618766024,3.1076907715663227,-0.8561389374433334,1.3325992776594606,-1.7157999618222801,0.48846229902480626
9.206072526481687,3.0905327719480997,-0.8428129446667387,1.3374839006497088,-1.3416530508051085,0.6455636275490443
9.236977854201168,3.0771162414400486,-0.8294381056602417,1.3439395369251992,-0.9775890889170495,0.777783454527685
9.267749016615568,3.0673403505508783,-0.8159987102909897,1.351717371470476,-0.6235072419668588,0.8845641700100871
9.298422420121076,3.0611052781312096,-0.802481536576285,1.3605630131705768,-0.27927850236575286,0.9654234654750765
9.329033472902388,3.058312493107552,-0.7888759064445792,1.3702172478253276,0.055238581025176,1.0199289323510115
9.359616597833464,3.0588648789178037,-0.7751737339663259,1.3804165371488377,0.38018549841632726,1.0476778565973224
9.390205246622642,3.062666733901967,-0.7613695685948375,1.390893315714811,0.69569442196893,1.0482816594523199
9.420831913961662,3.069623678121656,-0.7474606354376894,1.401376132309334,1.0018816545502753,1.0213544846204021
9.451528150742877,3.079642494667159,-0.7334468741145961,1.411589677155538,1.2988436823764287,0.9665054839127332
9.48232457568955,3.0926309314909233,-0.7193309773430407,1.4212547319946653,1.5866556695302412,0.8833344022404682
9.513250885004458,3.1084974881862255,-0.705118430023094,1.43008807601707,1.865372270834538,0.771430105389284
9.54433585988632,3.1271512108945707,-0.6908175492629234,1.437802377070963,2.1350306750071755,0.6303717273855712
9.575607371995266,3.1485015176446423,-0.6764395254922138,1.4441060943448187,2.3956558211872143,0.45973213624249876
9.607092387171713,3.172458075856514,-0.6619984645487655,1.4487034157072438,2.647267757820599,0.25908342559790376
9.638816967930278,3.19893075343472,-0.6475114303916931,1.4512942499632229,2.8898911327679295,0.028004133697938707
9.670806275464626,3.2278296647623996,-0.6329984878920609,1.4515742913002023,3.1235668168006323,-0.23391213091224322
9.70308457211225,3.259065332930406,-0.6184827449790589,1.44923516999108,3.3483656690831363,-0.5270470167107887
9.735675225441554,3.2925489896212374,-0.603990393279148,1.4439646998239721,3.564404452802591,-0.8517471259501548
9.768600715337767,3.328193034149263,-0.5895507462809083,1.4354472285644706,3.771863902219627,-1.2083135717590232
9.80188264567926,3.3659116731714596,-0.5751962739952636,1.4233640928468803,3.9710089300360383,-1.5969919785116047
9.835541762410974,3.40562176247182,-0.5609626330667948,1.4073941730617643,4.162210947786838,-2.0179636168957513
9.869597980035692,3.4472438719496883,-0.5468886913361772,1.3872145368928068,4.3459722545556625,-2.4713384884569938
9.90407041875519,3.490703594495245,-0.5330165459672491,1.3625011520082368,4.522952434395665,-2.9571513101088747
9.938977454700142,3.5359331188392016,-0.5193915344471668,1.332929638907148,4.6939966954562875,-3.475361494001776
9.974336785888534,3.5828730857937643,-0.5060622380580954,1.2981760239671303,4.860166090534428,-4.025858368526908
10.010165516746472,3.6314747466991086,-0.49308047781842407,1.2579174402818611,5.022769587827423,-4.608473038238592
10.046480264213463,3.6817024425773828,-0.48050130341560543,1.2118327098994752,5.183398022076574,-5.222998430715698
10.083297288639237,3.7335364227981485,-0.4683829763166107,1.1596027255923183,5.343960061858194,-5.869219224793982
10.120632652867219,3.7869760234167305,-0.4567869490606875,1.1009105333443785,5.506720492047963,-6.54695349764487
10.158502413101386,3.84204322833721,-0.4457778437272437,1.0354409983679298,5.674341346611661,-7.256108072221985
10.196922845384758,3.8987866418033263,-0.4354234337435644,0.9628799176457099,5.8499267524530145,-7.996749701516956
10.235910711802791,3.9572859093278563,-0.4257946345671073,0.8829124206305403,6.037072777897916,-8.769194408784085
10.27548357089607,4.017656637106835,-0.4169655103608019,0.7952204765426995,6.23992413830767,-9.574117538628407
10.315660137267137,4.080055878489912,-0.4090133055953749,0.6994793011564153,6.463240315674487,-10.412687396513691
10.356460696052036,4.144688281646657,-0.40201851258381077,0.5953524271912785,6.712474517976912,-11.286725805118563
10.397907578868502,4.211813026826426,-0.396064988311898,0.4824851691400928,6.993869954330692,-12.198899529163743
10.440025709136766,4.281751726369733,-0.39124013662049706,0.3604961738484554,7.314579142944385,-13.152947352214873
10.482843226400464,4.354897517799177,-0.3876351748820125,0.22896670032630664,7.68281339108043,-14.153948636326884
10.526392201578455,4.431725651709981,-0.38534550787874944,0.08742721396303779,8.10803113622437,-15.208640392243176
10.570709458095555,4.512805963072225,-0.38447123573911907,-0.06465918995939396,8.601175365638857,-16.325791011027817
10.615837517726277,4.598817716728614,-0.385117827638713,-0.22791710006967214,9.174971483480624,-17.516639312527907
10.661825694893563,4.69056743156342,-0.38739699863940974,-0.4030834931949512,9.84429699493853,-18.79540626271817
10.708731369209199,4.789010401512805,-0.39142783357135924,-0.5910375558221329,10.626631590538466,-20.17988113212111
10.756621473224326,4.89527671741819,-0.39733820912958057,-0.792836367143344,11.542587269722995,-21.692069004185658
10.805574240398508,5.01070259011542,-0.405266572801014,-1.0097570571852006,12.616496172309086,-23.35885234193819
10.855681266299662,5.1368675518385105,-0.41536414337286603,-1.2433455806045826,13.876984880960428,-25.21254566449909
10.907049941818046,5.275637400648114,-0.42779759917891186,-1.4954710372495734,15.357360052236018,-27.291069047064042
10.959806315824528,5.429211001170475,-0.4427523095514076,-1.7683817277202138,17.095414913247055,-29.637152854675772
11.014098425836233,5.600165150302946,-0.46043612682860974,-2.0647532562669717,19.13182695450919,-32.29535369950594
11.070100077339262,5.791483419848038,-0.48108365939127945,-2.3877067932620313,21.50543415578484,-35.30440040795265
11.128014911537743,6.006537761405886,-0.5049607273238997,-2.740750797341558,24.241939116442037,-38.67992255396008
11.188080289151802,6.2489571525703065,-0.5323682352973154,-3.1275500228811586,27.329305958391608,-42.37797995313437
11.250569860677505,6.522250212154223,-0.5636437355261269,-3.5513298224125025,30.667433926513613,-46.22184540842902
11.315792362799048,6.828924551419359,-0.5991570337502519,-4.013548276496793,33.97189283167675,-49.76367485894339
11.384081608313242,7.168643479736127,-0.6392925165152198,-4.511185025086227,36.60865271842284,-52.04918978302782
11.455768043110602,7.5347300069203555,-0.6844043667660821,-5.031676922916505,37.370025619360234,-51.301676057876584
11.531115343179806,7.908430263113958,-0.7347211359952471,-5.544693683495271,34.355764967539066,-44.76087339431495
11.610199645810946,8.25198791278935,-0.7901680728301999,-5.99230241743842,25.48125908918483,-29.42052210726492
11.69271952493884,8.506800503681198,-0.8500910970045841,-6.286507638511069,10.295396940935165,-4.634179138832237
11.777787529975651,8.60975447309055,-0.9129561733896948,-6.332849429899391,-7.771877795983965,24.662490174560155
11.863885074706557,8.53203569513071,-0.9762846676886887,-6.08622452815379,-22.475011816511326,49.4396512554628
11.949205431657864,8.307285576965597,-1.0371469129702267,-5.5918280155991615,-29.842620045995492,63.82536442999317
12.03227828742752,8.008859376505642,-1.0930651931262183,-4.95357437129923,-30.635892138426787,68.69132987872467
12.112366881192576,7.702500455121374,-1.1426009368392107,-4.266661072511983,-27.757458397398693,68.04839583758796
12.18939188574379,7.424925871147387,-1.1852675475643306,-3.5861771141361034,-23.569019485320357,65.22517046594635
12.263641144455264,7.189235676294183,-1.2211293187056917,-2.93392540947664,-19.320353153413887,62.00681242005192
12.335533501218205,6.996032144760044,-1.250468572800458,-2.3138572852761206,-15.519782073129525,59.12542354318324
12.405493822665806,6.840834324028749,-1.2736071456532192,-1.7226030498442881,-12.317626607001282,56.79011480629415
12.473902165906093,6.717658057958736,-1.290833176151662,-1.1547019017813467,-9.720788416983721,54.9889232926039
12.541078746485681,6.620450173788899,-1.3023801951694756,-0.6048126688553077,-7.690094020743999,53.628803712882764
