th1 (rad),w1 (rad/s),th2 (rad),w2 (rad/s),a1 (rad/s^2),a2 (rad/s^2)
3.7405496936954346,0.6191547872071727,2.932545822198795,-0.35865360858681905,7.993484697419449,-7.279681944653366
3.746741241567506,0.6990896341813672,2.928959286112927,-0.4314504280333527,7.951611217212067,-7.149189849460406
3.75373213790932,0.7786057463534878,2.9246447818325936,-0.5029423265279568,7.9028616392629045,-7.001240044730406
3.7615181953728545,0.8576343627461168,2.919615358567314,-0.5729547269752608,7.847573888624834,-6.83574589182931
3.7700945390003158,0.9361101016323652,2.913885811297561,-0.641312185893554,7.786194456095935,-6.6527056693046
3.7794556400166393,1.0139720461933246,2.9074726894386256,-0.7078392425866,7.7192930559846715,-6.4522190946820785
3.7895953604785726,1.0911649767531713,2.9003942970127596,-0.7723614335334208,7.647573507044252,-6.234497941439729
3.8005070102461045,1.1676407118236138,2.8926706826774256,-0.8347064129478181,7.5718799936792935,-5.999869500928173
3.8121834173643405,1.2433595117604068,2.8843236185479473,-0.8947051079570998,7.4931982120245175,-5.748772118481117
3.8246170124819447,1.318291493880652,2.8753765674683764,-0.952192829141911,7.412651297265716,-5.481742574909245
3.8377999274207513,1.3924180068533092,2.8658546391769573,-1.0070102548910034,7.3314908287300105,-5.199395639041485
3.8517241074892845,1.4657329151406093,2.855784536628047,-1.0590042112814182,7.2510835797922635,-4.902396631130393
3.866381436640691,1.538243750938532,2.845194494515233,-1.108028177592722,7.17289498535141,-4.5914282620711155
3.881763874150076,1.6099727007920461,2.8341142127393057,-1.1539424602134332,7.098470512950744,-4.267153311629491
3.897863601157997,1.6809574059215535,2.8225747881371714,-1.1966139933297282,7.029416228167874,-3.9301748582845217
3.9146731752172124,1.7512515682032324,2.8106086482038743,-1.2359157419125735,6.967379837224236,-3.580995770320303
3.9321856908992445,1.8209253665754748,2.7982494907847486,-1.2717256996157764,6.914033378916956,-3.219979026829561
3.9503949445649993,1.8900657003646444,2.785532233788591,-1.303925489884072,6.871058543164755,-2.8473101874210935
3.969295601568646,1.9587762857962918,2.7724929788897503,-1.332398591758283,6.840135340305418,-2.462963009410574
3.988883364426609,2.027177639199346,2.7591689929721674,-1.3570282218523888,6.822934561506014,-2.066668863683321
4.009155140818602,2.095406984814406,2.7455987107536437,-1.377694910489222,6.821114181988297,-1.6578902661633257
4.030109210666746,2.1636181266342893,2.7318217616487517,-1.3942738131508552,6.836319585781146,-1.2357985559815305
4.051745391933089,2.231981322492101,2.717879023517243,-1.4066317987106705,6.870187246767181,-0.7992555408284447
4.07406520515801,2.3006831949597726,2.7038127055301366,-1.414624354118955,6.924351291400315,-0.34679881258557227
4.0970720371076075,2.3699267078737756,2.689666461988947,-1.4180923422448106,7.000452191676289,0.12336957771165577
4.120771304186345,2.4399312297905387,2.675485538566499,-1.416858646467694,7.100146684489382,0.6133913028942272
4.145170616484251,2.5109326966354324,2.661316952101822,-1.4107247334387518,7.225117872457359,1.1257568156064872
4.170279943450605,2.583183875360006,2.6472097047674343,-1.3994671652826869,7.377084315702987,1.6633069807042287
4.196111782204205,2.656954718517036,2.6332150331146074,-1.3828340954756446,7.557806756654612,2.229230565590162
4.222681329389375,2.732532786083582,2.6193866921598508,-1.360541789819743,7.769090913564073,2.8270563332888923
4.250006657250211,2.8102236952192228,2.6057812742616533,-1.332271226486854,8.012784517753385,3.4606378251905223
4.278108894202403,2.8903515403967566,2.592458561996785,-1.2976648482349487,8.290766442703832,4.134128133627559
4.30701240960637,2.973259204823795,2.579481913514435,-1.256323566898673,8.604925373979698,4.851941043099222
4.3367450016546085,3.0593084585635917,2.5669186778454485,-1.2078041564676807,8.957125000923762,5.618693864816511
4.367338086240244,3.1488797085728293,2.5548406362807716,-1.1516172178195156,9.349152191665135,6.439126120087129
4.398826883325973,3.2423712304894807,2.5433244641025765,-1.0872259566186444,9.782644081212922,7.317986989936802
4.431250595630868,3.34019767130161,2.53245220453639,-1.0140460867192764,10.258989528142777,8.259883232424459
4.4646525723438835,3.442787566583038,2.5223117436691975,-0.9314472543950318,10.77920009134104,9.269078233344525
4.499080448009714,3.5505795674964484,2.512997271125247,-0.8387564720615865,11.343745713544164,10.34923225114329
4.534586243684679,3.66401702463189,2.504609706404631,-0.7352641495501536,11.952350911217204,11.50307411353503
4.571226413930997,3.783540533744062,2.4972570649091295,-0.6202334084148033,12.603748775222721,12.731996133883277
4.609061819268438,3.9095780214962894,2.4910547308249815,-0.49291344707597057,13.29539286816443,14.035567498414913
4.6481575994834,4.042531950177934,2.486125596354222,-0.35255777209182143,14.023131583852509,15.410967602533775
4.68858291898518,4.182763266016459,2.482600018633304,-0.19844809606648367,14.780856095581873,16.852350573389867
4.7304105516453445,4.330571826972278,2.480615537672639,-0.029924590332584988,15.560141873070483,18.350166115036576
4.7737162699150675,4.486173245702983,2.4803162917693133,0.15357707081778077,16.349914723306345,19.890479962747527
4.818578002372098,4.649672392936047,2.481852062477491,0.35248187044525603,17.13618458932544,21.454358802216476
4.865074726301458,4.821034238829301,2.485376881181944,0.5670254584674208,17.90190217099424,23.01740720627976
4.913285068689751,5.000053260539244,2.491047135766618,0.7971995305302184,18.62700193711773,24.54956377872972
4.963285601295143,5.186323279910421,2.49901913107192,1.0426951683175156,19.288696356081953,26.01527409500138
5.015148834094248,5.37921024347124,2.5094460827550953,1.3028479092675296,19.862075772172393,27.37415163701606
5.068940936528961,5.577831001192964,2.5224745618477704,1.5765894256376902,20.321042596671358,28.582207436588305
5.124719246540891,5.7810414271596775,2.5382404561041474,1.8624115000035733,20.639566166071397,29.593670254409584
5.182529660812487,5.987437088820392,2.556864571104183,2.158348202547669,20.793188991402975,30.363333813648993
5.2424040317006915,6.195368978734422,2.5784480531296596,2.461981540684159,20.76065511784364,30.84926683711684
5.304357721488036,6.402975529912858,2.603067868536501,2.7704742090553274,20.52548099560181,31.015625631229174
5.368387476787165,6.608230339868876,2.6307726106270546,3.0806304653676193,20.07726471374871,30.8352436315653
5.434469780185854,6.809002987006363,2.6615789152807308,3.3889829016832724,19.41254343023328,30.291661720810684
5.502559810055917,7.003128421308696,2.6954687442975636,3.6918995188913795,18.535065000086096,29.380320053339904
5.572591094269004,7.1884790713095565,2.7323877394864775,3.9857027194247783,17.455429253731705,28.108750967769065
5.6444758849821,7.363033363846873,2.7722447666807253,4.266790229102469,16.1901568600041,26.495768458445397
5.7181062186205684,7.524934932446914,2.81491266897175,4.531747913686923,14.76033382308413,24.56980543574404
5.793355567945038,7.672538270677756,2.860230148108619,4.777445968044363,13.190035629311335,22.366668581771087
5.870080950651816,7.804438626970869,2.9080046077890627,5.001112653862074,11.50474610609781,19.9270374557035
5.948125336921525,7.919486088031848,2.9580157343276836,5.200383028419109,9.729955111321571,17.294024455293954
6.027320197801843,8.016785639145063,3.010019564611875,5.373323272972049,7.890060100765643,14.51104845002173
6.107488054193293,8.09568624015272,3.0637527973415954,5.518433757472266,6.0076279314087655,11.620181459574912
6.188444916594821,8.155762519466807,3.118937134916318,5.6346355720680155,4.103011524803362,8.661030192023302
6.270002541789489,8.196792634714841,3.175283490636998,5.721245873988249,2.1942716258704715,5.6701320606084655
6.351970468136637,8.218735350973546,3.2324959493768803,5.777947194594333,0.29733002551015164,2.680788541924647
6.434157821646372,8.221708651228647,3.2902754213228236,5.804755080013579,-1.573725245010412,-0.2767713257238236
6.516374908158658,8.205971398778543,3.3483229721229595,5.80198736675634,-3.406255657089497,-3.1750125395364597
6.598434622146444,8.171908842207648,3.406342845790523,5.7702372413609755,-5.188668859575226,-5.98860922565522
6.68015371056852,8.120022153611895,3.4640452182041326,5.710351149104423,-6.910042023604676,-8.693946873155397
6.761353932104639,8.050921733375848,3.521148729695177,5.623411680372869,-8.559805139640691,-11.268687863343922
6.841863149438398,7.965323681979441,3.5773828464989057,5.51072480173943,-10.12750816335646,-13.691459159224813
6.921516386258192,7.864048600345876,3.6324900945163,5.373810210147182,-11.60268936658398,-15.941704827519033
7.000156872261651,7.748021706680036,3.6862281966177717,5.214393161871992,-12.974857353767174,-17.9997304300698
7.0776370893284515,7.618273133142364,3.7383721282364917,5.034395857571294,-14.23359431413147,-19.846950005175948
7.1538198206598755,7.47593719000105,3.7887160868122045,4.835926357519535,-15.368781621440533,-21.46632818156012
7.228579192559886,7.3222493737866445,3.8370753503874,4.621263075703934,-16.37093981834257,-22.842989488731675
7.301801686297752,7.158539975603219,3.883287981144439,4.392833180816617,-17.23166319491972,-23.964944973495435
7.373387086053785,6.9862233436540215,3.927216312952605,4.153183731081663,-17.94411561178037,-24.823865133793173
7.443249319490325,6.806782187536218,3.968748150263422,3.9049450797437313,-18.50354110066419,-25.415811585793787
7.511317141365687,6.621746776529576,4.007797601060859,3.6507869638857935,-18.90773308166155,-25.741832053356287
7.577534609130983,6.4326694457129605,4.044305470699717,3.3933686433522308,-19.157402853252936,-25.80832793840928
7.641861303588112,6.241095417180431,4.07823915713324,3.135285363968138,-19.256393599497795,-25.62712274305802
7.704272257759917,6.048531481185453,4.109592010772921,2.879014136537558,-19.211701059107707,-25.21519185059443
7.764757572571772,5.856414470594376,4.138382152138297,2.6268622180316137,-19.033284532792962,-24.59405520947736
7.823321717277715,5.666081625266446,4.164650774318613,2.38092166593684,-18.733678320618328,-23.78887727585202
7.87998253353038,5.478744842060262,4.188459990977981,2.14303289317832,-18.327439026015035,-22.827355186293616
7.934769981950983,5.295470451800112,4.209890319909764,1.9147593413153838,-17.830483594104305,-21.73849974851322
7.987724686468984,5.117165615859069,4.229037913322918,1.6973743438302515,-17.25938305219243,-20.551420634271686
8.038896342627575,4.9445717853371445,4.24601165676122,1.4918601374875347,-16.630676542683016,-19.2942171810128
8.088342060480947,4.7782650199103145,4.260930258136095,1.2989179656774066,-15.96026060612419,-17.993053040389313
8.13612471068005,4.618662413849073,4.273919437792869,1.1189874352735134,-15.262892772742275,-16.671462361056843
8.182311334818541,4.46603348612165,4.285109312145604,0.952272811662945,-14.551830097107885,-15.349903553505435
8.226971669679758,4.320515185150571,4.2946320402622336,0.7987737761278906,-13.838605798026473,-14.045549194410956
8.270176821531264,4.182129127170306,4.302619778023512,0.658318284183781,-13.132933135499638,-12.772280550888077
8.311998112802966,4.050799795815309,4.30920296086535,0.5305954786749003,-12.442716295023157,-11.540843644654114
8.35250611076112,3.926372632865078,4.314508915652099,0.41518704222835917,-11.774143427219785,-10.359120064682976
8.39176983708977,3.80863119859288,4.318660786074383,0.3115958415815294,-11.131836367647008,-9.23246811303222
8.429856149075698,3.69731283491641,4.321776744490198,0.2192711604512072,-10.519033796131142,-8.164096169716334
8.466829277424862,3.5921224969550987,4.32396945609471,0.13763019875404386,-9.937788492914516,-7.155438355758416
8.502750502394413,3.4927446120259535,4.325345758082251,0.0660758151964597,-9.389163890954896,-6.206511060234533
8.537677948514672,3.3988529731164046,4.326006516234215,0.00401070459411438,-8.873419569410453,-5.31623661394958
8.571666478245836,3.3101187774223,4.326046623280156,-0.04915166154538142,-8.390179230344348,-4.482726771725277
8.60476766602006,3.2262169851188567,4.325555106664702,-0.09397892926263418,-7.938577838499399,-3.7035235236002357
8.637029835871248,3.1468312067338626,4.324615317372076,-0.13101416449863654,-7.517386945944055,-2.975798163490088
8.668498147938587,3.0716573372744223,4.323305175727089,-0.1607721461335374,-7.125118839649486,-2.296511712553288
8.699214721311332,3.0004061488779272,4.321697454265754,-0.1837372632590703,-6.760111163460527,-1.662540987584606
8.72921878280011,2.932805037243322,4.319860081633164,-0.20036267313491637,-6.420594214051748,-1.0707750837214252
8.758546833172543,2.8685990951028044,4.317856454901815,-0.21107042397213063,-6.104743322640928,-0.5181870342101194
8.78723282412357,2.807551661876395,4.315745750662093,-0.21625229431423182,-5.810718720064594,-0.0018851013878813062
8.815308340742334,2.7494444746757494,4.313583227718951,-0.21627114532811062,-5.5366951284839905,0.48085232018089025
8.842802785489091,2.6940775233909093,4.311420516265669,-0.2114626221263017,-5.280883092167028,0.9325547486431528
8.869743560723,2.641268692469239,4.309305890044406,-0.20213707463987018,-5.041543796861511,1.3555477135920777
8.896156247647692,2.5908532545006238,4.307284519298007,-0.1885815975039494,-4.816998861282201,1.7519485255621103
8.922064780192699,2.542683265887802,4.305398703322968,-0.1710621122483283,-4.605636332746854,2.123667789624622
8.947491612851577,2.496626902560333,4.303688082200485,-0.14982543435208207,-4.405913891438125,2.4724151295009906
8.97245788187718,2.452567763645952,4.302189827856964,-0.12510128305707216,-4.216360068086379,2.799707917737653
8.99698355951364,2.4104041629650883,4.3009388150263925,-0.09710420387969562,-4.035574108543243,3.106882076629521
9.02108760114329,2.370048421879656,4.299967772987595,-0.0660353831134004,-3.8622249742088792,3.395104230123835
9.044788085362086,2.331426172137567,4.299307419156461,-0.032084340812162056,-3.6950498470224193,3.6653846562731
9.068102347083462,2.2944756736673426,4.29898657574834,0.004569505750568942,-3.5328524087830573,3.918590620428402
9.091047103820136,2.259147149579512,4.299032270805846,0.04375541195485296,-3.3745010840131515,4.155459768368189
9.113638575315932,2.2254021387393803,4.299469824925394,0.08531000963853486,-3.2189273707178607,4.376613332367729
9.135892596703325,2.193212865032202,4.30032292502178,0.12907614296221215,-3.065124331886563,4.582568957477569
9.157824725353647,2.162561621713336,4.301613686451402,0.17490183253698785,-2.9121452804261714,4.773752994838637
9.17945034157078,2.1334401689090745,4.303362704776772,0.22263936248537422,-2.759102659753085,4.950512137782693
9.20078474325987,2.1058491423115435,4.305589098401626,0.27214448386320117,-2.60516710011511,5.113124298086364
9.221843234682986,2.0797974713103926,4.308310543240258,0.3232757268440648,-2.4495666157000917,5.261808636726405
9.242641209396089,2.0553018051533916,4.311543300508698,0.37589381321132886,-2.29158589869841,5.396734677871539
9.263194227447622,2.0323859461664076,4.315302238640812,0.42986115999004426,-2.1305656628041474,5.51803044813291
9.283518086909286,2.011080289538366,4.319600850240713,0.48504146447137336,-1.9659019892983354,5.625789596278362
9.303628889804669,1.9914212696453826,4.324451264885426,0.5412993604341569,-1.797045633013548,5.720077462260589
9.323543102501123,1.973450813315247,4.329864258489768,0.5985001350567628,-1.6235012522971537,5.80093607872017
9.343277610634276,1.9572158007922755,4.3358492598403355,0.6565094958439646,-1.444826535741967,5.868388103015176
9.3628497686422,1.942767535434856,4.342414354798775,0.7151933768741163,-1.260631208127149,5.922439693002006
9.382277443996548,1.9301612233535845,4.349566288567516,0.7744177738041363,-1.0705759079374024,5.96308235481331
9.401579056230084,1.9194554642742105,4.357310466305557,0.8340485973522694,-0.8743709382932793,5.990293805254111
9.420773610872825,1.9107117548912778,4.365650952279079,0.8939515354048105,-0.6717749015065084,6.004037904679095
9.439880728421738,1.9039940058762126,4.374590467633127,0.9539919144516015,-0.46259323425544296,6.004263727898794
9.4589206684805,1.8993680735336582,4.3841303867776436,1.0140345517305893,-0.24667666516415906,5.990903850473816
9.477914349215837,1.8969013068820166,4.39427073229495,1.0739435902353276,-0.023919619100798227,5.963871935511098
9.496883362284658,1.8966621106910087,4.405010168197303,1.1335823095904385,0.20574140734973734,5.923059711735941
9.515849983391568,1.8987195247645061,4.416345991293207,1.192812906707798,0.4423294770579469,5.8683334372774265
9.534837178639213,1.9031428195350857,4.428274120360285,1.2514962410805721,0.6858288325987387,5.799529945490192
9.553868606834564,1.910001107861073,4.440789082771091,1.3094915405354741,0.9361864948120667,5.71645236954824
9.572968617913174,1.9193629728091937,4.453883998176446,1.3666560642309564,1.193313837709486,5.618865641842384
9.592162247641266,1.9312961111862885,4.467550558818755,1.4228447206493802,1.4570881483436968,5.50649186275858
9.611475208753129,1.9458669926697254,4.481779006025249,1.477909639276966,1.7273541924141615,5.379005631546423
9.630933878679826,1.963140534593867,4.496558102418019,1.5316996955924302,2.003925819924889,5.236029429975376
9.650565284025765,1.9831797927931158,4.511875099373944,1.584059989892184,2.2865876599865795,5.077129147494878
9.670397081953697,2.006045669392982,4.527715699272865,1.6348312813671328,2.575096969750949,4.901809834714876
9.690457538647626,2.031796639090491,4.544064012086537,1.6838493797142817,2.869185719402479,4.7095117701204945
9.710775505038532,2.060488496284516,4.560902505883679,1.7309444974154866,3.1685630130615103,4.499606922795579
9.731380390001377,2.0921741264151312,4.578211950857834,1.7759405666434425,3.4729179643333508,4.271395891173104
9.752302131265528,2.126903306058465,4.595971356524268,1.8186545255551736,3.7819231650250456,4.024105393926633
9.773571164326112,2.164722537708715,4.61415790177982,1.85889557949444,4.095238906166396,3.75688638340425
9.7952183897032,2.2056749267703792,4.632746857574765,1.8964644433284825,4.412518331782998,3.4688128437012664
9.817275138970903,2.2498001100882092,4.65171150200805,1.9311525717654952,4.733413727660224,3.1588813237005584
9.839773140071784,2.2971342473648115,4.671023027725705,1.9627413850025008,5.057584169286808,2.8260112392557906
9.862744482545432,2.3477100890576796,4.69065044157573,1.9910014973950587,5.384704774811796,2.4690459572432535
9.88622158343601,2.4015571368057977,4.710560456549681,2.0156919569674914,5.714477829560125,2.086754646649488
9.910237154804067,2.458701915101399,4.7307173761193555,2.036559503433986,6.046646067584453,1.677834847616072
9.93482417395508,2.5191683757772436,4.7510829711536955,2.053337851910147,6.381008411770689,1.2409156682773206
9.960015857712852,2.5829784598949503,4.771616349672797,2.06574700859292,6.717438485681407,0.7745614718651814
9.985845642311801,2.6501528447517644,4.7922738197587265,2.073492623311572,7.05590621562546,0.277275864615804
10.01234717075932,2.720711906908019,4.8130087459918425,2.07626538195773,7.396502837632476,-0.25249425805104364
10.0395542898284,2.7946769352843437,4.83377139981142,2.07374043937722,7.739469607176293,-0.8163548976802376
10.067501059181243,2.8720716313561065,4.854508804205192,2.0655768904004175,8.085230473889201,-1.4159616948101168
10.096221775494804,2.9529239360949986,4.875164573109196,2.051417273452316,8.43442892048149,-2.053017552128023
10.125751014855755,3.0372682252998136,4.895678745843719,2.030887097931036,8.787969061297014,-2.7292714092685424
10.156123697108754,3.1251479159127835,4.915987616823029,2.0035943838383505,9.14706093056277,-3.4465182898703337
10.187375176267881,3.2166185252184114,4.936023560661413,1.9691292009396473,9.513269630576875,-4.206600437149933
10.219541361520065,3.31175122152418,4.955714852670809,1.927063196568148,9.888567603764356,-5.011408804911161
10.252658873735307,3.4106368975618238,4.97498548463649,1.8769491085190364,10.275388657052545,-5.862883238295195
