th1 (rad),w1 (rad/s),th2 (rad),w2 (rad/s),a1 (rad/s^2),a2 (rad/s^2)
2.2776801538202767,-0.4185354913506078,1.9017880792018353,1.2691747787774847,-6.11035258882883,-3.5200240367420137
2.2734947989067704,-0.4796390172388961,1.9144798269896102,1.2339745384100647,-6.1674740286739,-3.3718082583337448
2.2686984087343816,-0.5413137575256352,1.9268195723737107,1.2002564558267272,-6.237914714164422,-3.2103034329429585
2.263285271159125,-0.6036929046672794,1.938822136931978,1.1681534214972977,-6.3213335336765635,-3.0361021832023574
2.2572483421124523,-0.6669062400040451,1.950503671146951,1.1377923996652741,-6.417299902320826,-2.8499267888943076
2.250579279712412,-0.7310792390272534,1.9618815951436037,1.109293131776331,-6.525278392041078,-2.652659417197106
2.2432684873221396,-0.7963320229476641,1.972974526461367,1.08276653760436,-6.644610316328406,-2.445376925320461
2.235305167092663,-0.8627781261109482,1.9838021918374105,1.0583127683511555,-6.774492142671252,-2.2293904465857004
2.226677385831554,-0.9305230475376607,1.994385319520922,1.0360188638852985,-6.913950789297833,-2.0062896945132467
2.2173721553561774,-0.999662555430639,2.004745508159775,1.015955966940166,-7.061816139207425,-1.7779915019843502
2.207375529801871,-1.0702807168227133,2.0149050678291767,0.9981760519203225,-7.216691498238497,-1.54679151768882
2.196672722633644,-1.1424476318050982,2.02488682834838,0.9827081367434344,-7.376923257861306,-1.3154171754960742
2.185248246315593,-1.2162168643837112,2.0347139097158142,0.9695539649884737,-7.540571713040912,-1.087079010383091
2.1730860776717558,-1.2916225815141202,2.044409449365699,0.9586831748846427,-7.705385829673977,-0.8655161177968669
2.1601698518566144,-1.36867643981086,2.053996281114545,0.950028013706674,-7.8687857233674166,-0.6550300865001429
2.1464830874585057,-1.4473642970445342,2.063496561251612,0.9434777128416726,-8.027857623056802,-0.46050019172249457
2.13200944448806,-1.5276428732751022,2.072931338380029,0.9388727109244477,-8.179367004718326,-0.287371225724303
2.116733015755309,-1.6094365433222855,2.0823200654892733,0.9359989986672047,-8.31979616707996,-0.1416043949425565
2.100638650322086,-1.692634504993085,2.0916800554759454,0.9345829547177792,-8.445412474722993,-0.029581677356885067
2.083712305272155,-1.777088629740315,2.101025885023123,0.9342871379442104,-8.552372446507944,0.04204454901607302
2.065941418974752,-1.8626123542053945,2.1103687564025653,0.9347075834343711,-8.636864454235065,0.06656138524167554
2.047315295432698,-1.948980998747745,2.119715832236909,0.9353731972867878,-8.6952887683703,0.037463794478895716
2.0278254854452205,-2.0359338864314482,2.129069564209777,0.9357478352315768,-8.724468065824244,-0.051227662036267045
2.007466146580906,-2.1231785670896905,2.1384270425620926,0.9352355586112141,-8.7218747582805,-0.20461876160449144
1.986234360910009,-2.2103973146724956,2.147779398148205,0.9331893709951692,-8.685854618133511,-0.42659242175252493
1.964130387763284,-2.2972558608538307,2.1571112918581568,0.9289234467776439,-8.615820701491339,-0.7194958225690687
1.9411578291547458,-2.383414067868744,2.1664005263259334,0.9217284885519532,-8.512389286019651,-1.0839050659845093
1.9173236884760583,-2.468537960728941,2.175617811211453,0.9108894378921081,-8.377432017333197,-1.5185055484283672
1.8926383088687688,-2.5523122809022727,2.184726705590374,0.8957043824078244,-8.214026397025997,-2.020115284053661
1.8671151860597461,-2.6344525448725324,2.1936837494144523,0.8755032295672878,-8.026299474422437,-2.583860442143315
1.8407706606110208,-2.7147155396167566,2.2024387817101254,0.8496646251458546,-7.819174930796194,-3.2034904060457685
1.8136235052148533,-2.7929072889247184,2.210935427961584,0.8176297210853969,-7.598048390636868,-3.8717983713794446
1.785694432325606,-2.868887772831087,2.219111725172438,0.7789117373716025,-7.368426335243589,-4.581097801263335
1.7570055545972951,-2.942572036183523,2.226900842546154,0.7331007593589691,-7.135567972645738,-5.3236985543786215
1.7275798342354598,-3.0139277159099804,2.2342318501397433,0.6798637738151829,-6.904166159026949,-6.092330309413063
1.69744055707636,-3.08296937750025,2.2410304878778953,0.6189404707210523,-6.678094232665157,-6.880473382005818
1.6666108633013574,-3.1497503198269015,2.2472198925851057,0.5501357369009942,-6.460233066517204,-7.682574505365924
1.6351133601030885,-3.2143526504920734,2.252721249954116,0.4733099918473349,-6.252379852396658,-8.494143292475638
1.6029698335981677,-3.27687644901604,2.257454349872589,0.38836855892257854,-6.055229659453782,-9.311740263923948
1.5702010691080073,-3.337428745610578,2.261338035461815,0.2952511562833391,-5.868414119792962,-10.132877381259103
1.5368267816519015,-3.3961128868085075,2.2642905470246486,0.19392238247074806,-5.690578941766723,-10.955856526378634
1.5028656527838165,-3.4530186762261748,2.266229770849356,0.08436381720696172,-5.519482678842894,-11.779571171754887
1.4683354660215546,-3.5082135030146038,2.2670734090214255,-0.033431894510587146,-5.352102166775226,-12.603293132125513
1.4332533309914086,-3.561734524682356,2.2667390900763196,-0.15946482583184227,-5.184734114598051,-13.426461405554194
1.397635985744585,-3.6135818658283365,2.265144441818001,-0.2937294398873842,-5.0130865500708275,-14.248485033334706
1.3615001670863016,-3.6637127313290447,2.262207147419127,-0.43621429022073127,-4.832357563161424,-15.068567508276915
1.3248630397730112,-3.712036306960659,2.25784500451692,-0.5868999653035004,-4.637301762833895,-15.88555696655295
1.2877426767034046,-3.758409324588998,2.251976004863885,-0.7457555349690299,-4.422286998651683,-16.697824293161922
1.2501585834575146,-3.802632194575515,2.2445184495141945,-0.9127337779006491,-4.181345274808741,-17.503170222812283
1.2121322615117596,-3.844445647323602,2.235391111735188,-1.087765480128772,-3.908222533482213,-18.29876228787943
1.1736878050385235,-3.883527872658424,2.2245134569339005,-1.2707531030075663,-3.5964322422768804,-19.081102784056018
1.1348525263119393,-3.919492195081193,2.2118059259038247,-1.4615641308481264,-3.2393175936438956,-19.846029536251304
1.0956576043611275,-3.951885371017632,2.1971902845953433,-1.6600244262106394,-2.830126678954269,-20.58875192762887
1.0561387506509512,-3.980186637807175,2.180590040333237,-1.8659119454869282,-2.3621042641512635,-21.303925214380694
1.0163368842728795,-4.003807680448688,2.1619309208783677,-2.0789511976307353,-1.8286027657524733,-21.985766432249758
0.9762988074683926,-4.022093708106213,2.1411414089020604,-2.298808861953233,-1.2232136870798465,-22.628215082882175
0.9360778703873305,-4.034325844977011,2.118153320282528,-2.5250910127820547,-0.539919105169573,-23.225141174409735
0.8957346119375603,-4.039725036028707,2.0929024101547076,-2.757342424526152,0.22673920653517934,-23.770602021502032
0.8553373615772732,-4.037457643963355,2.065328985909446,-2.9950484447411725,1.0814777509217417,-24.259147468165846
0.8149627851376396,-4.026642866454138,2.0353785014620343,-3.237639919422831,2.0280836632869677,-24.686170916905528
0.7746963564730983,-4.006362029821268,2.0030021022678057,-3.4845016285918864,3.069231405867827,-25.04830082777348
0.7346327361748857,-3.97566971576259,1.9681570859818869,-3.7349846368696213,4.206316333614406,-25.343824355871014
0.6948760390172598,-3.933606552426446,1.9308072396131906,-3.9884228804283315,5.439319875245466,-25.5731317575588
0.6555399734929953,-3.8792133536739914,1.8909230108089072,-4.24415419800392,6.766722562685866,-25.739167395012842
0.6167478399562554,-3.8115461280471328,1.848481468828868,-4.501545871954049,8.185481476244343,-25.847870897436074
0.5786323786757841,-3.729691313284689,1.8034660101093276,-4.760024580928409,9.691087344460842,-25.90859052528705
0.5413354655429372,-3.6327804398400807,1.7558657643000435,-5.01911048618128,11.2777129533845,-25.934450078418447
0.5050076611445364,-3.520003310306236,1.7056746594382306,-5.278454986965464,12.93845795783224,-25.942650458252718
0.4698076280414741,-3.3906187307279136,1.652890109568576,-5.537881491547991,14.665684674595964,-25.95468621445622
0.43590144073419496,-3.243961883981954,1.597511294653096,-5.7974283536925535,16.451423480048927,-25.99645385593967
0.4034618218943754,-3.0794476491814646,1.5395370111161706,-6.057392892251951,18.287802464263603,-26.098218121577922
0.37266734540256075,-2.8965696245388286,1.478963082193651,-6.31837507346773,20.167419326439674,-26.29437704324047
0.34370164915717244,-2.694895431274432,1.4157793314589737,-6.581318843900135,22.08351544797903,-26.62291275313696
0.31675269484442814,-2.4740602767946416,1.3499661430199723,-6.847547971431505,24.029716694860106,-27.12430846739415
0.2920120920764817,-2.2337631098460404,1.2814906633056573,-7.118791056105446,25.998944142160052,-27.83951095391026
0.2696744609780213,-1.9737736684244398,1.2103027527446029,-7.397186165644549,27.980821055165986,-28.806150466712364
0.2499367242937769,-1.6939654578727799,1.1363308910881573,-7.685247670311673,29.956429715679395,-30.051579937953974
0.23299706971504908,-1.3944011607159859,1.0594784143850406,-7.9857634696912125,31.888488551314833,-31.58019173361429
0.21905305810788922,-1.0755162752028375,0.9796207796881286,-8.301565387027356,33.70381581921645,-33.35073253124276
0.20829789535586085,-0.738478117010673,0.896605125817855,-8.635072712339783,35.26340518533153,-35.237020170216596
0.2009131141857541,-0.3858440651573577,0.8102543986944571,-8.98744291404195,36.31449489661561,-36.96373950455557
0.19705467353418055,-0.02269911619120163,0.7203799695540376,-9.357080309087506,36.42223929392691,-38.01259000285517
0.19682768237226853,0.34152327674806743,0.6268091664631625,-9.737206209116056,34.8958104038272,-37.51630900851464
0.2002429151397492,0.6904813807863395,0.529437104372002,-10.112369299201204,30.773492457939966,-34.22464807563536
0.2071477289476126,0.9982163053657391,0.4283134113799899,-10.454615779957557,23.02203534964993,-26.750163168595428
0.21712989200127,1.2284366588622384,0.32376725358041436,-10.722117411643511,11.14731761211258,-14.362388881299049
0.2294142585898924,1.3399098349833642,0.21654607946397925,-10.865741300456502,-3.8934366247466414,1.810611600160005
0.24281335693972603,1.3009754687358979,0.10788866645941422,-10.847635184454901,-19.37057024550864,18.366933974188417
0.255823111627085,1.1072697662808115,-0.0005876853851347896,-10.663965844713017,-32.04546591646276,31.31448371539001
0.2668958092898931,0.786815107116184,-0.10722734383226497,-10.350821007559118,-40.14875431150221,38.646663416179585
0.27476396036105494,0.38532756400116186,-0.21073555390785614,-9.964354373397322,-43.95368705555413,40.993728682255096
0.2786172360010666,-0.054209306554379444,-0.31037909764182936,-9.554417086574771,-44.77495502806354,40.22506015568651
0.27807514293552277,-0.5019588568350148,-0.4059232685075771,-9.152166485017906,-43.90212665503152,38.05535859920486
0.2730555543671726,-0.9409801233853301,-0.4974449333577562,-8.771612899025858,-42.200978486818144,35.57491296470684
0.2636457531333193,-1.3629899082535115,-0.5851610623480148,-8.41586376937879,-40.14831879077252,33.34027513408371
0.2500158540507842,-1.7644730961612367,-0.6693197000418027,-8.082461018037952,-37.972910987559224,31.581003855162553
0.23237112308917182,-2.144202206036829,-0.7501443102221823,-7.766650979486326,-35.769785120670115,30.355610301284763
0.21092910102880352,-2.50190005724353,-0.8278108200170455,-7.463094876473479,-33.56971841111236,29.641595013399627
0.18591010045636822,-2.8375972413546537,-0.9024417687817803,-7.166678926339483,-31.376697485906835,29.38148487582079
0.1575341280428217,-3.151364216213722,-0.9741085580451752,-6.872864077581275,-29.1868360261906,29.504796971510874
0.12602048588068446,-3.443232576475628,-1.042837198820988,-6.577816107866166,-26.99737525002125,29.93805317876825
0.09158816011592817,-3.713206328975841,-1.1086153598996495,-6.278435576078484,-24.81052073079839,30.60926242621419
0.05445609682616976,-3.9613115362838247,-1.1713997156604343,-5.972342951816342,-22.634587040100413,31.450035224931927
0.01484298146333151,-4.187657406684829,-1.2311231451785978,-5.657842599567022,-20.48371900215349,32.39680203816771
-0.02703359260351678,-4.3924945967063636,-1.287701571174268,-5.333874579185345,-18.3768577245419,33.391758725037846
-0.07095853857058042,-4.576263173951783,-1.3410403169661216,-4.999956991934966,-16.336328335981797,34.38374694721542
-0.11672117031009824,-4.7396264573116005,-1.3910398868854712,-4.656119522462812,-14.386285803201712,35.32908199314929
-0.16411743488321423,-4.883489315343618,-1.4376010821100993,-4.302828702531319,-12.551183521798576,36.192258812492874
-0.2129523280366504,-5.009001150561604,-1.4806293691354124,-3.9409061144063906,-10.854385871429532,36.946445989713716
-0.2630423395422664,-5.117545009275899,-1.5200384302794763,-3.5714416545092535,-9.317011436646375,37.573688807473175
-0.3142177896350254,-5.210715123642363,-1.5557528468245687,-3.1957047664345217,-7.957060231963852,38.064769878957016
-0.366324940871449,-5.290285725962001,-1.5877098944889139,-2.8150570676449513,-6.788843878216736,38.41870780080161
-0.41922779813106903,-5.358174164744168,-1.6158604651653634,-2.430869989636935,-5.822702664516312,38.64190226391969
-0.4728095397785107,-5.416401191389331,-1.6401691650617327,-2.044450966997738,-5.064958782771908,38.74695096872081
-0.526973551692404,-5.4670507792170495,-1.6606136747317102,-1.6569814573105301,-4.518020948763255,38.75116345886958
-0.5816440594845745,-5.512230988704682,-1.6771834893048154,-1.2694698227218344,-4.180520568841417,38.67477409153453
-0.6367663693716213,-5.554036194393096,-1.6898781875320337,-0.8827220818064891,-4.047319544784834,38.53880514260656
-0.6923067313155523,-5.594509389840945,-1.6987054083500985,-0.4973340303804235,-4.109177882844918,38.36244494514172
-0.7482518252139617,-5.635601168669394,-1.7036787486539027,-0.11370958092900635,-4.351796288392902,38.159677445275534
-0.8046078369006556,-5.679119131553323,-1.7048158444631927,0.267887193523749,-4.753846000538811,37.93472291606456
-0.8613990282161889,-5.726657591558711,-1.7021369725279551,0.6472344226843947,-5.283465143374975,37.675631922055416
-0.918665604131776,-5.77949224299246,-1.6956646283011112,1.023990741904949,-5.892569121101399,37.345167189363764
-0.9764605265617006,-5.838417934203474,-1.6854247208820616,1.3974424137985866,-6.5083082752104815,36.86808123428967
-1.0348447059037353,-5.9035010169555795,-1.6714502967440759,1.7661232261414832,-7.021420624862748,36.11449603798603
-1.0938797160732912,-5.973715223204207,-1.653789064482661,2.1272681865213436,-7.272756754229213,34.881283586654675
-1.1536168683053332,-6.046442790746498,-1.6325163826174476,2.4760810223878904,-7.043091427888716,32.87880702913339
-1.2140812962127983,-6.116873705025386,-1.6077555723935686,2.8048690926792244,-6.058706905798279,29.740801121008193
-1.275250033263052,-6.177460774083368,-1.5797068814667763,3.1022771038893064,-4.034811517917781,25.088583210298907
-1.3370246410038857,-6.217808889262546,-1.5486841104278832,3.3531629359922954,-0.7805240974908134,18.68274518643388
-1.3992027298965113,-6.225614130237454,-1.5151524810679602,3.5399903878566343,3.64067923086565,10.652547824926655
-1.4614588711988858,-6.1892073379287975,-1.4797525771893938,3.6465158661059007,8.77839734258048,1.6832085015872558
-1.5233509445781739,-6.101423364502993,-1.4432874185283349,3.6633479511217732,13.841253228491803,-7.053844401204177
-1.5843651782232038,-5.963010832218075,-1.406653939017117,3.5928095071097315,17.988690616397996,-14.322866975497575
-1.6439952865453846,-5.7831239260540945,-1.3707258439460197,3.449580837354756,20.694671226308003,-19.348294105862283
-1.7018265258059255,-5.576177213791015,-1.336230035572472,3.256097896296133,21.90278024980641,-22.039827328970382
-1.7575882979438358,-5.3571494112929505,-1.3036690566095108,3.0356996230064293,21.90323815766703,-22.817074052625994
-1.8111597920567652,-5.13811702971628,-1.2733120603794466,2.8075288824801694,21.10426796138674,-22.279621449018094
-1.862540962353928,-4.927074350102413,-1.2452367715546449,2.5847326679899885,19.868758930286482,-20.968524022814048
-1.9118117058549522,-4.728386760799548,-1.2193894448747449,2.375047427761848,18.45498002575796,-19.276913173067125
-1.9590955734629476,-4.543836960541968,-1.1956389705971264,2.1822782960311766,17.021806614260537,-17.45442966578309
-2.0045339430683673,-4.373618894399363,-1.1738161876368147,2.007733999373346,15.65562159896129,-15.644237024393952
-2.048270132012361,-4.21706267840975,-1.1537388476430812,1.8512916291294064,14.396739652261713,-13.920428526970117
-2.0904407587964586,-4.073095281887133,-1.1352259313517872,1.7120873438597053,13.258741969027186,-12.315859925991287
-2.13117171161533,-3.9405078621968608,-1.1181050579131901,1.5889287445997924,12.240862544757478,-10.840269124660473
-2.1705767902372983,-3.818099236749286,-1.1022157704671922,1.4805260533531877,11.33533913702449,-9.49123684806353
-2.208757782604791,-3.7047458453790414,-1.0874105099336604,1.3856136848725524,10.531547015152276,-8.260507846545629
-2.2458052410585814,-3.5994303752275187,-1.0735543730849348,1.3030086064070963,9.818210418921376,-7.1374979738820885
-2.2817995448108563,-3.501248271038305,-1.060524287020864,1.2316336266682755,9.184512689673364,-6.111159657814989
-2.3168120275212396,-3.4094031441415713,-1.0482079507541813,1.1705220300901256,8.620595545619285,-5.170915349499695
-2.3509060589626554,-3.3231971886853784,-1.0365027304532801,1.1188128765951286,8.117730567208142,-4.307074422956991
-2.3841380308495093,-3.242019883013297,-1.025314601687329,1.0757421323655587,7.668322465751304,-3.5109718636068967
-2.416558229679642,-3.165336658355784,-1.0145571803636733,1.0406324137294898,7.265832292104015,-2.7749634024985066
-2.4482115962632,-3.092678335434744,-1.0041508562263783,1.0128827797045048,6.904668176635961,-2.0923520386499233
-2.4791383796175475,-3.0236316536683843,-0.9940220284293333,0.9919592593180055,6.58006845277137,-1.45728685558772
-2.5093746961542314,-2.9578309691406703,-0.9841024358361532,0.9773863907621283,6.287989432577905,-0.8646558030790936
-2.538953005845638,-2.8949510748148914,-0.974328571928532,0.9687398327313373,6.025003251136116,-0.30998335106577285
-2.567902516593787,-2.8347010423035304,-0.9646411736012186,0.9656399992206797,5.788207555329739,0.21066201458840741
-2.5962495270168224,-2.7768189667502328,-0.9549847736090118,0.9677466193665637,5.575146953876785,0.700748683371215
-2.6240177166843246,-2.721067497211465,-0.9453073074153462,0.9747541062002758,5.38374526294312,1.1633510797884004
-2.6512283916564394,-2.6672300445820336,-0.9355597663533435,0.9863876169981598,5.212247222560229,1.6012077601900419
-2.6779006921022597,-2.615107572356431,-0.9256958901833618,1.0023996946000602,5.05916827005237,2.01676942538008
-2.704051767825824,-2.5645158896559077,-0.9156718932373612,1.022567388853861,4.9232509973825795,2.412237879665618
-2.729696926722383,-2.515283379682082,-0.9054462193488226,1.0466897676505171,4.803427013034455,2.7895968847329957
-2.7548497605192037,-2.4672491095517373,-0.8949793216723174,1.074585736497847,4.698783034826552,3.15063570860932
-2.779522251614721,-2.420261279203472,-0.884233464307339,1.1060920935839402,4.608530136995338,3.496965993017509
-2.803724864406756,-2.3741759778335183,-0.8731725433714995,1.1410617535141152,4.5319751532076635,3.8300323759976433
-2.827466624185091,-2.3288562263014416,-0.8617619258363584,1.1793620772740916,4.468493293326446,4.151117120403836
-2.8507551864481053,-2.284171293368177,-0.8499683050636174,1.22087324847813,4.417501065814786,4.461338817573118
-2.8735968993817873,-2.2399962827100293,-0.8377595725788362,1.265486636653861,4.378428612061429,4.761645062027546
-2.8959968622088876,-2.196211996589415,-0.8251047062122976,1.3131030872741365,4.350690558095931,5.052798830697773
-2.917958982174782,-2.1527050910084555,-0.8119736753395562,1.3636310755811143,4.333654479852142,5.335358154013889
-2.9394860330848664,-2.109368546209934,-0.798337364583745,1.4169846571212532,4.326606070055081,5.609648545134708
-2.960579718546966,-2.0661024855093832,-0.7841675180125325,1.4730811425726003,4.32871010185635,5.875727571965536
