th1 (rad),w1 (rad/s),th2 (rad),w2 (rad/s)
3.031571059524464,1.4792021243505575,5.069865370548111,-1.9136370138864511
3.0463630807679696,1.503543711870918,5.050729000409246,-1.8303952509563082
3.061398517886679,1.5265681078316946,5.032425047899683,-1.7487930334336055
3.076664198964996,1.5483987845931275,5.014937117565347,-1.668725589446189
3.0921481868109275,1.5691587384247063,4.998249861670885,-1.5900931751046694
3.1078397741951744,1.5889696390309884,4.982348929919839,-1.512802518540795
3.1237294705854843,1.60795129002996,4.967220904734431,-1.4367678742243872
3.139808983485784,1.6262213246428765,4.952853225992187,-1.3619117775932565
3.1560711967322126,1.6438950763268174,4.9392341082162545,-1.2881655712670532
3.1725101474954807,1.6610855767450086,4.926352452503584,-1.2154697587961496
3.189121003262931,1.6779036437314265,4.914197754915622,-1.1437742295320452
3.205900039700245,1.6944580301590986,4.902760012620302,-1.0730383883252292
3.222844620001836,1.710855611224124,4.89202962873705,-1.003231215932594
3.239953176114077,1.727201592922743,4.881997316577724,-0.9343312798766152
3.2572251920433044,1.7435997286926996,4.872654003778958,-0.866326710725683
3.2746611893302315,1.7601525345341418,4.863990736671702,-0.7992151550945432
3.292262714675573,1.776961495600857,4.855998585120756,-0.7330037138774351
3.3100323296315817,1.794127259406768,4.8486685479819815,-0.6677088721454539
3.3279736022256494,1.8117498125429778,4.841991459260527,-0.6033564256182875
3.3460911003510794,1.8299286392407668,4.835957895004344,-0.5399814075403122
3.3643903867434872,1.8487628613193754,4.830558080928941,-0.4776280190556601
3.382878015356681,1.8683513600816954,4.825781800738384,-0.4163495657076383
3.401561528957498,1.888792881610877,4.821618305081308,-0.3562084024203883
3.4204494577736066,1.9101861277109478,4.818056221057104,-0.2972758892019972
3.4395513190507163,1.932629835451599,4.8150834621650835,-0.23963235979474745
3.4588776174052325,1.956222848942063,4.812687138567136,-0.18336710555368513
3.4784398458946533,1.9810641875876458,4.810853467511599,-0.1285783769292252
3.49825048777053,2.0072531156877083,4.809567683742307,-0.075373405038126
3.518323018927407,2.0348892188257226,4.808813949691926,-0.02386844590885142
3.538671911115664,2.0640724930882652,4.808575265232837,0.025811149935997688
3.559312636046547,2.094903453736038,4.8088333767321965,0.07353083986227592
3.580261670583907,2.1274832705393085,4.809568685130819,0.11914676079650174
3.6015365032893003,2.161913937582234,4.810760152738784,0.16250556761072793
3.6231556426651226,2.1982984859301644,4.8123852084148915,0.20344423584057225
3.645138627524424,2.2367412481288618,4.8144196507732975,0.24178982668521204
3.667506040005713,2.2773481840415526,4.81683754904015,0.2773592127435818
3.6902795218461284,2.3202272779902295,4.819611141167585,0.30995876369219244
3.7134817946260306,2.365489017490154,4.822710728804507,0.3393839922090226
3.737136684800932,2.413246963956571,4.826104568726597,0.3654191620462102
3.7612691544404977,2.4636184254780336,4.829758760347059,0.38783686247487886
3.785905338695278,2.516725240880398,4.833637128971808,0.40639755669490607
3.811072591104082,2.572694682539655,4.837701104538757,0.4208491166960303
3.8367995379294784,2.6316604822880323,4.841909595705718,0.43092636416268415
3.8631161427523586,2.693763979639635,4.846218859347345,0.4363506473262059
3.890053782548755,2.759155383488746,4.850582365820607,0.4368294986120272
3.9176453363836425,2.827995126034235,4.854950660806727,0.4320564395518515
3.945925287643985,2.9004552689833956,4.859271225202246,0.4217110306541767
3.974929840333819,2.9767208942577135,4.863488335508787,0.40545930890908316
4.0046970492763965,3.056991370422804,4.867542928597878,0.38295482023027816
4.035266962980624,3.1414813261728844,4.871372476800181,0.35384054667514814
4.066681776242353,3.230421075394712,4.874910882266932,0.3177521602124527
4.098985986996301,3.3240561135490556,4.878088403869056,0.27432322180302215
4.132226548131791,3.4226451274407865,4.880831636087087,0.22319320746837634
4.166452999406198,3.5264557106211747,4.883063568161771,0.1640196084087703
4.20171755651241,3.6357566313586247,4.884703764245859,0.09649585149509096
4.238075122825996,3.75080503463397,4.885668722760809,0.020377451415953707
4.275583173172335,3.8718263557508026,4.885872497274969,-0.06448034348927001
4.314301436729843,3.998983987564631,4.8852276938400765,-0.15806913234992426
4.3542912766054895,4.132334945682811,4.883647002516577,-0.2601528212498757
4.395614626062318,4.271767120508661,4.881045474304078,-0.37016580574973684
4.438332297267404,4.416913651172743,4.87734381624658,-0.48707786474086967
4.482501433779132,4.56704139202007,4.872473037599172,-0.6092221558999951
4.5281718476993325,4.72091485910388,4.866380816040172,-0.7340895359425486
4.575380996290371,4.876646522622787,4.859039920680746,-0.8581066910963773
4.624147461516599,5.031560845266656,4.850458853769783,-0.9764400781577298
4.674463069969265,5.182122841477284,4.840694452988205,-1.0829020038081882
4.726284298384038,5.324005585546296,4.829865432950124,-1.1700696193864695
4.779524354239501,5.452377477131517,4.818164736756259,-1.2297365664048134
4.834048129010816,5.562452081210484,4.805867371092211,-1.2537610486408743
4.889672649822921,5.650242600944624,4.793329760605802,-1.2352263530875107
4.946175075832367,5.713325231198194,4.780977497074927,-1.1696271484414793
5.00330832814435,5.751329142254889,4.769281225590512,-1.0556650916423451
5.060821619566898,5.765933975367115,4.758724574674089,-0.8953240574570911
5.11848095932057,5.760367243700059,4.749771334099518,-0.6932001403998553
5.17608463175757,5.738616510039231,4.742839332695519,-0.4553883444408079
5.233470796857962,5.704651383407277,4.738285449251111,-0.18835331104047537
5.290517310692035,5.6618648806525975,4.736401916140706,0.10190369642222125
5.347135959498561,5.6127931802307085,4.7374209531049285,0.4102839903018409
5.403263891300869,5.559061915698905,4.741523793007947,0.7327021842300405
5.458854510457858,5.5014689162787676,4.748850814850248,1.0659941693909283
5.513869199620646,5.440125108761395,4.759510756544157,1.4077355918363643
5.56827045070826,5.3746040320103905,4.77358811246252,1.7560453396661229
5.622016491028364,5.304076097775271,4.7911485658591815,2.1094125067565592
5.675057252006117,5.227420264127841,4.812242690926747,2.4665613519843843
5.727331454647396,5.143314196535734,4.836908304446591,2.826355969487695
5.778764596612753,5.050307159288336,4.865171864141468,3.1877408806334766
5.829267668205636,4.946880268319888,4.897049272947803,3.5497121424761855
5.878736470888835,4.831497906378773,4.932546394372565,3.9113136435942897
5.927051449952623,4.702652894783872,4.971659530808508,4.271653844794586
5.974077978900462,4.558906841185153,5.014376069256454,4.629938777331633
6.019667047312314,4.398926131078192,5.06067545702977,4.985517435290369
6.063656308623096,4.221513406869942,5.110530631382674,5.337935745701925
6.105871442691796,4.02563417168273,5.163909988839693,5.686995064257604
6.146127784408623,3.8104384825511155,5.220779939482269,6.032810584046333
6.184232169234135,3.5752787383445663,5.281108045322733,6.375864010205581
6.219984956617581,3.3197266105695706,5.344866685424789,6.717042999665621
6.253182222723277,3.0435956857942865,5.412037115421445,7.057656523192601
6.28361817958122,2.7469821694761234,5.482613680653371,7.399409296154808
6.311088001275981,2.4303452900816715,5.556607773614918,7.74430780894964
6.335391454176798,2.094663662903213,5.634050851704415,8.094452376929272
6.3563380908058305,1.7417259491642403,5.714995375473707,8.451640455783513
6.373755350297473,1.3746443912668547,5.799511780031542,8.816664145299745
6.3875017942101415,0.9987115975359071,5.88767842148454,9.188136547289611
6.3974889101855,0.6227242577409438,5.979559786957436,9.5606657241805
6.40371615276291,0.2607850365033179,6.075166444199241,9.922327465692087
6.406324003127943,-0.065818913292986,6.174389718856162,10.251920385189734
6.405665813995013,-0.32799424027361485,6.276908922708059,10.517726505461066
6.402385871592276,-0.49202403326350985,6.38208618776267,10.681151721414746
6.397465631259641,-0.5288492231199994,6.488897704976817,10.708341970413922
6.392177139028441,-0.427160715275713,6.595981124680956,10.586804923379585
6.387905531875684,-0.2010046706646551,6.701849173914752,10.334803596325635
6.385895485169037,0.1161143122804022,6.805197209878008,9.993218701292566
6.387056628291841,0.4859686778489907,6.905129396890934,9.606483394479154
6.391916315070331,0.8772996506468175,7.001194230835726,9.208238855363554
6.400689311576799,1.2693573496519939,7.0932766193893615,8.817850027041695
6.413382885073319,1.6501550578724546,7.181455119659779,8.443514685838215
6.429884435652044,2.0134208751603513,7.265890266518161,8.08665662062264
6.450018644403647,2.356134477211783,7.346756832724387,7.745275944494014
6.473579989175764,2.676971916913806,7.424209592169327,7.415987510954508
6.500349708344903,2.975442321757676,7.498369467278872,7.0951202181563
6.53010413156248,3.251451411397771,7.569320669460435,6.779261039750769
6.562618645676458,3.5051031382604783,7.637113279857942,6.465499007378018
6.597669677059063,3.7366256097912753,7.701768269931723,6.151514267278039
6.635035933156976,3.946357176356117,7.763283412604503,5.835588604089804
6.674499504920537,4.134757682244916,7.821639298645401,5.516575903395196
6.715847081742987,4.3024261584397685,7.876805057679353,5.193851479168328
6.758871343327384,4.45011528651981,7.928743572471036,4.867249658163673
6.8033724961925826,4.5787380895379055,7.977416069052673,4.536994662924145
6.849159877087962,4.689365300882412,8.022786015681914,4.2036280436131035
6.896053530096785,4.783213655223293,8.064822296118045,3.8679352851023086
6.9438856666490185,4.861626406932167,8.103501648969068,3.530874036986849
6.9925019307183405,4.9260479504539,8.138810389338937,3.1935063212348265
7.041762410222879,4.977994624779356,8.170745452551285,2.856936908029202
7.091542356470673,5.019023714100342,8.199314821631578,2.5222597731546172
7.1417325936116764,5.050702373873309,8.224537419363124,2.190514183354284
7.19223961735041,5.074577772518001,8.246442561196666,1.8626515569734396
7.24298539507559,5.092149193496131,8.2650690767664,1.539513887102269
7.293906887010551,5.104842230942166,8.280464215637423,1.2218242641084236
7.344955309319973,5.113984563077176,8.292682458278508,0.9101899545137351
7.3960951549507445,5.120782118609992,8.301784357823646,0.6051186262849035
7.447302976136845,5.126293773644886,8.307835544086496,0.30704867201211794
7.498565913873294,5.131402050610365,8.310906030806617,0.016395141465717633
7.549879934379398,5.13677669571126,8.311069982221275,-0.2663865566139043
7.6012477013365105,5.142827640319372,8.308406116655135,-0.5407165463807688
7.652675977739705,5.1496440414757,8.302998951191327,-0.8057835542167363
7.704172418154462,5.156917498350619,8.29494111564916,-1.0604146273764052
7.7557415931379685,5.163851259326539,8.284336969375396,-1.3029261248717499
7.807380105731234,5.16906484201019,8.271307708126677,-1.5309712486900822
7.859070754151336,5.170516579326871,8.255997995639778,-1.7414177322406674
7.910775919944605,5.165485240531123,8.238583818317371,-1.9303153259129098
7.962430772349916,5.150671289549826,8.219280665058243,-2.0930394747366075
8.013937485245414,5.122484612235266,8.198350270310877,-2.2247051368740904
8.065162331367766,5.077555094199767,8.176103218942137,-2.3208995693468015
8.115937882309764,5.013415426339565,8.15289422324867,-2.378657328627159
8.166072036573158,4.929178178369019,8.129107649962398,-2.397418627584391
8.215363818356849,4.825940009507551,8.105133463686554,-2.3795861793317035
8.263623218451924,4.70669821536212,8.081337601893237,-2.3303731594043717
8.310690200605546,4.5757753632978755,8.058033870299193,-2.2569390075963485
8.356447954238524,4.437983092521651,8.03546448022323,-2.1671487816831885
8.40082778516374,4.2978425658041814,8.013792992406398,-2.06841650323373
8.443806210821782,4.159078357779635,7.99310882737406,-1.9669481582343855
8.485396994399578,4.024428095770357,7.973439345791716,-1.8674480094665282
8.52564127535728,3.8956874193269204,7.954764865697051,-1.7731732816743837
8.56459814955055,3.7738765104116765,7.937033132880307,-1.6861723622250353
8.602336914654666,3.6594386869355056,7.920171409258057,-1.6075753968303805
8.638931301524021,3.552420820852819,7.904095655289753,-1.5378624874699804
8.67445550973255,3.4526163764594373,7.888717030415053,-1.4770797913599056
8.708981673497144,3.3596696090115112,7.873946232501455,-1.4249999896764598
8.742578369587259,3.2731470388235904,7.85969623260469,-1.3812350764480956
8.775309839975494,3.1925841325860316,7.845883881840209,-1.3453124624828459
8.807235681301353,3.117514377128771,7.83243075721538,-1.316724592623713
8.838410825072641,3.0474863897232876,7.819263511289143,-1.2949602162817886
8.868885688969874,2.9820731720862215,7.806313909126325,-1.2795233194364646
8.898706420690736,2.9208763594845215,7.79351867593196,-1.269943950794061
8.927915184285581,2.8635273823450333,7.780819236424019,-1.2657838354052149
8.956550458109032,2.809686799146048,7.768161398069967,-1.2666387124006373
8.984647326100491,2.759042610180186,7.755495010945961,-1.272138672539151
9.012237752202294,2.711308062290585,7.74277362422057,-1.2819473242442627
9.0393508328252,2.6662192583435997,7.729954150978127,-1.295760318845188
9.066013025408635,2.623532758308247,7.716996547789675,-1.3133035692204125
9.092248352991717,2.5830232779621647,7.703863512097471,-1.3343313675170851
9.11807858577134,2.544481540595447,7.6905201984223,-1.3586245241876977
9.143523401177294,2.507712306093345,7.6769339531804235,-1.3859885968119048
9.168600524238228,2.472532583510433,7.663074067212304,-1.4162522427488615
9.193325850073332,2.438770023183533,7.6489115447848155,-1.4492657077439188
9.217713550305168,2.406261479653925,7.634418887707376,-1.4848994486450044
9.241776165101708,2.3748517353265965,7.619569893220926,-1.523042879339822
9.265524682454974,2.3443923757320713,7.604339464427528,-1.5636032228702237
9.288968606212293,2.314740809787381,7.588703432198826,-1.6065044480227726
9.312116014310167,2.285759432204363,7.572638387718598,-1.6516862645512078
9.334973608632211,2.2573149300100055,7.556121525073086,-1.699103146825295
9.357546757932312,2.229277741025034,7.539130493604834,-1.7487233505351556
9.379839535342562,2.201521679209689,7.521643260099482,-1.800527880598821
9.401854752134659,2.1739237502368653,7.503637981293493,-1.8545093601395546
9.423593989637027,2.1463641907708095,7.4850928876920975,-1.9106707398352356
9.445057631544735,2.1187267770436398,7.465986180293745,-1.969023773604256
9.466244899315171,2.090899462783567,7.446295942557703,-2.0295871699972574
9.487153893943008,2.0627754236851126,7.4260000708577305,-2.0923843083802693
9.50778164817986,2.0342546056478135,7.405076227773928,-2.1574403847345898
9.528124194236337,2.0052458969407163,7.383501823926582,-2.22477882367758
9.548176653205745,1.9756700698366274,7.361254035689806,-2.2944167617059157
9.567933353904111,1.9454636639173888,7.338309868072748,-2.366359373227844
9.587387990543284,1.9145840087851282,7.314646274340469,-2.440592778806269
9.606533830631136,1.8830156040647,7.290240346552406,-2.5170752497371374
9.625363986671783,1.8507780823427216,7.265069594055035,-2.5957264137904494
9.64387176749521,1.817935965207814,7.2391123299171305,-2.6764141878460856
9.662051127147288,1.784610367933901,7.2123481880386695,-2.7589392351235498
9.679897230826628,1.7509926926193564,7.184758795687434,-2.8430168966278724
9.69740715775282,1.7173601445487916,7.156328626721155,-2.9282568155509257
9.71458075919831,1.6840925795264898,7.127046058565646,-3.0141409029845234
9.731421684993574,1.6516897094472687,7.096904649535801,-3.100000925530698
9.747938582088047,1.620787040923584,7.065904640280493,-3.184997855674161
9.764146452497283,1.5921681123582094,7.034054661723752,-3.268106195925247
9.780068133620865,1.5667697067650925,7.0013735997644995,-3.3481076664342666
9.795735830688516,1.5456759276033984,6.967892523100157,-3.423599701933939
9.81119258996455,1.530096634470574,6.933656526080817,-3.493024740827876
9.826493556309256,1.5213261621392742,6.898726278672538,-3.5547257553544953
9.841706817930648,1.5206799417144492,6.863179021118993,-3.607031266751079
9.856913617347793,1.5294099080473205,6.827108708451482,-3.6483688066459683
9.872207716428266,1.5486042916918081,6.790625020385023,-3.677399572715266
9.887693759345183,1.5790827536481575,6.7538510246578705,-3.6931599283615886
9.903484586881664,1.6213022919068873,6.716919425374255,-3.6951894278226223
9.919697609800732,1.675291023641897,6.679967531096029,-3.683622725324166
9.93645052003715,1.7406243427804449,6.643131303842787,-3.659226022062951
9.953856763464955,1.8164509271151206,6.606539043622157,-3.6233678394592204
9.972021272736107,1.9015662777105977,6.570305365227565,-3.5779267429509907
9.991036935513213,1.994521906819523,6.534526097798055,-3.525151275814863
10.010982154581407,2.093751994260329,6.499274585039906,-3.4674958009194388
10.03191967452401,2.197698025575678,6.464599627030712,-3.4074579052584566
10.053896654779766,2.3049153526616073,6.430525047978127,-3.3474387810394015
10.076945808306382,2.4141519448314104,6.397050660167733,-3.2896399067345548
10.101087327754696,2.5243964682191695,6.364154261100388,-3.2360004630962256
10.126331292436888,2.6348983788868985,6.331794256469426,-3.188172669284811
10.152680276225757,2.745166060872781,6.299912529776577,-3.14752778707069
10.180131936834485,2.8549502228649475,6.26843725190587,-3.1151839063354503
10.208681439063135,2.9642193646282418,6.237285412842516,-3.09204707693148
10.238323632709417,3.073132857285885,6.2063649420732006,-3.0788589794030776
10.269054961282276,3.182015653717743,6.17557635227917,-3.076246359611139
10.300875117819453,3.2913372460655124,6.144813888683059,-3.084769389599921
10.333788490280108,3.401696404459656,6.11396619478706,-3.1049677172322294
10.367805454324705,3.5138125107817424,6.082916517614738,-3.1374041732733526
10.402943579432522,3.628523911754945,6.0515424758820044,-3.1827069646239683
10.439228818550072,3.7467935947831035,6.019715406235765,-3.241611787407925
10.476696754497903,3.8697225729198124,5.987299288361686,-3.3150057390379137
10.5153939802271,3.99857159520126,5.954149230971306,-3.403975271526663
10.555379696179113,4.13479212299824,5.920109478256039,-3.5098607522547445
10.596727617409096,4.280067866880824,5.885010870733492,-3.634320469179703
10.639528296077904,4.436368444185832,5.8486676660416945,-3.779407015312467
10.683891980519762,4.606016641060775,5.8108735958885696,-3.947658576057672
10.729952146930371,4.791769773465652,5.771397010127993,-4.142205922760134
10.777869844665027,4.996912459525692,5.729974950900392,-4.366891075353147
10.827838969260284,5.2253498945966275,5.68630604014686,-4.6263816116862495
10.88009246820625,5.481671190542192,5.640042224029997,-4.926236623463169
10.934909180111672,5.77110789952265,5.590779857795366,-5.27281718723286
10.992620259106898,6.09921495524744,5.538051685923037,-5.672795785494424
11.053612408659372,6.470894752878635,5.481323728068093,-6.1317278141437965
11.118321356188158,6.8879850956442485,5.420006449926655,-6.650585021934421
11.1872012071446,7.344008691630448,5.353500599707311,-7.2182746692773225
11.260641294060905,7.8143455991157555,5.281317853014538,-7.7976993013512725
11.338784750052062,8.242644459157535,5.203340860001025,-8.306522070028228
11.421211194643638,8.53586810151724,5.1202756393007425,-8.610139183959939
11.50656987565881,8.598325819629498,5.034174247461143,-8.569694531151274
11.592553133855105,8.409943391663486,4.94847730214963,-8.152651960403304
11.67665256777174,8.058382713084164,4.866950782545597,-7.4787134544892755
11.75723639490258,7.663467131711444,4.792163648000704,-6.714125236521582
11.833871066219695,7.301684997305878,4.725022395635488,-5.965411451293118
11.906887916192753,7.001312140738433,4.665368281122557,-5.27188444719739
11.976901037600138,6.765210797934043,4.6126494366505835,-4.637176411076454
12.044553145579478,6.58719110252707,4.566277672539819,-4.052040269611092
