th1 (rad),w1 (rad/s),th2 (rad),w2 (rad/s)
5.927044625512674,-1.8992257876303573,5.86388396917661,-1.7930493344347074
5.908052367636371,-1.8751044961625676,5.845953475832262,-1.77494780483162
5.889301322674745,-1.8489410104997508,5.828203997783946,-1.7573823890078237
5.8708119125697475,-1.8207800658853595,5.810630173893868,-1.7403377643300864
5.852604111910894,-1.790672374184777,5.7932267962505675,-1.7237910226101698
5.8346973881690465,-1.758674124739618,5.775988886024466,-1.7077123120309903
5.81711064692165,-1.7248464537047894,5.758911762904156,-1.6920655350780895
5.799862182384602,-1.6892548908853993,5.741991107553376,-1.676809086875423
5.782969633475748,-1.6519687931971316,5.725223016684621,-1.6618966180488233
5.766449945543776,-1.6130607737351945,5.7086040505041336,-1.6472778064417402
5.750319337806425,-1.5726061350686762,5.692131272439716,-1.6328991226536211
5.734593276455738,-1.5306823148045734,5.67580228121318,-1.618704575410477
5.719286453307692,-1.487368350722019,5.659615235459075,-1.604636424144635
5.704412769800472,-1.4427443719005548,5.643568871217629,-1.5906358477821576
5.689985326081466,-1.3968911212969919,5.627662512739807,-1.5766435605338602
5.676016414868496,-1.3498895142035046,5.611896077134468,-1.5626003673820557
5.66251751972646,-1.3018202359824556,5.596270073460648,-1.5484476538779448
5.649499317366636,-1.2527633814541579,5.580785596921868,-1.5341278067498754
5.636971683552094,-1.2027981373399859,5.565444318854369,-1.5195845636168306
5.624943702178694,-1.1520025082566439,5.5502484732182005,-1.5047632917622042
5.613423677096128,-1.1004530859336263,5.535200840300578,-1.4896111974195863
5.602419146236792,-1.0482248605949702,5.520304728326383,-1.474077468335433
5.591936897630842,-0.9953910728133416,5.505563953643028,-1.4581133534935664
5.581982986902709,-0.9420231036102857,5.490982820108092,-1.4416721848122291
5.572562755866606,-0.888190400138964,5.47656609825997,-1.4247093463613172
5.563680851865216,-0.8339604339406568,5.462319004796357,-1.4071821972055685
5.55534124752581,-0.7793986885082305,5.448247182824302,-1.3890499543720745
5.5475472606407275,-0.7245686727126914,5.434356683280581,-1.3702735426822097
5.540301573913601,-0.669531956547034,5.420653947853759,-1.3508154182938426
5.53360625434813,-0.6143482256094918,5.4071457936708205,-1.3306393727837145
5.527462772092035,-0.5590753507814153,5.3938393999429834,-1.3097103244749808
5.5218720185842205,-0.5037694696494647,5.380742296698234,-1.2879941034922955
5.516834323887726,-0.4484850763743819,5.367862355663311,-1.2654572367159445
5.512349473123982,-0.39327511691643036,5.3552077832961515,-1.2420667384154078
5.508416721954818,-0.3381910867877644,5.342787115911998,-1.2177899118783206
5.505034811086941,-0.2832831288112351,5.330609216793214,-1.1925941668196014
5.502201979798828,-0.22860012871928184,5.318683275125019,-1.1664468567641906
5.499915978511635,-0.17418980682017732,5.307018806557377,-1.1393151399529202
5.498174080443433,-0.12009880438495965,5.295625655157847,-1.1111658666334399
5.496973092399584,-0.06637276385803283,5.284513996491513,-1.081965494877733
5.496309364761004,-0.013056402456905009,5.273694341542735,-1.051680036327553
5.496178800736435,0.0398064208106801,5.26317754117946,-1.0202750325243248
5.496576864944542,0.09217264423489567,5.252974790854217,-0.9877155617478787
5.497498591386891,0.14399994769960237,5.243097635236738,-0.9539662755873888
5.498938590863887,0.19524670091179339,5.233557972480865,-0.9189914638174126
5.500891057873004,0.2458719139734236,5.224368057842691,-0.8827551455708558
5.503349777012739,0.2958351884594749,5.215540506386982,-0.8452211843065651
5.5063081288973335,0.34509666700509123,5.207088294543916,-0.8063534236769003
5.509759095567384,0.39361697933582823,5.199024760307147,-0.766115841121194
5.5136952653607425,0.4413571827032685,5.191363601895935,-0.7244727158509108
5.518108837187775,0.4882786948142087,5.184118874737425,-0.6813888078526744
5.522991624135917,0.5343432175618865,5.177304986658899,-0.6368295446116072
5.528335056311536,0.5795126501748392,5.170936691212783,-0.5907612124395307
5.534130182813285,0.6237489907819141,5.165029079088388,-0.5431511495653663
5.5403676727211035,0.6670142258367304,5.159597567592734,-0.49396793848922976
5.547037814979471,0.709270207335566,5.154657888207842,-0.44318159549492175
5.554130517052827,0.7504785182822398,5.1502260722528925,-0.3907637556338433
5.56163530223565,0.790600327385162,5.146318434696554,-0.3366878519128186
5.569541305509501,0.8295962344994543,5.142951556177426,-0.2809292878161936
5.577837267854496,0.8674261088369015,5.140142263299264,-0.22346560264898066
5.586511528942864,0.9040489224470829,5.1379076072727745,-0.16427662948660957
5.595552018167335,0.9394225819159328,5.136264840977908,-0.1033446457466243
5.604946243986494,0.9735037616280142,5.135231394520442,-0.040654516552263056
5.614681281602774,1.0062477422939873,5.13482484935492,0.023806168863365215
5.624743759025714,1.0376082587561355,5.135062911043553,0.09004696745597184
5.6351198416132755,1.0675373613560888,5.135963380718112,0.15807445916804547
5.645795215226836,1.0959852953860072,5.137544125309793,0.22789213012097437
5.656755068180696,1.1229004033552743,5.139823046611003,0.299500262220505
5.6679840722142485,1.1482290549984846,5.142818049233208,0.37289582932071996
5.6794663627642334,1.1719156101377206,5.146547007526415,0.4480724001915028
5.691185518865611,1.1939024197044408,5.15102773152833,0.5250200485763091
5.703124543062655,1.2141298704366255,5.156277932014094,0.6037252705755156
5.715265841767021,1.2325364790095212,5.162315184719849,0.6841709094063416
5.727591206557117,1.2490590416498026,5.169156893813912,0.7663360872297478
5.740081796973614,1.2636328456424017,5.176820254686209,0.8501961431494947
5.752718125430039,1.2761919495894551,5.185322216117704,0.9357225756249553
5.765480044925933,1.2866695398493604,5.194679441873954,1.022882986337381
5.778346740324427,1.2949983713042466,5.204908271737328,1.1116410209421552
5.791296724037469,1.3011113015167026,5.21602468194675,1.201956300052357
5.804307837052636,1.3049419284897752,5.228044244947274,1.2937843311485213
5.817357256337534,1.306425343694914,5.240982088258759,1.3870763888041695
5.8304215097744825,1.305499013845779,5.254852852146801,1.4817793465571236
5.84347649991294,1.3021038071432203,5.269670645612372,1.5778354388380282
5.856497537984373,1.2961851824726194,5.285449000000752,1.6751819254845142
5.869459389809099,1.287694563368893,5.302200819255598,1.7737506244249206
5.882336335442788,1.2765909225297072,5.319938325499847,1.8734672700356447
5.8951022446680845,1.2628426072697836,5.338672998200203,1.9742506454350948
5.907730670740782,1.2464294415167467,5.3584155046545545,2.0760114266354446
5.920194965155949,1.2273451455854445,5.379175618920909,2.178650665236909
5.932468416611804,1.2056001206843574,5.400962125573279,2.2820578246568766
5.944524417818648,1.1812246502769173,5.423782703819848,2.3861082735357653
5.956336664321417,1.1542725740029394,5.447643786555205,2.490660130285943
5.967879390061446,1.124825490234321,5.472550387858065,2.595550346854953
5.979127644963789,1.092997538060685,5.498505891326614,2.7005899208401365
5.990057620344396,1.058940795078333,5.525511790535015,2.8055581377334953
6.0006470282951785,1.0228512989745397,5.55356737191235,2.910195775717352
6.010875541284924,0.9849756522431385,5.582669329669524,3.014197262600189
6.020725297807355,0.945618092658634,5.612811302295525,3.117201868830395
6.030181478733942,0.9051477986402829,5.643983320983829,3.218784164251736
6.039232956720345,0.8640060400126787,5.676171162626346,3.318444171422326
6.047873017120471,0.8227125756563746,5.709355604340569,3.415597923332982
6.056100142877035,0.7818704425257215,5.743511583573899,3.5095694770009915
6.0639188473022925,0.7421679922455274,5.778607278343909,3.599585826780937
6.071340527224748,0.7043767515325483,5.814603136611718,3.684776552295673
6.078384294740073,0.6693434814477616,5.851450902134675,3.764180334253147
6.085077729554551,0.6379747924864929,5.889092705477207,3.8367605393358737
6.091457477479416,0.6112129674038493,5.927460310870566,3.901431739860818
6.097569607153455,0.5900023766168541,5.966474628269174,3.9570981256145163
6.103469630919623,0.5752471077294433,6.006045609525319,4.00270319144024
6.1092221019969175,0.5677621046750643,6.0460726414397215,4.037287926241594
6.114899723043668,0.568221961861099,6.086445520702138,4.060052327176644
6.1205819426622785,0.5771130832854651,6.1270460439739045,4.0704130235936775
6.1263530734951335,0.5946956324617308,6.167750174209841,4.068048861798196
6.132300029819751,0.6209811054745759,6.208430662827823,4.052927079928026
6.138509840874497,0.6557293399421691,6.248959933627103,4.025305339282501
6.145067134273919,0.6984656988117175,6.289212987019928,3.9857088731656516
6.1520517912620365,0.7485158292710016,6.329070075751584,3.934886316372069
6.159536949554747,0.8050527109402189,6.368418938915305,3.8737511801350446
6.167587476664149,0.8671493498669486,6.407156450716656,3.803317565734124
6.176258970162818,0.9338306327496462,6.445189626373997,3.7246383496224684
6.185597276490315,1.0041192234419531,6.482436009870222,3.6387521595775896
6.195638468724734,1.0770723685031522,6.518823531465998,3.5466427971638077
6.206409192409766,1.1518084736154972,6.554289959437636,3.449212149002583
6.217927277145921,1.2275238952048622,6.588782080927662,3.347265611350585
6.230202516097969,1.3035013864545344,6.6222547370411675,3.241507837426305
6.2432375299625145,1.3791120718583625,6.6546698154154305,3.132546145644091
6.257028650681098,1.4538128391174479,6.685995276871871,3.02089899883574
6.2715667790722724,1.527140798986826,6.716204266860228,2.9070073502692413
6.28683818706214,1.5987061156130662,6.745274340362921,2.7912471614381444
6.302825248218271,1.668184150340378,6.773186811977302,2.673941902009814
6.319507089721675,1.7353075458141909,6.7999262309974,2.5553742760609133
6.336860165179817,1.7998586266832797,6.825479973758009,2.4357967562136214
6.35485875144665,1.8616623101069307,6.849837941320145,2.315440750086112
6.373475374547719,1.9205795950349072,6.872992348821007,2.194524385767545
6.392681170498068,1.9765016215647804,6.894937592678682,2.0732590028254503
6.412446186713716,2.0293442484002213,6.915670182706936,1.9518544896859578
6.432739629197718,2.079043077182651,6.935188727603796,1.8305236310976936
6.453530059969544,2.1255488492638697,6.953493963914773,1.709485631303411
6.474785548462182,2.1688231476091833,6.970588820227807,1.588968966827119
6.496473779938274,2.2088343501425505,6.986478509896078,1.4692137022067138
6.5185621234396995,2.245553798598431,7.001170646918145,1.3504733754306848
6.541017661425684,2.278952167506396,7.014675380672452,1.233016528833256
6.563807183100748,2.3089960406659373,7.027005545960785,1.1171279265229876
6.586897143507407,2.3356447270988814,7.038176825226015,1.0031094614508627
6.610253590778396,2.3588473747964143,7.048207919840523,0.8912807143698269
6.633842064526361,2.378540468188739,7.0571207269842215,0.7819790840060361
6.657627469208248,2.394645823217943,7.064940517824282,0.6755593643584246
6.681573927440428,2.4070692204174238,7.071696111467866,0.5723926039742182
6.705644619644602,2.4156998386046715,7.077420037507609,0.4728640476876205
6.729801618030648,2.4204106654727955,7.082148677984485,0.3773699398343905
6.754005724685376,2.42106006100004,7.085922377382828,0.2863129672976234
6.778216325295376,2.4174946287003407,7.088785507055804,0.20009615004245476
6.80239127158238,2.4095535017190173,7.090786468556229,0.11911505515610607
6.82648680659957,2.397074070417023,7.09197761910779,0.04374832474879807
6.850457547303741,2.379899063618761,7.092415102355278,-0.025653329801552688
6.874256537939928,2.3578847512047063,7.092158569057262,-0.08877931151899314
6.897835385451975,2.3309098732328177,7.091270775942072,-0.1453719172624249
6.921144484184303,2.298884741082055,7.089817056769448,-0.19523891155618253
6.944133331595124,2.2617598273956268,7.087864667653886,-0.2382649219071066
6.96675092986908,2.219533094986039,7.085482018434814,-0.2744206029668767
6.98894626081894,2.172255337263798,7.082737812405146,-0.30376856647754386
7.010668814191578,2.120032928446856,7.07970012674037,-0.32646527167158457
7.0318691434760465,2.06302760545013,7.076435474023654,-0.34275840708154265
7.052499419530548,2.001453197436449,7.073007889952839,-0.3529797281998963
7.072513951504913,1.935569537795465,7.06947809267084,-0.3575337790179327
7.091869646882867,1.865674082935776,7.0659027548806606,-0.35688334108287395
7.110526387712225,1.7920919740813892,7.062333921469832,-0.3515327515854404
7.1284473074530394,1.7151653809477276,7.058818593953977,-0.3420103680292851
7.145598961262516,1.635242952490819,7.055398490273684,-0.32885142226922776
7.161951390787425,1.5526700860990483,7.052109976050992,-0.31258232615295395
7.177478091648415,1.4677805453669077,7.048984152789462,-0.2937072133890066
7.192155897102084,1.3808897470400505,7.046047080655572,-0.2726971851978749
7.205964794572484,1.2922898355935246,7.043320108803593,-0.24998242319780908
7.218887692928419,1.2022464950716472,7.040820284571615,-0.225947079624852
7.230910157879135,1.1109973258623185,7.038560813775367,-0.20092667211023818
7.2420201311377586,1.018751541384757,7.036551547054264,-0.17520760113131148
7.252207646551606,0.9256907105724105,7.034799471042951,-0.14902836440710995
7.261464553657331,0.8319702765272643,7.03330918739888,-0.12258204905265682
7.269784256422604,0.7377216086592353,7.032083366908353,-0.09601972267736422
7.277161472509196,0.6430543848910415,7.031123169681579,-0.06945440376516163
7.2835920163581065,0.5480591441481688,7.0304286256439275,-0.0429653577253296
7.289072607799588,0.45280989185657117,7.029998972066674,-0.01660252967559348
7.293600706718154,0.35736667924438614,7.029832946769918,0.009609016692214423
7.297174373510598,0.26177810933084994,7.02992903693684,0.03566473533823665
7.299792154603906,0.16608374823145394,7.030285684290223,0.0615763503379439
7.301452992086221,0.07031644018725733,7.030901447793602,0.08736773468087314
7.302156156488093,-0.02549546073068709,7.031775125140411,0.11307090242162524
7.301901201880786,-0.12132591915857553,7.032905834164627,0.13872208491105711
7.3006879426892,-0.21714907766684816,7.0342930550137375,0.16435785126355185
7.298516451912532,-0.312937113753781,7.035936633526373,0.19001122754040767
7.295387080774994,-0.40865806108076597,7.037836745801777,0.21570776787116228
7.291300500164186,-0.5042735635296252,7.039993823480489,0.24146153380030713
7.28625776452889,-0.5997365356853716,7.042408438818492,0.26727094584027566
7.280260399172036,-0.6949887117636774,7.0450811482768945,0.29311448422146247
7.273310512054399,-0.7899580775195227,7.048012293119109,0.31894623518441584
7.265410931279204,-0.8845561971700256,7.051201755470953,0.3446913061305404
7.256565369307504,-0.9786754707706378,7.054648668532258,0.37024116887932507
7.246778614599798,-1.0721863875874602,7.058351080221051,0.3954490363004311
7.236056750723923,-1.164934878154773,7.062305570584056,0.42012543417077264
7.224407401942375,-1.2567399113743647,7.066506824925764,0.44403419644559144
7.211840002828631,-1.347391531265398,7.070947166890219,0.46688918534519364
7.198366087515977,-1.4366495768346705,7.075616058743671,0.48835211186934324
7.18399959174763,-1.5242433714120915,7.080499579862365,0.5080318978381007
7.168757158033508,-1.60987269515538,7.085579898840746,0.5254860632839308
7.152658431081955,-1.6932103540853773,7.090834759473585,0.5402246250168383
7.135726327541101,-1.773906617389674,7.096237005723753,0.5517169333623537
7.117987261367205,-1.8515956994361247,7.101754175057377,0.5594017359419979
7.099471304372844,-1.9259043067199508,7.107348192416797,0.5627005287633599
7.080212261305644,-1.9964620555470913,7.112975197704431,0.5610339389960989
7.060247640750173,-2.0629133107458943,7.1185855370943925,0.5538405046685545
7.0396185076427145,-2.124929732650031,7.124123942141078,0.5405968221525295
7.018369210316214,-2.1822225964863105,7.129529910362604,0.5208376913477318
6.996546984351351,-2.2345538181691014,7.134738287276081,0.49417467835295875
6.97420144616966,-2.281744628478874,7.1396800340596105,0.46031150305081087
6.951383999884872,-2.323681005839192,7.144283149090119,0.41905487908201405
6.92814718982648,-2.3603152944477834,7.148473697880939,0.37031987208937117
6.904544036882002,-2.3916638514949575,7.152176896601833,0.3141294328794467
6.880627398367053,-2.4178010107455368,7.155318190930627,0.25060840087931824
6.856449388259597,-2.438850039137165,7.15782427493942,0.17997284410349224
6.832060887868225,-2.4549720323191364,7.159624003380455,0.10251600844991719
6.807511167545034,-2.466353809298738,7.160649163464954,0.01859233832002477
6.782847629452046,-2.4731958270828094,7.160835086848154,-0.07139899924899908
6.758115671181218,-2.475700975395955,7.160121096855664,-0.16702986113539636
6.733358661427259,-2.474064878311061,7.15845079824431,-0.2678572346809102
6.708618012644148,-2.468468075129536,7.1557722258975005,-0.37343514526273447
6.683933331892853,-2.4590702187680167,7.152037874444873,-0.4833241344620701
6.659342629705173,-2.4460062425534814,7.147204633100253,-0.5970983450636677
6.6348825672796385,-2.429384316323233,7.141233649649616,-0.7143504371161831
6.610588724116406,-2.4092853383401542,7.134090145278454,-0.8346946694020146
6.586495870733004,-2.3857636814433576,7.125743198584433,-0.957768524758436
6.5626382339185705,-2.3588489176126863,7.116165513336849,-1.0832332524445727
6.539049744742444,-2.3285482724392508,7.105333180812403,-1.2107736630448647
6.515764262018052,-2.294849599612643,7.093225444181955,-1.3400974555929899
6.492815766021925,-2.2577247079801057,7.079824469626025,-1.4709342934021445
6.470238518942124,-2.217132915255749,7.065115126692003,-1.6030347815442
6.448067189789566,-2.1730247405967833,7.049084778876561,-1.736169438970494
6.426336942383599,-2.1253456822656487,7.031723084486856,-1.870127703501362
6.405083485560942,-2.074040056869485,7.0130218074518424,-2.0047169583024984
6.384343084992247,-2.0190549043328847,6.992974637868818,-2.139761522963525
6.364152535948919,-1.9603439893189945,6.971577022639182,-2.2751015092602938
6.3445490960557285,-1.8978719569149818,6.948826007546579,-2.410591399193539
6.325570376486579,-1.831618729653453,6.924720093554644,-2.5460981589570135
6.307254189190044,-1.7615842657610918,6.8992591119650735,-2.6814986552255786
6.289638346532434,-1.6877938359001088,6.872444125412818,-2.8166760880716373
6.272760408173433,-1.6103040178322612,6.844277364532101,-2.9515150972115296
6.2566573679951105,-1.529209654316425,6.814762213559986,-3.085895135948714
6.241365271451946,-1.444652065870037,6.783903262200498,-3.219681643606721
6.226918750793246,-1.3568288498906502,6.751706445764431,-3.352714490516975
6.213350462294339,-1.2660056184467514,6.718179300859261,-3.4847931353111767
6.200690406109872,-1.1725300075805263,6.683331369506149,-3.6156579494977357
6.1889651060340665,-1.0768481976967206,6.647174790011172,-3.744967273015333
6.178196624057099,-0.979523967916863,6.609725117281019,-3.8722700330308983
6.168401384377931,-0.8812598992590795,6.5710024169507095,-3.996974279204144
6.15958878538534,-0.7829196593125995,6.531032674158668,-4.118312877233065
6.151759588792214,-0.6855492627680041,6.489849545386337,-4.235308976608205
6.1449040961645345,-0.5903937656486954,6.447496455620255,-4.346745797221735
6.139000158508048,-0.49890408772573713,6.404028997648038,-4.451147684005701
6.1340111176307905,-0.4127268635271493,6.359517520807981,-4.54678188037223
6.129883848995519,-0.33366904166664946,6.314049702004259,-4.631692219878153
6.126547158578853,-0.2636294279015685,6.267732779805478,-4.703775532537538
6.1239108642998366,-0.2044927632458602,6.2206950244801025,-4.760907290397654
6.121865936667378,-0.15798914983904927,6.173085951576126,-4.801113616702212
6.120286045168988,-0.12553225198080595,6.1250748154091035,-4.822772776484823
6.11903072264918,-0.10806101486807462,6.076847087644255,-4.824814218071964
6.117950112500499,-0.10591680117267668,6.028598945463536,-4.806873636654854
6.116890944488772,-0.11878579299721531,5.980530209096987,-4.769365148693461
