th1 (rad),w1 (rad/s),th2 (rad),w2 (rad/s),a1 (rad/s^2),a2 (rad/s^2)
1.8912900142392919,-0.9398254022871944,4.438780681085858,-0.0744894094174969,-8.520175112878311,1.8807808838192477
1.88189176021642,-1.0250271534159774,4.4380357869916836,-0.05568160057930443,-8.640587478919873,1.6512871419166262
1.8716414886822603,-1.111433028205176,4.43747897098589,-0.039168729160138166,-8.771371692561459,1.4021704455183552
1.8605271584002085,-1.1991467451307907,4.437087283694289,-0.025147024704954613,-8.912648243483645,1.1336555278516105
1.8485356909489006,-1.288273227565627,4.43683581344724,-0.013810469426438507,-9.064441777175343,0.8461453433248771
1.8356529586732444,-1.3789176453373804,4.436697708752975,-0.005349015993189736,-9.226644477453478,0.5402736221793799
1.8218637822198707,-1.471184090111915,4.4366442185930435,5.372022860406379e-05,-9.398973505172222,0.21696706872481944
1.8071519413187516,-1.5651738251636373,4.43664475579533,0.002223390915852258,-9.580922068981497,-0.12248191912271504
1.7915002030671152,-1.6609830458534522,4.436666989704488,0.0009985717246251077,-9.77170388344505,-0.4763313958385522
1.7748903726085807,-1.7587000846879026,4.436676975421734,-0.0037647422337604144,-9.97019105387528,-0.8422947022734507
1.7573033717617017,-1.8584019952266555,4.436639327999396,-0.01218768925649492,-10.174845842653403,-1.2174344638464016
1.738719351809435,-1.9601504536531895,4.436517451106831,-0.02436203389495894,-10.38364734539505,-1.598047150139582
1.7191178472729032,-2.06398692710714,4.436273830767882,-0.040342505396354755,-10.594014860319298,-1.9795408266294456
1.6984779780018318,-2.1699270757103326,4.435870405713918,-0.060137913662649214,-10.80273068490766,-2.3563103085040766
1.6767787072447284,-2.2779543825594093,4.435269026577291,-0.08370101674768998,-11.005866218768894,-2.7216158603254073
1.6539991634191344,-2.3880130447470984,4.434432016409814,-0.11091717535094406,-11.198716564492633,-3.0674738433514626
1.6301190329716635,-2.5000002103920247,4.433322844656304,-0.14159191378445868,-11.375750239648832,-3.3845702078706283
1.6051190308677432,-2.613757712788513,4.43190692551846,-0.17543761586316498,-11.530582041994224,-3.662210300761827
1.578981453739858,-2.7290635332084556,4.430152549359828,-0.21205971887078323,-11.65597839937325,-3.88832086203876
1.5516908184077736,-2.8456233172021883,4.4280319521711204,-0.25094292749117086,-11.743905494331631,-4.0495219808690885
1.5232345852357516,-2.9630623721455045,4.425522522896209,-0.2914381472998617,-11.7856308557077,-4.131287752773452
1.4936039615142966,-3.0809186807025815,4.42260814142321,-0.3327510248275962,-11.771888716589666,-4.118213953218655
1.462794774707271,-3.198637567868478,4.419280631174934,-0.37393316435978274,-11.693118026898256,-3.994408739643703
1.4308083990285863,-3.3155687481374607,4.415541299531337,-0.41387725175621976,-11.539779404612418,-3.744017789508001
1.3976527115472117,-3.430966542183585,4.411402527013775,-0.4513174296512998,-11.302753412683579,-3.3518880713467363
1.363343046125376,-3.5439940763104207,4.406889352717261,-0.48483631036476715,-10.973817345603967,-2.8043644991692562
1.3279031053622716,-3.6537322497664606,4.402040989613614,-0.5128799553564597,-10.546191261590321,-2.0902011164784136
1.291365782864607,-3.759194162382364,4.396912190060049,-0.5337819665212439,-10.01513640900673,-1.2015534937257553
1.2537738412407833,-3.8593455264724312,4.391574370394837,-0.5457975014585015,-9.37858059216145,-0.13500223277839996
1.215180385976059,-3.9531313323940456,4.3861163953802516,-0.5471475237862855,-8.637735559619049,1.1074603293583165
1.1756490726521185,-4.039508687990236,4.380644920142388,-0.5360729204927024,-7.797661478910664,2.5175656848943695
1.1352539857722161,-4.117485302779342,4.375284190937461,-0.5108972636437586,-6.867723661994286,4.080127812639655
1.0940791327444228,-4.186162539399286,4.370175218301023,-0.4700959855173621,-5.861878308221391,5.772735903932148
1.0522175073504298,-4.2447813224815,4.3654742584458495,-0.4123686264780406,-4.798719529458096,7.565892806506456
1.009769694125615,-4.292768517776081,4.3613505721810695,-0.33670969841297604,-3.7012227757861975,9.423696717184304
0.9668420089478541,-4.329780745533943,4.3579834751969395,-0.242472731241133,-2.5961340368572396,11.305129406382703
0.9235442014925147,-4.3557420859025155,4.355558747884528,-0.12942143717730598,-1.5129832623461454,13.16595656017812
0.8799867806334896,-4.370871918525977,4.3542645335127546,0.0022381284244752386,-0.48274519932902854,14.961166175858553
0.8362780614482298,-4.375699370519268,4.354286914796999,0.15184979018306077,0.4637724019618632,16.64777827464063
0.7925210677430371,-4.3710616464996495,4.35580541269883,0.31832757292946706,1.2976738968067003,18.18777073429663
0.7488104512780406,-4.358084907531582,4.358988688428124,0.5002052802724334,1.9936670601865358,19.55080487859995
0.7052296022027248,-4.338148236929717,4.3639907412308485,0.6957133290584329,2.531492719770325,20.716423216002713
0.6618481198334276,-4.312833309732014,4.370947874521433,0.90287756121846,2.8969022301162815,21.675443904531825
0.6187197867361075,-4.283864287430851,4.379976650133618,1.1196320002637783,3.0820494417618707,22.43038906932658
0.575881143861799,-4.253043793013232,4.391172970136256,1.343935890957044,3.0852501259859535,22.994935274074326
0.5333507059316667,-4.222191291753372,4.404612329045826,1.5738852436977873,2.910157002159415,23.392529316732755
0.4911287930141329,-4.193089721731778,4.420351181482804,1.8078105368651147,2.5644791638730675,23.654434479560482
0.4491978957968151,-4.167444930093048,4.438429286851455,2.0443548816607198,2.0584223512568407,23.817535697787857
0.4075234464958847,-4.146860706580479,4.458872835668062,2.282530238638598,1.4030334726258782,23.922229868699606
0.3660548394300799,-4.13283037185422,4.4816981380544485,2.521752537325594,0.6086032416814884,24.01067155125337
0.3247265357115377,-4.126744339437405,4.506915663427704,2.7618592528381276,-0.316772525099803,24.12555842910374
0.28345909231716365,-4.129912064688403,4.5345342559560855,3.003114837129165,-1.3684339614954633,24.30955126167644
0.2421599716702796,-4.1435964043033575,4.564565404327377,3.2462103497459296,-2.5462180668624153,24.605349934290356
0.20072400762724604,-4.169058584971982,4.597027507824836,3.4922638490888334,-3.8554000694478625,25.056400919159405
0.15903342177752622,-4.20761258566646,4.631950146315725,3.7428278582804273,-5.307601726632412,25.708191756346956
0.11695729592086161,-4.260688602932785,4.669378424898529,3.999909775843897,-6.9217598685467605,26.61008540982756
0.07435040989153377,-4.329906201618252,4.709377522656967,4.266010629942173,-8.725231046448968,27.81764185164539
0.03105134787535125,-4.417158512082742,4.752037628956389,4.544187048458626,-10.755049393994987,29.395329639176804
-0.013120237245476174,-4.524709006022692,4.797479499440975,4.838140344850395,-13.059209260901754,31.41937380121839
-0.0583673273057031,-4.65530109863171,4.845860902889479,5.152334082862579,-15.697502283210314,33.9800604865073
-0.10492033829202019,-4.812276121463813,4.897384243718105,5.492134687727652,-18.740646785585486,37.18176967951806
-0.15304309950665831,-4.999682589319668,4.9523055905953814,5.8639523845228325,-22.26462962053147,41.136534040534485
-0.203039925399855,-5.222328885524982,5.010945114440609,6.275317724928177,-26.33305661121511,45.9412404561623
-0.2552632142551048,-5.485659451637133,5.073698291689891,6.7347301294898,-30.951184642046837,51.615931406510484
-0.3101198087714761,-5.795171298057602,5.141045592984789,7.250889443554905,-35.95632307414841,57.95417659731301
-0.3680715217520521,-6.154734528799086,5.213554487420338,7.830431209528035,-40.77578689025043,64.18947231316216
-0.42961886704004293,-6.56249239770159,5.2918587995156185,8.472325932659656,-43.95332279061855,68.33843721455592
-0.49524379101705884,-7.002025625607775,5.3765820588422155,9.155710304805215,-42.45738237522346,66.23644033620243
-0.5652640472731366,-7.42659944936001,5.468139161890267,9.81807470816724,-31.524591614319277,51.31205506372969
-0.6395300417667367,-7.7418453655032025,5.5663199089719395,10.331195258804536,-7.539734852391919,18.586608814396342
-0.7169484954217686,-7.817242714027121,5.669631861559985,10.5170613469485,24.69287505374521,-25.22553932356959
-0.7951209225620398,-7.570313963489669,5.77480247502947,10.264805953712804,50.70870103147264,-60.07664587343104
-0.8708240621969365,-7.063226953174943,5.877450534566599,9.664039494978493,61.12464723646051,-73.13950434324684
-0.9414563317286859,-6.451980480810338,5.974090929516383,8.932644451546023,59.62034516207427,-69.71498795588644
-1.0059761365367894,-5.855777029189595,6.063417374031843,8.235494571987159,53.43021324627818,-59.88023144101289
-1.0645339068286854,-5.321474896726814,6.145772319751715,7.63669225757703,46.699290447294985,-49.3351864707043
-1.1177486557959535,-4.854481992253864,6.2221392423274855,7.143340392869987,40.86637803083373,-40.01782016798377
-1.1662934757184922,-4.445818211945527,6.293572646256186,6.743162191190149,36.19308849071357,-32.24966193202458
-1.2107516578379474,-4.083887327038391,6.361004268168087,6.420665571869903,32.56820202103373,-25.85021971439711
-1.2515905311083313,-3.7582053068280534,6.4252109238867865,6.162163374725932,29.804272075379497,-20.54330539557287
-1.2891725841766117,-3.4601625860742584,6.486832557634046,5.956730320770203,27.72756905303547,-16.078229659621613
-1.3237742100373544,-3.182886895543904,6.546399860841748,5.7959480241739865,26.19760905076751,-12.255076466960034
-1.3556030789927935,-2.920910805036229,6.604359341083488,5.6733972595043864,25.10550034260781,-8.921799900145903
-1.3848121870431558,-2.669855801610151,6.661093313678532,5.5841792605029275,24.367325255504646,-5.96521114448244
-1.4115107450592572,-2.4261825490551043,6.716935106283562,5.524527149058103,23.917436326300674,-3.302373641491152
-1.4357725705498083,-2.1870081857920978,6.772180377774143,5.491503412643191,23.70284665796626,-0.873903050355186
-1.4576426524077293,-1.9499797192124353,6.827095411900575,5.4827643821396395,23.678775128654312,1.3608369331665129
-1.4771424495998535,-1.7131919679258922,6.8819230557219715,5.496372751471305,23.805136392434235,3.427025670135942
-1.4942743692791125,-1.4751406040015498,6.936886783236685,5.530643008172664,24.043762302198527,5.336584378236855
-1.509025775319128,-1.2347029809795644,6.992193213318411,5.584008851955033,24.356214597288865,7.089665476953523
-1.5213728051289237,-0.9911408350066757,7.048033301837962,5.6549055067245675,24.70213831221795,8.675780133208045
-1.5312842134789904,-0.7441194518844962,7.104582356905207,5.741663308056648,25.03819254372912,10.074895686510766
-1.5387254079978354,-0.49373752644720503,7.161998989985774,5.842412264921755,25.317670495625077,11.258830545433641
-1.5436627832623075,-0.24056082149095426,7.220423112634991,5.955000570376091,25.4909719952245,12.193262440650871
-1.546068391477217,0.014348898461290727,7.279973118338752,6.0769331947826,25.50710017860413,12.84061877253335
-1.5459249024926043,0.26941990024733203,7.340742450286578,6.205339382507933,25.316295795091342,13.164003705472247
-1.543230703490131,0.5225828581982455,7.402795844111657,6.336979419562656,24.87377604978041,13.132110551969934
-1.5380048749081485,0.7713206186960495,7.466165638307284,6.4683005250823555,24.144305508077803,12.724768352567969
-1.530291668721188,1.0127636737768275,7.530848643558107,6.595548208608035,23.107025147042428,11.938420929091095
-1.5201640319834198,1.243833925247252,7.596804125644187,6.714932417898946,21.759681380279407,10.790533739379327
-1.5077256927309473,1.461430739050046,7.663953449823176,6.822837755292739,20.12125007027941,9.321809584428152
-1.4931113853404467,1.6626432397528401,7.732181827376103,6.9160558511370205,18.23206252096815,7.595299697244852
-1.4764849529429183,1.8449638649625215,7.801342385887474,6.992008848109469,16.150966508853433,5.692062756479179
-1.4580353142932931,2.0064735300510557,7.871262474368569,7.048929475674261,13.949723694265515,3.7038358785669403
-1.4379705789927826,2.145970766993711,7.941751769125312,7.085967834459931,11.705550323440196,1.72397506143755
-1.4165108713228454,2.2630262702281128,8.012611447469911,7.103207585074306,9.493189831914972,-0.16160870639186062
-1.3938806086205642,2.3579581685472624,8.083643523320655,7.101591498010387,7.3779756635951905,-1.881839842204069
-1.3703010269350915,2.431737925183214,8.154659438300758,7.082773099588346,5.410986612957354,-3.3850532357505383
-1.3459836476832594,2.4858477913127874,8.225487169296642,7.04892256723084,3.6267789949408016,-4.640403275548949
-1.3211251697701316,2.5221155812621956,8.29597639496895,7.00251853447535,2.0435453864832858,-5.636498646407229
-1.2959040139575098,2.5425510351270284,8.366001580313704,6.946153548011278,0.6651006341550709,-6.3781245265283175
-1.2704785036062394,2.549202041468579,8.435463115793816,6.882372302745995,-0.5160849653590236,-6.882044073444753
-1.2449864831915536,2.544041191814989,8.504286838821276,6.813551862011547,-1.5155321466771476,-7.172732340297928
-1.2195460712734036,2.5288858703482173,8.572422357441392,6.741824538608568,-2.3536154507812057,-7.278620588016486
-1.1942572125699216,2.5053497158404054,8.639840602827478,6.669038332728403,-3.0529520949454914,-7.22913942067555
-1.1692037154115176,2.4748201948909507,8.706530986154762,6.5967469385216475,-3.636431495862764,-7.052619676492722
-1.144455513462608,2.4384558799323233,8.772498455539978,6.52622074175672,-4.125865521254328,-6.774965354612948
-1.1200709546632848,2.39719722471978,8.837760662957544,6.458471088210591,-4.541166114897119,-6.4189447837775235
-1.096098982416087,2.3517855635708087,8.90234537383965,6.3942816403728155,-4.899930402507332,-6.003932384705999
-1.0725811267803789,2.3027862595457353,8.966288190243377,6.3342423165257555,-5.217316320977754,-5.545950509707978
-1.0495532641849215,2.250613096335958,9.029630613408635,6.278782811428676,-5.506109550056762,-5.057891077411367
-1.0270471332215618,2.19555200083539,9.092418441522922,6.228203900654562,-5.776905052327785,-4.549828806462375
-1.005091613213208,2.137782950312112,9.154700480529467,6.182705612589938,-6.038348134535438,-4.029366021828009
-0.9837137837100868,2.0773994689667576,9.216527536655367,6.142411952371658,-6.297398038134072,-3.501971159940636
-0.9629397890204192,2.0144254885854167,9.277951656179082,6.107392240772252,-6.559590965477357,-2.9712891940714123
-0.9427955341345651,1.9488295789306431,9.339025578586805,6.077679348831538,-6.829289455625203,-2.4394131364582594
-0.9233072383452586,1.8805366843743911,9.39980237207512,6.053285217466955,-7.1099118447825305,-1.9071127172531381
-0.9045018715015147,1.8094375659265658,9.46033522424979,6.034214090294424,-7.404139956336813,-1.3740203949880385
-0.8864074958422491,1.7353961663631976,9.520677365152734,6.0204738863445435,-7.7141058563934735,-0.8387769226139017
-0.8690535341786171,1.6582551077992629,9.58088210401618,6.012086117118405,-8.041560037946802,-0.2991394573996749
-0.8524709831006244,1.5778395074197948,9.641002965187363,6.0090947225444085,-8.388024176886926,0.2479448562085734
-0.8366925880264264,1.4939592656509255,9.701093912412807,6.011574171106494,-8.754931932919826,0.8062974596087971
-0.8217529953699172,1.4064099463217272,9.761209654123872,6.019637145702582,-9.143761350128251,1.380497584867357
-0.8076888959066999,1.3149723328204448,9.821406025580899,6.033442121551255,-9.556162373946357,1.9759015721701934
-0.7945391725784955,1.2194107090809811,9.881740446796412,6.053201137272957,-9.994082914327988,2.598692859185964
-0.7823450654876857,1.1194698799377012,9.94227245816914,6.079188065864817,-10.459896768100963,3.255964287912143
-0.7711503666883086,1.0148709122566917,10.00306433882779,6.1117477087439385,-10.956536530620445,3.955835390252187
-0.7610016575657417,0.9053055469504873,10.064181815915228,6.15130606264646,-11.487634266199382,4.707608124913549
-0.7519486020962368,0.7904292042884934,10.125694876541694,6.1983821438955955,-12.05767193681317,5.52196488768006
-0.7440443100533519,0.6698524849203616,10.18767869798065,6.253601792772396,-12.67214197071909,6.411212003158347
-0.7373457852041483,0.5431310652131707,10.250214715908374,6.317713912803979,-13.337715078505827,7.389569364525191
-0.7319144745520165,0.4097539144281124,10.313391855036414,6.391609606449231,-14.062406013881102,8.473500587508388
-0.7278169354077354,0.26912985428930136,10.377307951100907,6.476344612324315,-14.855715721683016,9.68206453527501
-0.7251256368648424,0.1205726970724712,10.442071397224149,6.573165257677065,-15.728705248447795,11.037241876849963
-0.7239199098941177,-0.036714355412006766,10.50780304980092,6.683537676445565,-16.693913782082628,12.564137342079576
-0.7242870534482377,-0.20365349323283305,10.574638426565375,6.80917904986636,-17.764953460340138,14.290856910587523
-0.7263235883805661,-0.38130302783623443,10.642730217064038,6.952087618972236,-18.955466457309587,16.247667381207854
-0.7301366186589284,-0.5708576924093303,10.71225109325376,7.114564292784315,-20.276859962503863,18.464686977161026
-0.7358451955830217,-0.7736262920343688,10.783396736181604,7.299211162555925,-21.73374523479939,20.966694093581534
-0.7435814585033654,-0.9909637443823627,10.856388847807164,7.50887810349174,-23.31514019275862,23.762451974388494
-0.7534910959471891,-1.2241151463099489,10.931477628842082,7.746502623235624,-24.978034545659604,26.823912011388995
-0.7657322474102886,-1.473895491766545,11.008942655074438,8.014741743349514,-26.61771332558997,30.047526953507884
-0.780471202327954,-1.7400726250224448,11.089090072507934,8.315217012884593,-28.016794968329755,33.186282609258114
-0.7978719285781785,-2.0202405747057424,11.17224224263678,8.647079838977175,-28.765382701637343,35.741082126999075
-0.8180743343252359,-2.3078944017221157,11.258713041026553,9.004490660247166,-28.158754926016083,36.818354853228016
-0.841153278342457,-2.5894819509822766,11.348757947629025,9.372674208779445,-25.13214957725964,35.0324185464622
-0.8670480978522798,-2.840803446754873,11.442484689716819,9.722998394244067,-18.413275968932624,28.696804897487574
-0.8954561323198285,-3.024936206444199,11.53971467365926,10.009966443218943,-7.18710015838807,16.70701171295055
-0.9257054943842704,-3.0968072080280797,11.63981433809145,10.177036560348448,7.729352993303661,0.11446186670488678
-0.9566735664645513,-3.019513678095043,11.741584703694933,10.178181179015496,23.29316795660795,-17.092729970310042
-0.9868687032455017,-2.7865819985289635,11.843366515485087,10.007253879312396,35.73611641213901,-30.040414518612
-1.0147345232307914,-2.429220834407573,11.943439054278212,9.706849734126276,43.135273625651976,-36.40244261162907
-1.0390267315748671,-1.9978680981510535,12.040507551619475,9.342825308009985,46.06542838465033,-37.17235833811023
-1.0590054125563777,-1.5372138143045502,12.133935804699576,8.971101724628882,46.193075565171,-34.69698273954389
-1.0743775506994233,-1.0752830586528401,12.223646821945865,8.624131897233443,44.97425802415853,-30.94317505151299
-1.0851303812859516,-0.6255404784112548,12.309888140918199,8.314700146718314,43.28769475413938,-27.059314683604935
-1.0913857860700642,-0.192663530869861,12.393035142385383,8.044106999882265,41.55888515797872,-23.580921514980815
-1.0933124213787628,0.2229253207099262,12.473476212384206,7.808297784732457,39.95274288104439,-20.705276111219323
-1.0910831681716635,0.6224527495203701,12.551559190231531,7.601245023620264,38.50550889385455,-18.471106961673723
-1.0848586406764598,1.0075078384589156,12.627571640467734,7.416533954003527,37.196594740625386,-16.852280393200505
-1.0747835622918707,1.3794737858651693,12.70173698000777,7.248011150071522,35.98396572519518,-15.801062143689897
-1.060988824433219,1.739313443117121,12.774217091508485,7.090000528634623,34.82068941569656,-15.266029323740595
-1.0435956900020478,2.087520337274087,12.84511709679483,6.937340235397217,33.662457474046974,-15.19820434355822
-1.022720486629307,2.424144912014557,12.914490499148803,6.785358191961635,32.47097019719462,-15.552060412265407
-0.9984790375091613,2.748854613986503,12.982344081068419,6.62983758783898,31.21548416586049,-16.284520041720217
