th1 (rad),w1 (rad/s),th2 (rad),w2 (rad/s)
0.3505693980193344,2.5416886537827748,1.678477705408849,-1.6870268994671438
0.37598628455716215,2.541084527277878,1.6616074364141777,-1.84701956625008
0.4013971298299409,2.544028986391496,1.6431372407516769,-2.0074073421086
0.42683741969385586,2.55085276929447,1.6230631673305909,-2.1686045486939656
0.45234594738680056,2.561884987891394,1.6013771218436512,-2.3310640723698732
0.4779647972657145,2.5774507774097146,1.5780664811199525,-2.4952714631180526
0.5037393050398117,2.597866017075102,1.553113766488772,-2.6617355157564337
0.5297179652105627,2.6234276048644602,1.5264964113312076,-2.8309733452844075
0.5559522412592073,2.6543970839188686,1.4981866778783635,-3.0034870177774335
0.582496212098396,2.6909744617488496,1.468151807700589,-3.1797274717291613
0.6094059567158845,2.7332577851139552,1.4363545329832974,-3.3600396871111036
0.636738534567024,2.7811824493935084,1.4027541361121865,-3.544580844708938
0.664550359060959,2.834432537751894,1.367308327665097,-3.7332008394470875
0.692894684438478,2.8923153529514103,1.3299763192706262,-3.9252728509922874
0.7218178379679921,2.953591277688377,1.2907235907607033,-4.119462863277169
0.7513537507448759,3.016257321093963,1.2495289621279315,-4.313435394976557
0.7815163239558155,3.077299533610193,1.206394608178166,-4.503515667368279
0.8122893192919174,3.132463830094151,1.1613594515044832,-4.684375625509405
0.843613957592859,3.176150321434915,1.114515695249389,-4.8488877979287786
0.8753754608072081,3.2016001622061916,1.0660268172701013,-4.988379180814346
0.90739146242927,3.201566283426676,1.016143025461958,-5.093547997181384
0.9394071252635368,3.1695495809270158,0.9652075454901441,-5.15615368384047
0.9711026210728069,3.101376974463833,0.9136460086517394,-5.171167773929737
1.0021163908174453,2.9965148729449504,0.861934330912442,-5.138545415453398
1.0320815395468947,2.858405129583075,0.810548876757908,-5.063636655465448
1.0606655908427256,2.6935531593420388,0.7599125102032536,-4.955877991916752
1.087601122436146,2.5098227235350152,0.710353730284086,-4.826409770180447
1.112699349671496,2.3147624355250747,0.6620896325822815,-4.685767755894629
1.1358469740267467,2.114549648357941,0.6152319550233352,-4.54245155057551
1.156992470510326,1.9136440587153538,0.5698074395175801,-4.402482792245135
1.1761289110974795,1.7149247330493833,0.5257826115951287,-4.269627916429105
1.1932781584279732,1.5200352654027103,0.4830863324308377,-4.145899210171729
1.2084785110820004,1.3297516549509123,0.44162734032912043,-4.032077566919691
1.2217760276315095,1.1442888451698208,0.40130656465992354,-3.9281429580243397
1.2332189160832077,0.9635262676993777,0.36202513507968015,-3.8335880605250443
1.2428541787602014,0.7871616915301816,0.3236892544744297,-3.7476300078318125
1.2507257956755033,0.6148108114138622,0.28621295439611155,-3.66934580640425
1.256873903789642,0.4460690417082884,0.24951949633206905,-3.5977550821515685
1.261334594206725,0.28054827123468157,0.21354194551055336,-3.531868326007511
1.2641400769190716,0.11789756855126368,0.17822326225047824,-3.4707133810013704
1.2653190526045843,-0.04218615961994987,0.14351612844046455,-3.413348660253948
1.2648971910083848,-0.19995368466128502,0.10938264183792507,-3.358868574160036
1.262897654161772,-0.355602711672526,0.0757939560963247,-3.3064046251609374
1.2593416270450468,-0.5092793763073775,0.04272990984471532,-3.255124315254325
1.254248833281973,-0.6610810828856191,0.010178666692172073,-3.2042291731809565
1.2476380224531167,-0.8110601592350707,-0.021863625039637492,-3.1529526787470186
1.239527420860766,-0.9592280353513236,-0.05339315182710768,-3.1005585286445028
1.2299351405072527,-1.1055597926679077,-0.08439873711355271,-3.0463394781018964
1.2188795425805736,-1.2499990118707325,-0.11486213189457167,-2.989616858877223
1.2063795524618663,-1.3924628910440355,-0.1447583004833439,-2.929740786983331
1.192454923551426,-1.5328476260487365,-0.1740557083531772,-2.866091014764861
1.1771264472909386,-1.6710340500962684,-0.2027166185008258,-2.7980783403049614
1.1604161067899759,-1.8068935251634475,-0.23069740190387542,-2.7251464559360925
1.1423471715383413,-1.940294068019043,-0.25794886646323634,-2.6467740930523505
1.122944230858151,-2.071106680901778,-0.28441660739375985,-2.562477300490239
1.1022331640491332,-2.199211843329936,-0.31004138039866225,-2.4718116776360364
1.0802410456158338,-2.3245061087537238,-0.3347594971750226,-2.3743743710211014
1.0569959845282966,-2.4469087391421684,-0.35850324088523366,-2.269805634789854
1.0325268971368748,-2.5663683032959117,-0.38120129723313223,-2.1577897515876816
1.0068632141039158,-2.6828691616916545,-0.40277919474900903,-2.0380551116967287
0.9800345224869992,-2.796437762792097,-0.4231597458659763,-1.9103732551762944
0.9520701448590783,-2.9071486835417515,-0.4422634784177393,-1.7745566947490934
0.9229986580236608,-3.0151303604149358,-0.4600090453652302,-1.6304553564729003
0.8928473544195115,-3.12057047661699,-0.47631359892995917,-1.4779515009963466
0.8616416496533416,-3.2237209949411985,-0.4910931139399226,-1.3169530205993338
0.8294044397039295,-3.3249028525180853,-0.5042626441459159,-1.147385046792252
0.7961554111787487,-3.424510360120081,-0.5157364946138384,-0.9691798514542169
0.7619103075775479,-3.523015369728713,-0.5254282931283806,-0.7822650847279503
0.7266801538802607,-3.6209712816929165,-0.5332509439756601,-0.5865504721820742
0.6904704410633316,-3.7190169442596024,-0.5391164486974809,-0.3819132055298659
0.6532802716207355,-3.817880433131189,-0.5429355807527796,-0.16818242985557036
0.6151014672894236,-3.918382553888007,-0.5446174050513353,0.054876501283063206
0.5759176417505435,-4.021439631262145,-0.5440686400385046,0.28757688963487504
0.535703245437922,-4.1280646464957504,-0.5411928711421559,0.5303228215376867
0.49442259897296453,-4.2393649084768885,-0.535889642926779,0.7836154620784084
0.45202894988819564,-4.356532950729632,-0.5280534883059949,1.0480483143539332
0.40846362038089934,-4.4808248369217925,-0.5175730051624555,1.3242827349367168
0.3636553720116814,-4.613515908349955,-0.5043301778130883,1.6129892053411432
0.3175202129281819,-4.755817300910497,-0.4882002857596769,1.91473051106522
0.2699620399190769,-4.908726129471328,-0.4690529806490247,2.2297484677711683
0.22087477862436364,-5.072767137677407,-0.446755495971313,2.557594897934856
0.17014710724758958,-5.2475648509451895,-0.4211795469919644,2.8965217576984186
0.11767145873813768,-5.431170697338083,-0.39221432941498025,3.2425259244841205
0.06335975176475685,-5.619085006529024,-0.35978907017013906,3.5879679063524086
0.007168901699466608,-5.803021636992744,-0.323909391106615,3.919838861536365
-0.05086131467046084,-5.969770796490407,-0.28471100249125136,4.21818837292247
-0.1105590226353649,-6.101097005059535,-0.24252911876202665,4.4560485604647635
-0.17156999268596027,-6.176186080231464,-0.197968633157379,4.603001506653971
-0.2333318534882749,-6.177647563721008,-0.1519386180908393,4.633805593905033
-0.29510832912548496,-6.099247320340292,-0.10560056215178898,4.5394695804418586
-0.35610080232888786,-5.950040575536638,-0.06020586634737039,4.33318647824877
-0.41560120808425427,-5.7507937128031426,-0.016874001564882696,4.045261497827979
-0.4731091452122857,-5.525312312542556,0.023578613413397093,3.710722180309967
-0.5283622683377113,-5.293172632422743,0.060685835216496765,3.358846463781945
-0.5812939946619387,-5.067099307464204,0.09427429985431621,3.0092719867814
-0.6319649877365807,-4.853774644139019,0.12436701972213021,2.673019150392601
-0.6805027341779709,-4.655769606811013,0.15109721122605624,2.3551655799446287
-0.727060430246081,-4.4732708550383515,0.17464886702550253,2.057276715686732
-0.7717931387964645,-4.305253086687029,0.19522163418236985,1.7790743145680454
-0.8148456696633348,-4.150171730304433,0.2130123773280503,1.5194341961533833
-0.8563473869663791,-4.00633713143574,0.22820671928958414,1.2769335086526978
-0.8964107582807366,-3.8721012562753896,0.2409760543761111,1.0501297154183802
-0.9351317708434905,-3.7459414411359617,0.25147735153029493,0.8376900651085939
-0.9725911852548501,-3.626490446840161,0.25985425218138086,0.6384414460439738
-1.0088560897232517,-3.512539989859717,0.2662386666418206,0.45137965360341115
-1.043981489621849,-3.4030322002528686,0.27075246317785473,0.27565918200273054
-1.0780118116243775,-3.2970464379310362,0.27350905499788203,0.11057468527508263
-1.1109822760036878,-3.1937851255650345,0.27461480185063286,-0.044460161161075346
-1.1429201272593381,-3.0925602688388243,0.2741702002390221,-0.18993356032936531
-1.1738457299477263,-2.9927813120088937,0.27227086463572847,-0.32625494048602466
-1.2037735430678151,-2.8939444693163665,0.2690083152308682,-0.4537722218985568
-1.2327129877609788,-2.7956234376807383,0.26447059301188264,-0.5727868724624181
-1.2606692221377862,-2.6974613026995047,0.2587427242872585,-0.6835668111342105
-1.2876438351647812,-2.599163428396934,0.25190705617591636,-0.7863573023435925
-1.3136354694487506,-2.500491134146153,0.24404348315248042,-0.8813900158438593
-1.338640380790212,-2.401255989995985,0.23522958299404184,-0.9688904326748918
-1.362652940690172,-2.3013145939497544,0.22554067866729294,-1.049083773225126
-1.3856660866296695,-2.2005637263160853,0.21504984093504168,-1.1221996146910513
-1.4076717238928305,-2.0989358045596713,0.20382784478813115,-1.1884753556181464
-1.4286610819384271,-1.9963945860746335,0.1919430912319497,-1.2481586758037697
-1.4486250277991735,-1.8929310857312902,0.179461504473912,-1.301509130875386
-1.4675543386564864,-1.788559690082395,0.16644641316515812,-1.3487990121842928
-1.4854399355573105,-1.6833144611531234,0.1529584230433152,-1.3903135940440283
-1.5022730801688418,-1.5772456302828648,0.1390552871028749,-1.4263508816021313
-1.5180455364716705,-1.4704162870770427,0.12479177828685359,-1.4572209636594893
-1.532749699342441,-1.3628992707011314,0.1102195686502587,-1.4832450655310354
-1.5463786920494522,-1.2547742710147245,0.09538711799494834,-1.5047543876394252
-1.5589264347595995,-1.1461251458635466,0.08033957411855408,-1.522088806067584
-1.5703876862182349,-1.0370374586299282,0.06511868605787824,-1.5355955019150718
-1.5807580608045342,-0.9275962372374722,0.04976273103872752,-1.5456275771659609
-1.590034023176909,-0.8178839525047982,0.03430645526706791,-1.5525427060366326
-1.598212862701957,-0.7079787102814638,0.018781028206701585,-1.5567018625697993
-1.6052926498047715,-0.5979526483592622,0.003214009581003591,-1.5584681576942436
-1.6112721762883642,-0.48787052586962604,-0.012370671995938845,-1.5582058121723346
-1.6161508815470604,-0.37778848984662305,-0.02795273011766219,-1.556279285879058
-1.6199287664455266,-0.2677530009125987,-0.04351552297645277,-1.553052578743535
-1.6226062964546526,-0.1577998976568057,-0.059046048763888116,-1.548888714462035
-1.6241842954312207,-0.047953577227865946,-0.07453493590850846,-1.5441494147666524
-1.6246638312034993,0.06177373207018609,-0.08997643005617498,-1.5391949695958584
-1.6240460938827974,0.17138263183534005,-0.10536837975213356,-1.5343843069368832
-1.622332267564444,0.28088717514244965,-0.1207122228215024,-1.5300752653561929
-1.6195233958130195,0.39031547651534704,-0.13601297547506433,-1.5266250722494206
-1.615620241047866,0.499710339048512,-0.15127922619755854,-1.52439103155487
-1.6106231376573807,0.6091299281971605,-0.16652313651310724,-1.5237314259906563
-1.6045318383754092,0.7186485224327195,-0.1817604507730138,-1.525006640665842
-1.597345353151082,0.8283573715319945,-0.19701051717967222,-1.5285805169990383
-1.589061779435762,0.9383656936565814,-0.21229632234966261,-1.534821947989736
-1.5796781224991963,1.048801842415856,-0.22764454182955998,-1.5441067276342637
-1.5691901040750378,1.1598146744797961,-0.24308560910590263,-1.5568196680621003
-1.55759195733024,1.2715751464800633,-0.25865380578652364,-1.5733569968725727
-1.5448762058654393,1.3842781660229933,-0.27438737575524935,-1.5941290427616646
-1.5310334242052093,1.4981447142065387,-0.290328666182866,-1.619563207651725
-1.516051977063144,1.6134242438085185,-0.30652429825938327,-1.650107204771715
-1.4999177346250587,1.7303973347014399,-0.32302537030710043,-1.6862325091992547
-1.4826137612780443,1.8493785504037492,-0.33988769539909297,-1.7284379120620557
-1.4641199757740069,1.9707193781640502,-0.35717207451971356,-1.7772529791662226
-1.4444127819923664,2.094811035820286,-0.3749446043113758,-1.8332410695288284
-1.4234646716341637,2.2220867705057232,-0.39327701500666407,-1.897001338644112
-1.4012438039291064,2.353023024144803,-0.4122470283931052,-1.9691687884802362
-1.3777135736876585,2.488138448373999,-0.43193871627790753,-2.0504108600362683
-1.3528321892039186,2.6279891418352883,-0.4524428248782702,-2.1414181885696126
-1.3265522977855657,2.77315754644644,-0.4738570067639663,-2.2428858024611555
-1.2988207223211012,2.9242310256052284,-0.49628586478857784,-2.3554790327618846
-1.2695784120650488,3.081764068731659,-0.5198406551161967,-2.479775449989282
-1.2387607713777322,3.24621514035682,-0.5446384096160896,-2.6161700060038586
-1.206298619974164,3.4178453789112857,-0.5708001096761282,-2.764725188255347
-1.1721201661850513,3.596562113391384,-0.5984473615586816,-2.924942065952818
-1.1361545450511374,3.78168726709798,-0.6276967822182098,-3.0954241455885096
-1.0983376723801577,3.9716337285726904,-0.6586510236740949,-3.273410466862373
-1.0586213350944307,4.163491282036581,-0.6913851283427186,-3.4541809792949483
-1.0169864222740648,4.352573668690716,-0.7259269381356681,-3.63040857814786
-0.9734606855871576,4.53207676020183,-0.7622310239171467,-3.791672260606738
-0.9281399179851393,4.693137957448949,-0.8001477465232141,-3.9245451412473336
-0.8812085384106498,4.8256855628345905,-0.8393931979356875,-4.013811611134128
-0.8329516827823039,4.920325314640773,-0.8795313140470288,-4.045168116215936
-0.7837484296358962,4.970939002499351,-0.9199829952091881,-4.008951104370835
-0.7340390396109027,4.976871717544836,-0.9600725062528965,-3.903301055668019
-0.6842703224354543,4.943362769245745,-0.9991055168095767,-3.734848347918921
-0.6348366947429969,4.879835367984053,-1.0364540002887659,-3.51635567239193
-0.5860383410631563,4.797076473825201,-1.0716175570126851,-3.262756749916248
-0.5380675763249043,4.704808550500806,-1.1042451245118476,-2.9877114125217967
-0.49101949081989626,4.610446955159344,-1.1341222386370655,-2.70181244332965
-0.44491502126830285,4.518930721530916,-1.161140363070362,-2.4123040101097155
-0.3997257140529937,4.433131330907324,-1.1852634031714593,-2.123624435381361
-0.3553944007439204,4.354417840315375,-1.206499647525273,-1.8381821067075053
-0.31185022234076665,4.283160525251536,-1.224881468592348,-1.5570558080928538
-0.26901861708825126,4.2191067245737335,-1.2404520266732764,-1.2805227377391917
-0.2268275498425139,4.16163527325786,-1.2532572540506683,-1.008420075985677
-0.1852111971099353,4.1099184003699225,-1.263341454810525,-0.7403783621047806
-0.1441120131062361,4.063020223824591,-1.270745238431573,-0.4759659864124889
-0.10348181086799019,4.01995446201877,-1.2755048982956978,-0.21477544124708847
-0.06328226624780248,3.9797170772290436,-1.2776526527081686,0.043527416863744506
-0.023485095475512037,3.941304153147882,-1.277217378539531,0.299177251583148
0.015927946055966785,3.9037215372850333,-1.2742256060236996,0.5522976038921411
0.05496516142881712,3.8659902959558052,-1.2687026299847781,0.8028984324290891
0.09362506438837517,3.8271504392345843,-1.2606736456604872,1.0508796797652753
0.131896568780721,3.7862643639356013,-1.2501648488628345,1.296039011416331
0.16975921242007702,3.7424208187481285,-1.2372044587486712,1.5380826467257307
0.20718342060755832,3.694739777225591,-1.221823632281414,1.7766386369636344
0.24413081837981424,3.642378324257148,-1.2040572459117778,2.011272171938
0.2805546016223857,3.584537467361394,-1.1839445241923978,2.2415025927580627
0.31639997629599964,3.5204696450036623,-1.1615294982648172,2.466821807373381
0.35160467274603624,3.449486603127194,-1.1368612801910833,2.6867137817963926
0.3860995387773082,3.370967239408782,-1.1099941423731194,2.9006747372152946
0.419809211171396,3.2843649683852147,-1.0809873950009665,3.1082336382341107
0.4526528608552482,3.1892141380918035,-1.0499050586186254,3.3089725222567097
0.48454500223616626,3.085135029869966,-1.0168153333960583,3.5025462031862924
0.5153963525348659,2.971836997359894,-0.9817898713641954,3.6887008900932905
0.5451147225084648,2.849119347730027,-0.9449028624632625,3.8672912969606084
0.573605915985765,2.716869636303395,-0.9062299494936564,4.038295884537203
0.600774612348799,2.575059132098372,-0.8658469906482844,4.201829969053501
0.6265252036697827,2.4237353122651246,-0.8238286909577494,4.358156552156007
0.650762556792434,2.2630113526537032,-0.7802471254361892,4.50769486658156
0.673392670318971,2.09305269379616,-0.7351701767703737,4.65102678490535
0.6943231972569326,1.9140608706870368,-0.6886599089213201,4.788901393406617
0.713463805963803,1.7262548969734615,-0.6407708949872539,4.922238175597168
0.7307263549335377,1.5298505897256198,-0.5915485132312822,5.0521293616635115
0.7460248608307939,1.325038317657537,-0.5410272196146471,5.179842055422423
0.7592752440073692,1.111959774159677,-0.4892287990604228,5.306820711724182
0.770394841748966,0.8906845585917917,-0.436160591943181,5.434690344885027
0.7793016873348839,0.6611876716521053,-0.3818136884943307,5.565260402657015
0.785913564051405,0.42332962821725195,-0.3261610844677606,5.700528367172051
0.7901468603335775,0.17684199705427292,-0.26915580079604007,5.842680540244028
0.7919152803041203,-0.07867680962373455,-0.2107289953935998,5.99408460303233
0.7911285122078829,-0.34374707816417915,-0.1507881493632765,6.1572634898765175
0.7876910414262411,-0.6189599598402195,-0.08921551446451133,6.334831340127453
0.781501441827839,-0.9048708397929732,-0.025867201063236797,6.529357341437604
0.7724527334299093,-1.2017909535440254,0.039426372351139244,6.743098699746256
0.760434823894469,-1.5094076328087729,0.10685735934860181,6.977506249498055
0.7453407475663814,-1.826128927945653,0.17663242184358235,7.2323563416726895
0.7270794582869248,-2.148021017704729,0.24895598526030926,7.504320722966531
0.7055992481098775,-2.4672423074773424,0.32399919248997455,7.784827692649364
0.680926825035104,-2.770116714552573,0.4018474694164682,8.057386436563856
0.6532256578895783,-3.035664017105612,0.4824213337821068,8.295468253066968
0.6228690177185222,-3.2365790508879737,0.5653760163127765,8.463658577384503
0.5905032272096424,-3.3453159472602696,0.6500126020866215,8.525733272082647
0.5570500677370397,-3.3453654239804265,0.735269934807448,8.459817563651022
0.5235964134972354,-3.241165468161683,0.8198681104439581,8.271690880957614
0.49118475881561857,-3.057228225624889,0.9025850192535343,7.993453544507277
0.46061247655936965,-2.8263247532720257,0.9825195546986071,7.667516405453768
0.4323492290266494,-2.57710081080149,1.0591947187531447,7.330122150529308
0.4065782209186345,-2.3287447173622673,1.1324959402584378,7.00457253891932
0.3832907737450118,-2.091718025962434,1.202541665647631,6.702566623608921
0.36237359348538745,-1.8705810115878538,1.2695673318837204,6.428184054630519
0.34366778336950893,-1.666541058830345,1.3338491724300257,6.18135158031003
0.3270023727812055,-1.4791317054544915,1.395662688233126,5.9600663890305565
0.3122110557266606,-1.3071673149819913,1.4552633521234315,5.7616216139250325
0.29913938257684064,-1.1492391541055171,1.5128795682626819,5.583215903916901
0.28764699103578545,-1.0039538570891877,1.568711727301851,5.422225951844637
0.27760745246489354,-0.870036352335934,1.6229339868202972,5.276307464504886
0.2689070889415342,-0.7463647684692201,1.6756970614653461,5.143414044155388
0.261443441256842,-0.6319729061477278,1.7271312019069,5.021779902200009
0.2551237121953647,-0.526038464764703,1.7773490009289001,4.909889071799228
0.2498633275477177,-0.42786606239771513,1.8264478916468925,4.806441824078736
0.24558466692374054,-0.3368693703611794,1.87451230988768,4.7103229924456755
0.24221597322012875,-0.25255429125207535,1.9216155398121366,4.620573974818594
0.239690430307608,-0.17450392012468424,1.9678212795603225,4.536368799846945
