th1 (rad),w1 (rad/s),th2 (rad),w2 (rad/s)
3.3135308968404993,2.3485711447917725,3.1549826460304145,3.000755156408031
3.337016608288417,2.3577642063714443,3.184990197594495,3.0016981687186512
3.3605942503521318,2.369388011253983,3.2150071792816814,3.002878765392515
3.3842881304646717,2.383422608475367,3.245035966935607,3.0043252191755894
3.408122356549425,2.3998504893543977,3.2750792191273628,3.006060695438771
3.4321208614429692,2.41865637427334,3.3051398260817506,3.0081036155356857
3.4563074251857024,2.439826948047791,3.3352208622371076,3.010468075297566
3.4807056946661805,2.463350541561628,3.365325542990083,3.0131643231628753
3.5053392000817967,2.4892167572337236,3.3954571862217118,3.0161993028917906
3.530231367654134,2.5174160357711894,3.4256191792506296,3.0195772662324663
3.5554055280118457,2.547939161558419,3.4558149519129544,3.023300461271826
3.58088491962743,2.5807767039454297,3.4860479565256726,3.027369902494305
3.606692686666884,2.6159183916508564,3.5163216555506156,3.0317862287535373
3.6328518705833925,2.6533524175076018,3.546639517838151,3.036550655389115
3.6593853947584685,2.69306467088214,3.577005024392042,3.041666026535134
3.6863160414672898,2.7350378953284653,3.6074216846573934,3.047137973196754
3.7136664204205743,2.7792507694397073,3.637893064389361,3.052976181826995
3.7414589281149713,2.8256769094887235,3.668422826207631,3.0591957768130205
3.7697156972098584,2.8742837933676135,3.6990147839757612,3.0658188183563606
3.7984585351435345,2.925031606619298,3.729672972159325,3.0728759145653637
3.8277088512097275,2.977872013085464,3.7604017313049787,3.0804079430172413
3.8574875713405823,3.032746854964931,3.791205810735151,3.0884678724294
3.887815039890232,3.0895867899785174,3.822090489459445,3.0971226692438885
3.918710907790017,3.148309876960892,3.853061716151884,3.1064552667277914
3.950194006559626,3.208820125623328,3.884126268819162,3.1165665655134247
3.9822822078158593,3.2710060315030445,3.915291934474296,3.1275774242933556
4.014992268130889,3.334739123239007,3.9465677087172297,3.1396305876893145
4.04833965936328,3.39987255622747,3.977964014594123,3.1528924853092266
4.082338384925555,3.4662397942577794,4.009492939447215,3.1675548220521264
4.117000782868132,3.5336534286366335,4.041168487667736,3.183835865403463
4.152337317154498,3.601904192163261,4.073006846321771,3.201981321638435
4.188356359076131,3.6707602325505437,4.105026659538155,3.2222646806671773
4.225063961401637,3.7399667157779803,4.1372493063448275,3.2449869001517375
4.262463628559416,3.809245833567118,4.169699175346345,3.2704752951834237
4.300556086895088,3.878297289780831,4.202403928298179,3.299081502051614
4.339339059792896,3.946799337193721,4.235394743318695,3.331178395247592
4.378807053164833,4.014410428068357,4.268706527271171,3.367155857334227
4.418951157445516,4.080771528956031,4.302378085844513,3.407415332592412
4.459758872735076,4.145509132306382,4.336452239170437,3.4523631374258192
4.50121396405814,4.208238975690256,4.370975870544695,3.502402552136407
4.543296353815043,4.268570455362906,4.405999896066058,3.5579247772050397
4.585982058368672,4.326111696914413,4.4415791438381085,3.6192988984836054
4.629243175337816,4.380475224824446,4.4777721328229445,3.6868610643270445
4.673047927586061,4.4312841580099525,4.514640743466215,3.760903127501326
4.71736076916616,4.478178852761108,4.552249774741228,3.8416610395240607
4.762142557693771,4.520823919715413,4.590666385136469,3.92930329967894
4.807350796890925,4.558915558121828,4.629959418133258,4.023919751927693
4.852939952472144,4.592189177020731,4.670198615652535,4.125510989652568
4.898861844242351,4.620427305335023,4.7114537255490605,4.23397857312197
4.945066117295701,4.643467825323278,4.75379351128028,4.3491161935914295
4.991500795548934,4.661212588698275,4.797284673216194,4.470601839812526
5.038112921435917,4.673636483057247,4.84199069161432,4.597990948560721
5.084849286266489,4.680796998639479,4.887970601099926,4.730710463357432
5.1316572562528835,4.682844292453082,4.935277705733501,4.868053698499852
5.178485699177414,4.68003164984171,4.9839582427185,5.00917592276009
5.225286015675831,4.6727260953458,5.034050001946101,5.1530906522668385
5.272013276629289,4.661418700439362,5.085580908468769,5.298666787387132
5.318627463633682,4.646733874802544,5.13856757634264,5.444626952824128
5.365094802381707,4.629436616896525,5.193013845870881,5.5895477056242076
5.411389168550672,4.610436357354327,5.2489093229271235,5.7318626514062165
5.457493532124215,4.5907856918758405,5.306227949441186,5.869869922660696
5.503401389042974,4.571672030594734,5.364926648667793,6.001745861278543
5.549118109348921,4.554400079321503,5.424944107280578,6.125567008888363
5.594662110142136,4.540363232522392,5.486199777369462,6.239342503331192
5.6400657424673595,4.531002526913408,5.548593202402774,6.341058546649706
5.685375767736494,4.527752881717087,5.612003787869271,6.428735608372879
5.7306532965536645,4.531977959817251,5.676291143953,6.500497404225292
5.775973076151837,4.54489700086343,5.741296117995253,6.554648559137683
5.821422046160472,4.567509089547402,5.80684260358663,6.589755566118778
5.867097137055946,4.600522038593994,5.872740159247818,6.604723746420409
5.913102357441886,4.644293821375933,5.938787396712022,6.5988620515769725
5.959545295655645,4.698793834970794,6.004776017227791,6.571928238379011
6.006533234005353,4.7635890926414275,6.070495299611581,6.524149315766442
6.054169124931767,4.837857075704832,6.135736792769245,6.456215789355357
6.102547695688815,4.920423167155114,6.200298950662799,6.369252228263905
6.151751927360366,5.009817260526271,6.263991472945438,6.26476999544914
6.201850099965629,5.104342047640178,6.32663917289993,6.1446097883554645
6.252893520442031,5.2021449885855535,6.388085270783485,6.010881618730403
6.304914970327887,5.301286932924775,6.448194086970789,5.865908271828755
6.357927839657134,5.399802322788984,6.506853169689077,5.7121757613409585
6.411925862885024,5.495748274341323,6.563974927302486,5.552291568535086
6.466883345628437,5.58724209147391,6.619497842987837,5.388949109331711
6.522755766543177,5.672488585280621,6.673387334081154,5.224895245897035
6.579480652395983,5.749799810342375,6.725636286540124,5.062896852558069
6.636978650499406,5.817610464090005,6.776265255065704,4.90570242156922
6.695154755140306,5.874492261092811,6.825322279281396,4.755995369686125
6.753899677751234,5.919170128752264,6.872882232978258,4.616337008807873
6.813091379038757,5.9505421128008,6.919045603066336,4.48909900795182
6.8725968001667646,5.967703498142392,6.963936593145855,4.376387489829665
6.932273835148188,5.9699739893869275,7.007700468044151,4.279963444127828
6.991973575042057,5.956925119096719,7.0505001024854295,4.201166498055842
7.051542826233025,5.928403733201429,7.092511767465988,4.140850701841332
7.110826863565039,5.884546848015079,7.133920274484401,4.099341266467831
7.16967233204519,5.825783679688613,7.17491368714908,4.076419719307021
7.227930168842076,5.75282225120873,7.21567788434215,4.07134172259054
7.2854583913541635,5.666620375977589,7.256391301568056,4.0828873708770494
7.3421245951139396,5.56834340404061,7.297220175276826,4.109439133404913
7.397808029154346,5.459313209575422,7.338314566610875,4.149078857264931
7.4524011612501,5.340953971129203,7.3798053551835245,4.199693256678694
7.505810700961392,5.214740170208293,7.421802287750311,4.259077387068571
7.557958102663475,5.082151102776446,7.464393061620997,4.325027442282805
7.608779613691239,4.944634502477669,7.507643336043825,4.395417110552867
7.658225958716016,4.803580106454995,7.551597507149353,4.468254865500091
7.706261759780566,4.660302534671049,7.596280055804354,4.541722298972949
7.752864785127277,4.516031893564603,7.641697278794084,4.614195560889482
7.798025104062923,4.371910070219106,7.687839234402978,4.6842530815499215
7.841744204765114,4.228990655392377,7.734681765218477,4.750673133975313
7.884034111319037,4.088240680618966,7.782188496558231,4.81242465487768
7.924916518125227,3.950542742606866,7.830312743107007,4.868654292703079
7.964421945551296,3.816696518462163,7.878999286034038,4.918672056167908
8.002588910735918,3.6874190884350533,7.928186006595717,4.961937306805253
8.03946310162027,3.563343851026762,7.97780537966377,4.99804623547493
8.075096540130536,3.445018129797235,8.027785842018519,5.026721414240951
8.109546721428508,3.332899830921547,8.078053056160929,5.047803534245565
8.142875719737724,3.2273537133504284,8.128531091503385,5.061245036755332
8.175149256871228,3.128647972170147,8.179143541870939,5.0671050316683
8.20643573659293,3.0369518985387263,8.229814592187623,5.0655446932430594
8.236805255578316,2.952335353882024,8.280470039120054,5.0568222445625555
8.266328609117137,2.8747706751079893,8.331038261565679,5.041286700575745
8.295076315868217,2.804137416883991,8.381451128571436,5.019369728983
8.323117690037057,2.74023005806645,8.431644825861266,4.991575282344854
8.350519990617721,2.682768489092452,8.481560578684714,4.958467006988055
8.377347675508647,2.631410801838725,8.531145248754594,4.92065378521181
8.403661783527033,2.5857676689423688,8.580351786606712,4.878774057411046
8.429519460216456,2.5454174605524575,8.629139527180824,4.833479753932413
8.45497363482198,2.5099212186651347,8.677474324720148,4.7854207202710475
8.480072847008632,2.478836686853286,8.725328531922859,4.735230448074051
8.504861213877165,2.451730752486052,8.7726808364036,4.683513755698155
8.529378521402025,2.4281898650089713,8.819515973960582,4.6308368365997525
8.553660420052115,2.4078282113796106,8.86582434232658,4.577719854784848
8.577738702165911,2.3902936279435276,8.911601540874427,4.524632050103897
8.601641638445347,2.3752713866470443,8.956847861375467,4.471989146146695
8.625394352311817,2.3624861033968485,9.001567752836934,4.4201527401565315
8.649019213345786,2.3517020779619786,9.045769280238499,4.369431296614452
8.672536234125406,2.342722394918703,9.089463593204643,4.3200823551933585
8.695963458074592,2.3353871038629808,9.132664416756576,4.2723155872546075
8.719317329113222,2.329570765150364,9.175387572629122,4.226296380146962
8.742613036764725,2.3251796042877144,9.217650536430591,4.182149684123648
8.765864832807603,2.3221484712561695,9.259472033271829,4.139963914220015
8.789086317520164,2.320437755690475,9.30087167241403,4.099794753237029
8.812290695077069,2.320030368137393,9.341869619946399,4.061668748816807
8.835490998758443,2.3209288631115252,9.382486307434567,4.025586636129285
8.858700287389558,2.3231527517588573,9.422742173795859,3.9915263478643714
8.881931814907146,2.3267360302952835,9.462657437274503,3.9594456957738444
8.905199175210099,2.331724934278135,9.502251894232241,3.9292847240524433
8.92851642455288,2.338175917297115,9.541544741472766,3.9009677456257936
8.95189818372585,2.3461538449278967,9.580554418929024,3.8744050791120723
8.97535972217513,2.355730389942428,9.619298469720144,3.8494945078938443
8.998917026074555,2.3669826120966984,9.657793414799082,3.8261224842509676
9.022586852195522,2.3799917047306494,9.696054639641591,3.804165101562381
9.046386769242828,2.3948418904513016,9.734096290657215,3.783488856719899
9.070335188147341,2.411619448974784,9.771931179224413,3.7639512235089128
9.09445138263709,2.4304118615143935,9.809570691459502,3.745401056085088
9.118755501252233,2.4513070577341565,9.847024702020352,3.7276788400106216
9.143268571829575,2.4743927531140213,9.884301490420459,3.710616806739077
9.168012499360715,2.4997558665126847,9.92140765848785,3.6940389260350703
9.193010058025843,2.5274820097202,9.958348047748201,3.6777607896283198
9.218284878123045,2.55765504284282,9.995125655644484,3.661589398448867
9.243861428551472,2.5903566914524725,10.031741549628974,3.645322865070914
9.269764995465998,2.6256662235702617,10.068194778279683,3.6287500424926398
9.2960216577017,2.6636601867520135,10.104482278704609,3.6116500900748223
9.32265825956922,2.704412207822533,10.140598779605357,3.593791987321102
9.349702381647445,2.7479928601827432,10.176536699478568,3.5749340061706882
9.377182310249273,2.7944696061069907,10.212286039540276,3.55482315254931
9.405127006310343,2.8439068240684984,10.247834271065768,3.533194588042107
9.433566074551027,2.896365933883681,10.283166216946189,3.5097710426673365
9.462529733889864,2.9519056353446556,10.318263927372861,3.484262229797673
9.492048790243311,3.0105822789931964,10.353106549670837,3.456364274257353
9.522154613033242,3.0724503907386547,10.387670192413411,3.4257591644916006
9.552879116940629,3.1375633750708642,10.421927784058328,3.3921142394561334
9.584254750691338,3.2059744245650217,10.455848926452889,3.355081720545691
9.616314494936988,3.277737666067566,10.489399743658346,3.3142982985738714
9.649091871597664,3.352909576168612,10.522542726644085,3.2693847857386578
9.68262096735935,3.4315506999845975,10.555236574501471,3.2199458430266534
9.716936474359196,3.513727707423091,10.587436032931738,3.165569795237874
9.752073751433427,3.59951581928769,10.619091730884117,3.1058285497367626
9.788068909626304,3.6890016307802753,10.650150016381485,3.040277642695371
9.824958925934107,3.782286350643084,10.680552792808438,2.9684564503649833
9.862781789440538,3.8794894580614327,10.710237357312089,2.8898886264076187
9.901576684021153,3.9807527530591904,10.739136243576164,2.804082865003177
9.941384211551744,4.086244734222287,10.767177072226195,2.7105341515392953
9.982246658893967,4.196165172230421,10.794282413741588,2.6087257604976415
10.02420831061627,4.310749646813944,10.820369671346564,2.4981324120325024
10.067315807084409,4.430273660187089,10.84535099546689,2.3782252319363435
10.11161854368628,4.555055704474454,10.869133247786253,2.248479514289302
10.157169100731025,4.685458303814979,10.891618042929146,2.108386820299811
10.204023683769174,4.821885515311875,10.912701911132144,1.9574737433050877
10.252242538922292,4.964774575248818,10.932276648565194,1.7953308415525453
10.30189028467478,5.114578211039353,10.95022995698072,1.621656931191309
10.353036066785174,5.271732481284168,10.966446526292634,1.436326300585735
10.405753391598015,5.436602752774581,10.98080978929849,1.2394895666598118
10.46011941912576,5.609397597472873,10.993204684965088,1.0317227504187407
10.51621339510049,5.790037392935597,11.003521912469274,0.814243031315747
10.574113769029845,5.977962522986511,11.011664342782431,0.5892115530211307
10.63389339425971,6.171868385268847,11.017556458312642,0.36013896925313654
10.695612078112399,6.369367042321462,11.021157848005174,0.13238912669407019
10.759305748535613,6.566608153185647,11.022481739272115,-0.0862738858212991
10.82497183006747,6.75795546803818,11.021619000413901,-0.285245245727284
10.892551384747852,6.935908415537,11.018766547956629,-0.45103276054976904
10.961910468903222,7.091540166904618,11.01425622035113,-0.5680099114060855
11.032825870572267,7.215685966393646,11.00857612123707,-0.6203153941066397
11.104982730236204,7.300822771253214,11.002372967296003,-0.5948107839067934
11.177990957948737,7.343053122274944,10.996424859456935,-0.48422413333354636
11.251421489171486,7.343219519742519,10.9915826181236,-0.28902363155895916
11.324853684368911,7.306451860950232,10.98869238180801,-0.016949740403602753
11.397918202978413,7.240360118605798,10.988522884403974,0.3195366756609433
11.470321804164472,7.152842737178609,10.991718251160583,0.7064908038513784
11.541850231536259,7.050446472841087,10.998783159199096,1.1310078401311774
11.612354696264669,6.937620965727295,11.010093237600408,1.5824776550553366
11.681730905921942,6.816691268432146,11.025918014150962,2.0527836072791343
11.749897818606263,6.688204842759706,11.046445850223753,2.5359299241558046
11.81677986703386,6.551383947791992,11.07180514946531,3.027495947652966
11.88229370651178,6.404544314574215,11.10208010894184,3.524135700845917
11.946339149657522,6.2454349461892855,11.137321465950299,4.023204248037865
12.008793499119415,6.071500330247353,11.177553508430677,4.5225199173924
12.069508502421888,5.880081714193992,11.2227787076046,5.020242991784838
12.128309319563828,5.668574727713872,11.272981137522448,5.514844612970953
12.184995066840967,5.434556363155952,11.328129583652158,6.005140675869201
12.239340630472526,5.175889878598253,11.38818099041085,6.490367883139559
12.291099529258508,4.890813667004113,11.453084669242246,6.970280234721326
12.34000766592855,4.578020671105053,11.52278747158946,7.445242860603676
12.3857878726396,4.2367396288303,11.597239900195497,7.916295076616551
12.428155268927902,3.8668399958372186,11.676402850961662,8.385143635211316
12.466823668886274,3.469001565419757,11.760254287313774,8.85402623083898
12.501513684540472,3.045021699451657,11.848794549622164,9.325347739371802
12.531963901534988,2.598382219503653,11.942048027015883,9.800929154559306
12.557947723730024,2.1352635813107,12.040057318561475,10.280619123785074
12.579300359543131,1.6662493764582331,12.142863509799326,10.759930557005333
12.595962853307714,1.2089013802229611,12.25046281536938,11.226418651886563
12.608051867109944,0.7909089869116157,12.362727001888246,11.65510631152052
12.61596095697906,0.4521065896602802,12.47927806500345,12.005103120276862
12.620482022875663,0.24120774796844985,12.599329096206219,12.222837793821551
12.622894100355348,0.20224119763620005,12.721557474144435,12.258578586368989
12.62491651233171,0.3528447050351172,12.844143260008124,12.093519874990122
12.628444959382062,0.6708923039198187,12.965078458758025,11.755940696189068
12.63515388242126,1.1051636902429722,13.082637865719915,11.306511041066896
12.64620551932369,1.6004827312191927,13.195702976130585,10.806300408247733
12.662210346635883,2.114991018970641,13.303765980213063,10.296473186483237
12.683360256825589,2.622992555860673,13.406730712077895,9.796818798031785
12.709590182384195,3.1106163030268403,13.504698900058212,9.312767346891098
12.740696345414463,3.570920334515237,13.597826573527124,8.842334876369284
12.776405548759616,4.000589822912355,13.686249922290816,8.380583497091134
12.81641144698874,4.398129963302593,13.770055757261728,7.9219988282419465
12.860392746621766,4.76299972090275,13.849275745544148,7.461620774407602
12.908022743830793,5.095250650090784,13.923891953288225,6.995518030426407
12.9589752503317,5.395409878147921,13.993847133592489,6.5209325728126375
13.01292934911318,5.66446572183315,14.059056459320615,6.036256974894625
13.069574006331512,5.903882696120423,14.119419029069562,5.540922910086278
13.128612833292717,6.115609890236513,14.174828258170425,5.035239869979981
13.189768932195083,6.302067059801301,14.225180656870226,4.520206621554753
13.252789602793095,6.466104095815001,14.270382723085774,3.9973120612205744
13.317450643751245,6.610935557834981,14.31035584369798,3.4683407442012655
13.383559999329595,6.740054375508933,14.345039251139992,2.9351986747833525
13.450960543084685,6.857128276335734,14.374391237887826,2.399776044651791
13.519531825848043,6.965879109588337,14.398388998334344,1.8638658070327891
13.589190616943926,7.069938786259062,14.417027656404672,1.3291613988775866
13.659890004806517,7.172665553907973,14.430319270393447,0.7973652109430429
13.731616660345596,7.27689027137556,14.438292922502878,0.27045310860307403
13.804385563059352,7.384544762517562,14.440997453588908,-0.24884080370465944
13.878231010684528,7.496107880721132,14.43850904555186,-0.7562375123813778
13.95319208949174,7.609806037065575,14.430946670428048,-1.2447506417121563
14.029290149862396,7.72056617005894,14.418499164010926,-1.703168574553735
14.106495811562985,7.8189234234189735,14.401467478265388,-2.114500205861566
14.184685045797174,7.890526460929553,14.380322476206773,-2.4553366026623373
14.26359031040647,7.9174718217386415,14.35576911018015,-2.6979142482099263
14.342765028623855,7.882748588904221,14.32878996769805,-2.8167079213347357
14.421592514512897,7.7773026027543555,14.300622888484703,-2.79879497867461
14.49936554054044,7.6057513700835635,14.272634938697957,-2.652199276426331
14.575423054241275,7.38568399281013,14.246112945933694,-2.4048293004561625
14.649279894169377,7.140414791708433,14.222064652929133,-2.0937544641911803
14.72068404208646,6.890845798367222,14.20112710828722,-1.7530106280310593
14.789592500070134,6.651315903897569,14.18359700200691,-1.407134140770112
