th1 (rad),w1 (rad/s),th2 (rad),w2 (rad/s)
3.183225557139171,-1.64170834351938,1.2302691432031396,-0.26108579418652883
3.166808473703977,-1.6511643337192814,1.2276582852612743,-0.33197711540230257
3.150296830366784,-1.6619423480635267,1.2243385141072514,-0.40271036876490157
3.133677406886149,-1.6741094964607615,1.2203114104196024,-0.473221648495814
3.1169363119215414,-1.6877336938338159,1.2155791939346443,-0.5434424134560831
3.1000589749832033,-1.7028833079594046,1.2101447698000836,-0.6132992186493524
3.0830301419036092,-1.7196267977245328,1.2040117776135901,-0.6827134399618563
3.0658338739263638,-1.7380323401292201,1.1971846432139717,-0.7516009879332761
3.0484535505250716,-1.7581674447807496,1.189668633334639,-0.8198720069294487
3.030871876077264,-1.7800985550329378,1.1814699132653443,-0.887430556700813
3.0130708905269348,-1.8038906353399562,1.1725956076983362,-0.9541742739730849
2.995031984173535,-1.8296067448337168,1.1630538649586053,-1.019994012441096
2.976735916725198,-1.8573075976130597,1.1528539248341942,-1.084773460333164
2.9581628407490674,-1.8870511107687165,1.1420061902308627,-1.1483887355897349
2.9392923296413804,-1.918891941777377,1.1305223028749654,-1.210707959661721
2.9201034102236068,-1.9528810175983466,1.1184152232783482,-1.2715908119833446
2.9005746000476234,-1.9890650586141283,1.1056993151585148,-1.330888068310153
2.880683949461482,-2.0274861014880585,1.0923904344754134,-1.3884411273296626
2.860409088446602,-2.0681810260827644,1.0785060232021169,-1.4440815312390158
2.8397272781857743,-2.1111810928057726,1.0640652078897268,-1.4976304873239419
2.8186154672577164,-2.156511498133386,1.0490889030164874,-1.5488983989414484
2.7970503522763823,-2.204190957617722,1.0335999190270728,-1.5976844156710999
2.775008442700205,-2.2542313274067842,1.0176230748703619,-1.6437760137118305
2.7524661294261374,-2.3066372772002555,1.0011853147332435,-1.6869486188057625
2.729399756654135,-2.3614060296143964,0.9843158285451858,-1.7269652849958395
2.705785696357991,-2.418527183120565,0.9670461756952274,-1.7635764432823555
2.6816004245267853,-2.477982638027598,0.9494104112624039,-1.7965197346287805
2.6568205981465094,-2.53974664736409,0.9314452139161161,-1.8255199416542771
2.6314231316728685,-2.603786016939154,0.9131900144995734,-1.8502890325931727
2.605385271503477,-2.6700604812682984,0.8946871241736416,-1.870526329533695
2.578684666690794,-2.73852328438709,0.8759818608783047,-1.8859188103826896
2.551299433846923,-2.8091219967787735,0.8571226727744777,-1.8961415502345373
2.523208213879135,-2.881799601653997,0.8381612572721323,-1.9008583026307873
2.494390217862595,-2.956495885591038,0.8191526742458244,-1.8997222143518178
2.464825259006685,-3.033149170041147,0.8001554521023062,-1.8923766586498079
2.4344937673062734,-3.111698421423943,0.7812316855158081,-1.8784561609860826
2.403376783092034,-3.192085778526167,0.7624471239059473,-1.8575873781648244
2.371455925306772,-3.2742595367816834,0.743871250124299,-1.8293900760775141
2.3387133299389555,-3.35817762994546,0.7255773493635238,-1.793478032948606
2.3051315536395007,-3.4438116509819343,0.7076425690340378,-1.7494597739185567
2.2706934371296814,-3.53115145610309,0.6901479712948522,-1.6969390189994729
2.2353819225686506,-3.6202103993992565,0.6731785811048574,-1.6355146999571342
2.1991798185746583,-3.7110312511529617,0.6568234341052861,-1.5647803726751086
2.1620695060631285,-3.803692861613293,0.641175630378535,-1.48432282033222
2.1240325774469957,-3.898317644746074,0.6263324021752128,-1.3937196097462228
2.085049400999535,-3.9950799742823535,0.6123952060777506,-1.2925353292790662
2.0450986012567114,-4.094215608079941,0.5994698527849599,-1.1803162030908039
2.004156445175912,-4.196032286601823,0.5876666907540519,-1.056582745657613
1.962196122309894,-4.300921686067488,0.5771008632974758,-0.9208200967702519
1.9191869054492192,-4.409372942710155,0.5678926623297733,-0.7724656690717584
1.8750931760221177,-4.5219879925448305,0.5601680056390558,-0.6108937634171154
1.8298732960966693,-4.639498972332815,0.5540590680048846,-0.43539689182518815
1.783478306373341,-4.762787865058609,0.5497050990866327,-0.24516374962008414
1.7358504277227549,-4.892908376510355,0.5472534615904319,-0.039254202222368306
1.6869213439576514,-5.031109565145847,0.5468609195682081,0.1834275073644167
1.6366102483061928,-5.178859765889952,0.5486951946418523,0.42415850621490014
1.5848216506472934,-5.33786738587648,0.5529367797040013,0.6844161084263587
1.5314429767885287,-5.510091349904156,0.5597809407882649,0.9658780888194234
1.476342063289487,-5.697726776071791,0.5694397216764592,1.2703821998215226
1.4193647955287692,-5.903138105766004,0.5821435436746744,1.5998033553859115
1.360333414471109,-6.128687776087743,0.5981415772285334,1.9557723293058373
1.2990465367102315,-6.376366808286014,0.6176993005215918,2.3391006481359695
1.2352828686273714,-6.6470676181309525,0.6410903070029516,2.748683607453058
1.1688121924460617,-6.939254143732699,0.6685771430774822,3.1795356788117246
1.0994196510087346,-7.2467378615232585,0.7003724998655995,3.6195543919022466
1.026952272393502,-7.555471456943855,0.7365680437846219,4.044912919068279
0.9513975578240635,-7.840223928703107,0.7770171729753047,4.4153588890289
0.8729953185370325,-8.064252143576399,0.8211707618655937,4.673923928446348
0.7923527971012685,-8.18743237475837,0.8679100011500571,4.758895807921084
0.7104784733536847,-8.184889889434267,0.9154989592292679,4.63098770229885
0.6286295744593421,-8.064445891463322,0.9618088362522564,4.298977235558144
0.5479851155447089,-7.863761519937745,1.004798608607838,3.8162493984385533
0.4693475003453314,-7.6283934374454505,1.0429611025922234,3.2495331786544233
0.3930635659708769,-7.392770410230678,1.0754564343787676,2.6511674452098477
0.3191358618685701,-7.175520534887689,1.1019681088308662,2.0516756260936866
0.2473806565196932,-6.983452779149126,1.1224848650918031,1.4649491131887484
0.17754612872820194,-6.816697341118844,1.1371343562236906,0.8954041807279551
0.1093791553170135,-6.672229108583546,1.1460883980309702,0.3430246468494673
0.04265686423117804,-6.54577684504029,1.149518644499465,-0.1938271179223523
-0.02280090421922487,-6.432730060348694,1.1475803733202414,-0.7170257339401493
-0.08712820482271182,-6.328526505195221,1.14041011598084,-1.2280663566605434
-0.15041346987466403,-6.2287981577508456,1.1281294524142345,-1.7278318994240343
-0.21270145145217248,-6.129417112874141,1.1108511334199942,-2.2165464896226976
-0.2739956225809139,-6.026508674697995,1.0886856685237671,-2.6938198761957795
-0.33426070932789387,-5.9164616122708695,1.0617474697618094,-3.158738388156774
-0.39342532545060255,-5.795947134917577,1.0301600858802418,-3.609981907019872
-0.45138479679977833,-5.66194898736714,0.994060266810043,-4.045956725350006
-0.5080042866734498,-5.511802372223729,0.9536006995565429,-4.464938098616377
-0.563122310395687,-5.343236946822391,0.9089513185703791,-4.865217279448725
-0.616554679863911,-5.154417923225898,0.860299145775892,-5.245247652714655
-0.66809885909617,-4.943978912692828,0.8078466692487454,-5.603784213053268
-0.7175386482230982,-4.711040437719293,0.7518088271182127,-5.94001054893522
-0.7646490526002911,-4.455208910788882,0.6924087216288606,-6.253647975058545
-0.8092011417081799,-4.176552278486072,0.6298722418782752,-6.545042581947119
-0.8509666644930406,-3.8755503446465167,0.5644218160588039,-6.8152277170365965
-0.8897221679395058,-3.553019856978827,0.49626953888843794,-7.065961632977122
-0.925252366509294,-3.2100165681979664,0.4256099225586667,-7.299742487152025
-0.9573525321912737,-2.8477184682534347,0.3526124976871464,-7.5198051970272966
-0.985829716873808,-2.4672961160075677,0.27741444571687346,-7.730106381246858
-1.0105026780338837,-2.0697775760508783,0.20011338190440486,-7.935304119197397
-1.0312004537943924,-1.6559173964127503,0.12076034071243089,-8.140737605633884
-1.04775962775852,-1.2260825832475546,0.039352964656092046,-8.352406339955998
-1.0600204535909954,-0.7801761925629933,-0.04417109874346793,-8.576936140423552
-1.0678222155166253,-0.3176359479423017,-0.12994046014770344,-8.821493717507312
-1.0709985749960482,0.16241935802577395,-0.21815539732277656,-9.093560281556494
-1.0693743814157906,0.6607520352167748,-0.3090910001383415,-9.400374300841186
-1.0627668610636227,1.1769996092971597,-0.40309474314675336,-9.747666115215694
-1.0509968649706511,1.7076045090093817,-0.5005714042989103,-10.13699444191647
-1.0339208198805574,2.2419277145718324,-0.601941348718075,-10.560618054953634
-1.011501542734839,2.755904510312783,-0.7075475292676113,-10.99293175929081
-0.9839424976317113,3.2044540270452724,-0.8174768468605195,-11.379954261055342
-0.9518979573612585,3.519869344155577,-0.9312763894710729,-11.6365408131974
-0.9166992639197027,3.6313264168561035,-1.047641797603047,-11.671895441270355
-0.8803859997511416,3.509829464764009,-1.1643607520157506,-11.449328864413818
-0.8452877051035015,3.1985615617676806,-1.2788540406598887,-11.025996626694761
-0.8133020894858247,2.7835382103504904,-1.3891140069268364,-10.512540155880837
-0.7854667073823198,2.3395813087945827,-1.4942394084856447,-10.00159450390366
-0.762070894294374,1.9084889418002517,-1.5942553535246813,-9.540984842704027
-0.7429860048763715,1.5064420296240104,-1.6896652019517215,-9.145397302368515
-0.7279215845801313,1.136383082885661,-1.7811191749754067,-8.813417955227324
-0.7165577537512747,0.7959125734090852,-1.86925335452768,-8.537892371448617
-0.7085986280171839,0.4810512777081612,-1.9546322782421661,-8.310593999665633
-0.7037881152401022,0.18777111216088593,-2.0377382182388226,-8.123950862936944
-0.7019104041184934,-0.08747603473985799,-2.118977726868192,-7.971515656574202
-0.7027851644658919,-0.3476374640192045,-2.198692883433934,-7.847962603725337
-0.7062615391060839,-0.5950895947675259,-2.277172509471187,-7.748935478739451
-0.7122124350537592,-0.8317136998533612,-2.3546618642585817,-7.6708708261813054
-0.7205295720522928,-1.058977170375115,-2.431370572520395,-7.610838712914746
-0.731119343756044,-1.278006578005409,-2.5074789596495424,-7.56641169926518
-0.7438994095360981,-1.4896492927306566,-2.583143076642194,-7.535561336243802
-0.7587959024634047,-1.6945242565318503,-2.6584986900046323,-7.51657806495649
-0.7757411450287232,-1.8930636631195263,-2.733664470654197,-7.50800991832627
-0.7946717816599185,-2.0855473963452953,-2.80874456983746,-7.508615921306875
-0.8155272556233715,-2.2721318136772086,-2.8838307290505285,-7.517330795165059
-0.8382485737601436,-2.4528740987263022,-2.9590040370021793,-7.533238227969374
-0.8627773147474066,-2.627753052120033,-3.034336419281873,-7.555550504561754
-0.8890548452686069,-2.7966868783807435,-3.1098919243274903,-7.583592694476862
-0.9170217140524143,-2.9595482668620545,-3.185727851272259,-7.616789898250174
-0.9466171967210348,-3.116176857185809,-3.2618957502547605,-7.654656278331436
-0.9777789652928929,-3.2663890216621287,-3.3384423130380747,-7.696784774769968
-1.0104428555095142,-3.4099847864206554,-3.4154101607857745,-7.742836547604132
-1.0445427033737207,-3.5467516473234864,-3.492838526261816,-7.792529312199453
-1.0800102198469554,-3.676465014318964,-3.5707638193838105,-7.845623851115172
-1.1167748699901452,-3.7988850371436387,-3.6492200578949623,-7.901908103808876
-1.1547637203615815,-3.9137496252288764,-3.728239138933051,-7.96117835942864
-1.1939012166138703,-4.020763575783079,-3.8078509225273374,-8.023217214255025
-1.234108852371701,-4.1195838693255835,-3.8880830946698874,-8.087768112698582
-1.2753046910649568,-4.209801388265108,-3.9689607757968735,-8.154506482439194
-1.3174027049476078,-4.290919572969308,-4.050505840621265,-8.223007720029223
-1.3603119006773008,-4.362330867344087,-4.132735917821558,-8.29271260993269
-1.4039352093507416,-4.4232922411882,-4.215663043920885,-8.362891200299229
-1.4481681317626236,-4.472901626388937,-4.299291955923877,-8.432606746898134
-1.492897148026513,-4.510077774031325,-4.3836180233928586,-8.500682098517967
-1.5379979257668261,-4.533546809500953,-4.468624844378038,-8.56567183422452
-1.5833333938618357,-4.541839566189757,-4.554281562720283,-8.62584452787917
-1.6287517895237333,-4.533304478528663,-4.640540007999075,-8.679180581257604
-1.67408483430902,-4.506141182871407,-4.7273318138116505,-8.723391895662946
-1.719146246137734,-4.458459683635361,-4.81456573276828,-8.755969875255841
-1.7637308429740877,-4.388368598161101,-4.9021254315208385,-8.774267394984674
-1.8076145289556986,-4.294093225877724,-4.989868105470685,-8.775617919067148
-1.850555461214476,-4.1741198112067766,-5.077624284661357,-8.757490571503508
-1.8922966593265436,-4.02735660814124,-5.165199190376392,-8.717673696773213
-1.932570225407956,-3.853296042470538,-5.252375927344125,-8.654472042108344
-1.9711031858326613,-3.6521569085967904,-5.3389206477652085,-8.566895685009976
-2.0076247549186292,-3.4249830634232623,-5.424589604615308,-8.454814383412122
-2.0418745855528617,-3.173677248170482,-5.5091377484494295,-8.319051314771643
-2.0736113580345665,-2.9009562398472886,-5.592328261597146,-8.161396460613721
-2.1026209204330395,-2.6102255901188265,-5.673942226203283,-7.984531699677356
-2.1287231763342276,-2.305386077776873,-5.7537875432000565,-7.791874506016001
-2.151777037111996,-1.9905960090350039,-5.831706288260216,-7.587361169690494
-2.171682997202346,-1.6700203285760085,-5.907579899957121,-7.375199870640756
-2.188383200488106,-1.3475974921595744,-5.981331898663529,-7.159626454675382
-2.2018591754097017,-1.0268487675548188,-6.052928163210283,-6.944691398290381
-2.21212766308525,-0.7107444549777058,-6.122375077193187,-6.734097271555939
-2.219235107635027,-0.4016305382356838,-6.189716049908746,-6.531095084297276
-2.2232514130173837,-0.10121012019405823,-6.255027000751719,-6.33843807675084
-2.224263514219324,0.18943187969346448,-6.318411381519227,-6.158384585700913
-2.2223691954223894,0.4697746761357226,-6.379995227376236,-5.992738112688705
-2.217671448661032,0.739791711641623,-6.439922608503124,-5.8429121956797365
-2.210273531544616,0.9998762315561102,-6.4983517304599205,-5.7100092003527765
-2.2002747692290545,1.2507708068146124,-6.555451822463448,-5.594904704981355
-2.1877670611609084,1.4935064391877417,-6.611400869513262,-5.498331961449575
-2.172831996769031,1.729354527474757,-6.666384189127758,-5.420963474024678
-2.1555384514942832,1.9597932548144077,-6.720593823868005,-5.3634888085466
-2.135940518946139,2.18648885443933,-6.774228711953471,-5.3266892668004555
-2.1140756304017456,2.4112915920132094,-6.827495604621475,-5.311511055632186
-2.0899627144816133,2.636245968051914,-6.880610715177797,-5.319139060672163
-2.063600254801094,2.8636143223600175,-6.933802105784519,-5.351073206839146
-2.034964111577494,3.0959123017091295,-6.987312837852911,-5.40920831372776
-2.0040049885604025,3.335952809830736,-7.041404920990188,-5.495915500872446
-1.970645460462095,3.5868907075945007,-7.096364075998912,-5.61411674480174
-1.93477655338615,3.852250905140085,-7.15250524344693,-5.76733033658183
-1.8962540443347493,4.135902063259103,-7.210178546812748,-5.959636025566325
-1.8548950237021582,4.441896154668386,-7.2697749070684115,-6.195449476453112
-1.8104760621554743,4.774011147496154,-7.331729401832942,-6.478878866547327
-1.7627359506805127,5.134680668338706,-7.396518190498416,-6.81222040939628
-1.7113891439971256,5.522750601670449,-7.4646403945923785,-7.19280526308124
-1.6561616379804212,5.929263406648211,-7.536568447223191,-7.607069552611933
-1.596869003913939,6.330803862046669,-7.61263914274931,-8.021176134085335
-1.5335609652934723,6.68255016053331,-7.692850904090164,-8.37116529676541
-1.4667354636881391,6.920158853507842,-7.776562557057818,-8.565407978142055
-1.3975338751530606,6.985084648457497,-7.862216636839238,-8.519847409274526
-1.3276830286684855,6.867933857816358,-7.947415110931984,-8.218554426281447
-1.2590036900903219,6.622732468560117,-8.029600655194798,-7.733771741759325
-1.1927763654047208,6.327227491395042,-8.106938372612392,-7.170769377367257
-1.1295040904907703,6.039033368175726,-8.178646066386065,-6.607012312514933
-1.069113756809013,5.786061615270673,-8.244716189511214,-6.078991081626538
-1.0112531406563063,5.576680019979285,-8.305506100327479,-5.596323148386174
-0.9554863404565135,5.410197608470536,-8.36146933181134,-5.156213803546598
-0.9013843643718081,5.282766788539091,-8.413031469846807,-4.7515493741505
-0.8485566964864172,5.189986196294502,-8.460546963588312,-4.374441254943748
-0.7966568345234721,5.127862326956394,-8.504291376137749,-4.017525098754469
-0.7453782112539082,5.09307034799611,-8.544466627125294,-3.674314827832586
-0.6944475077739471,5.082944531552669,-8.58120977540362,-3.3392044790332704
-0.6436180624584205,5.0953772151851515,-8.614601820193952,-3.007364591373888
-0.592664290306569,5.128695323257819,-8.64467546610769,-2.6746295232605384
-0.5413773370739908,5.181538172635525,-8.671421761340296,-2.3374103795471526
-0.4895619553476356,5.252742585327211,-8.694795865135768,-1.9926437997199893
-0.43703452949436344,5.341235212380087,-8.714722303132968,-1.6377773742160344
-0.3836221773705626,5.445930768457918,-8.731100076875128,-1.2707884824193878
-0.3291628696859834,5.565635859350783,-8.743807961699321,-0.8902309301798954
-0.2735065110924756,5.6989601106550225,-8.75271027100112,-0.4953013143652738
-0.21651690998592538,5.844238778737161,-8.757663284144773,-0.08591409698418834
-0.15807452219855378,5.999473431096606,-8.758522425114615,0.33722883415771554
-0.09807978788758773,6.162298998287288,-8.755150136773038,0.7725910353155105
-0.036456797904714844,6.329985781804732,-8.747424226419882,1.2177947389457358
0.02684305991333248,6.499483155683466,-8.735246279030425,1.669670440033477
0.09183789147016715,6.667507378319556,-8.71854957463009,2.1243730364335605
0.15851296525336273,6.830669479579136,-8.697305844265754,2.577565140413157
0.2268196600491541,6.9856318232272985,-8.671530192861622,3.024656238331585
0.2966759782814271,7.1292755796574685,-8.641283630478307,3.461074795454717
0.3679687340780018,7.258857995433131,-8.60667288252376,3.8825424313946786
0.4405573140323331,7.372139318410351,-8.567847458209814,4.285317484960804
0.5142787072164366,7.467464492419563,-8.524994283360206,4.666380389606472
0.5889533521406323,7.5437928298372885,-8.478330479464141,5.023543832382531
0.6643912804390052,7.60067752998321,-8.428095041140315,5.3554835970503305
0.7403980557388373,7.638203942417212,-8.374540205169811,5.661697863729913
0.8167800951630094,7.656899527328044,-8.317923226532512,5.942411007163296
0.8933490904362898,7.657629316260031,-8.258499116460879,6.1984416018225446
0.9699253835988901,7.641489009101132,-8.196514700442654,6.431053863537287
1.0463402736899015,7.609704766469712,-8.13220416180728,6.641808474038801
1.1224373213545986,7.563545340115499,-8.065786077066893,6.832424189026566
1.1980727747557536,7.504249182063184,-7.997461835176627,7.004657080056717
1.2731152665763854,7.432966958638837,-7.92741526437606,7.160200478085982
1.3474449361627738,7.350718531860935,-7.8558132595952,7.300605982658583
1.4209521214813832,7.258362835368638,-7.782807199768614,7.427224260445945
1.4935357498350696,7.15657896716813,-7.708534957164154,7.541163591137377
1.565101539506751,7.045857046686739,-7.63312332125278,7.643263981365994
1.6355601099736183,6.9264977710804505,-7.55669068143912,7.734084923724102
1.7048250876844229,6.798620028036038,-7.479349832201879,7.813905333280901
1.7728112879647833,6.662176286403395,-7.40121077886907,7.88273469703854
1.8394330508288173,6.516975722986958,-7.322383431898685,7.940334906264738
1.9046028080586868,6.362715100839592,-7.242980082836038,7.986252516507892
1.9682299590670826,6.199017251876006,-7.163117557670959,8.019861223360785
2.0302201315858426,6.025476612192711,-7.082918945437351,8.040414102075127
2.09047489770777,5.841710616835556,-7.0025148044166,8.047104613622873
2.1488920038761252,5.647414926860916,-6.922043758280371,8.039134550461474
2.2053661531447344,5.44241953240952,-6.8416524127757565,8.015786063552296
2.2597903484688295,5.226741903728826,-6.761494552140234,7.976493828468096
2.3120577675061176,5.000632743752609,-6.681729613855553,7.920912485568876
