th1 (rad),w1 (rad/s),th2 (rad),w2 (rad/s),a1 (rad/s^2),a2 (rad/s^2)
4.8092252389199865,1.8600349971476642,5.289392185751252,-0.9072668814563515,11.555537399724638,-3.6335638428855446
4.827825588891463,1.9755903711449105,5.2803195169366886,-0.9436025198852069,11.722603312987799,-3.987690293680811
4.847581492602912,2.0928164042747883,5.270883491737837,-0.9834794228220151,11.877313099600535,-4.317202266489418
4.86850965664566,2.2115895352707935,5.261048697509617,-1.0266514454869093,12.010397321210373,-4.606328045881564
4.890625551998368,2.331693508482897,5.250782183054747,-1.072714725945725,12.110220451492435,-4.835657999147152
4.9139424870831965,2.4527957129978213,5.24005503579529,-1.1210713059371966,12.162584628141994,-4.981874601874634
4.938470444213174,2.574421559279241,5.2288443227359185,-1.1708900519559429,12.15075139240989,-5.017812853574935
4.964214659805966,2.6959290732033403,5.217135422216359,-1.2210681804916923,12.055832841254384,-4.913073813495758
4.991173950538,2.816487401615884,5.204924740411442,-1.2701989186266498,11.857729589673118,-4.635451599121126
5.019338824554159,2.9350646975126153,5.1922227512251755,-1.3165534346178611,11.536778753103142,-4.1534135714699065
5.0486894715292845,3.050432485043647,5.179057216878997,-1.3580875703325601,11.076184853898395,-3.439742635293772
5.079193796379721,3.161194333582631,5.165476341175671,-1.3924849966854977,10.465108457028643,-2.476163682173238
5.1108057397155475,3.2658454181529173,5.151551491208815,-1.4172466335072302,9.701983451457812,-1.258335435090379
5.143464193897077,3.3628652526674956,5.137379024873743,-1.429829987858134,8.797297754285683,0.1999008505313379
5.177092846423752,3.4508382302103526,5.1230807249951615,-1.4278309793528206,7.774865703057164,1.8644311081106526
5.211601228725855,3.528586887240924,5.108802415201633,-1.409186668271714,6.670744574025882,3.6821855647842834
5.246887097598265,3.595294332981183,5.094710548518916,-1.3723648126238712,5.5295103244235735,5.586313840211938
5.282840040928076,3.650589436225419,5.080986900392677,-1.316501674221752,4.3984768128669485,7.50442105007431
5.319345935290331,3.6945742043540886,5.06782188365046,-1.2414574637210087,3.3212331048585035,9.36791858069464
5.356291677333871,3.727786535402674,5.055407309013249,-1.1477782779140624,2.332154335115079,11.120111270585788
5.3935695426878985,3.7511080787538247,5.043929526234109,-1.0365771652082045,1.453143846573529,12.721180856153035
5.431080623475436,3.76563951721956,5.033563754582027,-0.9093653566466742,0.6930160080905664,14.149420637704473
5.468737018647632,3.7725696773004653,5.02447010101556,-0.7678711502696294,0.049083728876012374,15.399287092772262
5.5064627154206365,3.7730605145892255,5.016791389512864,-0.6138782793419068,-0.48996627820336786,16.47754080485827
5.544193320566529,3.768160851807192,5.010652606719445,-0.44910287129332405,-0.9408612984093168,17.39882330451669
5.5818749290846,3.7587522388230985,5.006161578006512,-0.2751146382481572,-1.3228799355061773,18.181660714884504
5.619462451472831,3.7455234394680366,5.00341043162403,-0.09329803109931215,-1.6556767514239952,18.84539966175547
5.656917685867511,3.728966671953797,5.0024774513130374,0.09515596551824254,-1.9578490116446188,19.40817985115907
5.694207352587049,3.7093881818373506,5.00342901096822,0.28923776402983326,-2.2461356515466666,19.885809302140473
5.731301234405422,3.686926825321884,5.0063213886085185,0.488095857051238,-2.5350779786545847,20.291315537912965
5.768170502658641,3.661576045535338,5.011202347179031,0.6910090124303676,-2.8369763052992547,20.634946202034286
5.804786263113995,3.6332062824823455,5.018112437303335,0.8973584744507105,-3.162010772833098,20.924435593546164
5.841118325938818,3.6015861747540145,5.027086022047842,1.1066028303861721,-3.518434793418553,21.165406598377533
5.877134187686358,3.566401826819829,5.038152050351704,1.3182568963699475,-3.9127844184745153,21.361824048245538
5.912798205954556,3.5272739826350836,5.051334619315404,1.5318751368524028,-4.350072963098975,21.516450261255475
5.948070945780907,3.483773253004094,5.0666533706839285,1.7470396394649577,-4.833957739026427,21.63127667325026
5.982908678310948,3.4354336756138295,5.084123767078578,1.9633524061974603,-5.3668765783030095,21.707919469576566
6.017263015067086,3.3817649098307996,5.103757291140553,2.180431600893226,-5.950157915713535,21.747974701910195
6.0510806641653945,3.3222633306736644,5.125561607149486,2.397911347912328,-6.584111125901943,21.75333181801873
6.084303297472131,3.256422219414645,5.149540720628609,2.6154446660925155,-7.2681046950404795,21.726445519767008
6.116867519666277,3.18374117246424,5.175695167289534,2.8327091212901854,-8.00063934653497,21.670565506750727
6.1487049313909194,3.1037347789988905,5.2040222585024365,3.0494147763576924,-8.779421821543936,21.589922620621174
6.179742279180909,3.0159405607834513,5.234516406266013,3.2653140025639042,-9.60144280012705,21.48986849393428
6.209901684788743,2.9199261327821806,5.267169546291652,3.480212687503247,-10.463059436592584,21.37696406349922
6.239100946116565,2.8152955384162546,5.301971673166684,3.6939823281382393,-11.360079035966073,21.259010011734453
6.267253901500728,2.701694748056594,5.338911496448066,3.906572428255584,-12.287835236800037,21.145008854061505
6.294270848981293,2.5788163956885937,5.377977220730622,4.1180225167961995,-13.241241221309654,21.04504315882282
6.320059012938179,2.446403983475497,5.419157445898584,4.3284729483844275,-14.214795211245441,20.97004597895436
6.344523052772934,2.304256031363043,5.462442175382428,4.5381734081739715,-15.202500703111545,20.93142608697262
6.3675656130865645,2.1522310243319276,5.507823909464167,4.747487669043697,-16.19764589192971,20.94048931460293
6.389087923329884,1.9902545654126305,5.555298786154604,4.956892562189727,-17.19236121777638,21.007564481472468
6.40899046898401,1.8183309532348666,5.604867711776501,5.166968207004452,-18.176838034293226,21.140693347538726
6.427173778516359,1.6365625728919344,5.656537393846546,5.378375140479839,-19.138042149238785,21.343673778007954
6.4435394042452785,1.4451821513995466,5.710321145251344,5.591811878259918,-20.057692619267634,21.613151285569682
6.457991225759274,1.2446052252068702,5.766239264033943,5.807943391115614,-20.90920547271785,21.93434334360024
6.470437278011343,1.0355131704796916,5.824318697945099,6.0272868245516165,-21.65325114137736,22.274887204306502
6.48079240971614,0.818980659065918,5.884591566190615,6.250035696594681,-22.23161753957717,22.576322631833072
6.488982216306799,0.5966644836701462,5.947091923156561,6.475798922913012,-22.559377650399504,22.743083879484068
6.4949488611435005,0.3710707071661512,6.011849912385691,6.703229761707853,-22.51626364285501,22.630034879237066
6.498659568215162,0.14590807073760112,6.07888221000277,6.929530110500223,-21.940174723456646,22.032269813191128
6.500118648922538,-0.07349367649696534,6.1481775111077726,7.149852808632135,-20.62939540200357,20.68584615181185
6.499383712157568,-0.27978763051700106,6.219676039194094,7.356711270150253,-18.364898475725145,18.294752382569804
6.4965858358523985,-0.4634366152742525,6.293243151895597,7.539658793975951,-14.966384836145979,14.602839692313689
6.491951469699656,-0.6131004636357122,6.3686397398353565,7.685687190899088,-10.386376957330116,9.51731044073297
6.485820465063299,-0.7169642332090134,6.445496611744347,7.780860295306418,-4.815632592223864,3.2487646389548703
6.478650822731209,-0.765120559131252,6.5233052146974115,7.813347941695967,1.2702776814456125,-3.6257709682035495
6.4709996171398965,-0.7524177823167959,6.601438694114371,7.777090232013931,7.199119203307529,-10.278098107462176
6.463475439316729,-0.6804265902837207,6.679209596434511,7.674309250939309,12.317878866343943,-15.91183533601574
6.456671173413891,-0.5572478016202812,6.755952688943904,7.515190897579152,16.21077256046419,-20.04418201190448
6.451098695397689,-0.3951400760156393,6.831104597919696,7.314749077460107,18.78142653986152,-22.604460271305467
6.447147294637532,-0.20732581061702407,6.904252088694297,7.088704474747052,20.181552665720186,-23.83121568133167
6.445074036531362,-0.005510283959822199,6.975139133441767,6.850392317933736,20.676504662165637,-24.091989194263707
6.445018933691764,0.20125476266183417,7.043643056621105,6.609472425991099,20.536547794676554,-23.74298765715025
6.447031481318382,0.4066202406085997,7.109737780881016,6.3720425494195965,19.982936497097853,-23.063758768945913
6.451097683724468,0.6064496055795783,7.173458206375212,6.141404961730137,19.175864251633374,-22.246784773782913
6.457162179780264,0.7982082480959121,7.234872255992514,5.918937113992308,18.222673714590986,-21.412181842251655
6.465144262261223,0.9804349852418219,7.294061627132437,5.704815295569791,17.191621889132087,-20.62808894686505
6.474948612113641,1.1523512041331427,7.351109780088135,5.4985344061011405,16.124496960524088,-19.92837355280032
6.4864721241549725,1.3135961737383837,7.406095124149146,5.299250670573137,15.046154121099582,-19.325590920226166
6.499608085892357,1.4640577149493794,7.459087630854877,5.105994761370876,13.971071136574977,-18.819678449909883
6.51424866304185,1.6037684263151293,7.510147578468586,4.9177979768717766,12.907612418654535,-18.40350240132198
6.530286347305001,1.7328445505016745,7.559325558237304,4.733762952858557,11.860699549491693,-18.066286948850514
6.547614792810018,1.8514515459965915,7.606663187765889,4.553100083370052,10.833430346979323,-17.79568926795432
6.566129308269984,1.9597858494663847,7.65219418859959,4.375143190690508,9.828024815409355,-17.579034645790145
6.585727166764648,2.058066097620478,7.695945620506495,4.199352844232607,8.84634863265175,-17.404039881849197
6.606307827740853,2.146529583946996,7.737939148948821,4.025312445414115,7.8901759438870975,-17.259228030936825
6.627773123580323,2.225431343385867,7.778192273402962,3.8527201651047465,6.961294639373376,-17.1341573805231
6.650027437014182,2.2950442897796006,7.816719475054009,3.6813785912995156,6.061519684753792,-17.019537812734903
6.672977879911977,2.3556594866271388,7.853533260967005,3.5111832131721665,5.192656185886305,-16.90727751255814
6.6965344747782485,2.4075860484860017,7.888645093098726,3.342110438046585,4.356438689661897,-16.790485022474265
6.720610335263109,2.451150435382621,7.922066197479192,3.1742055878218425,3.554463483394611,-16.663441194597443
6.745121839616935,2.486695070216567,7.95380825335741,3.007571175875868,2.7881243046214625,-16.521549689330346
6.7699887903191005,2.5145763132627814,7.983883965116169,2.842355678982565,2.0585576456582375,-16.36127147116338
6.795134553451728,2.535161889719364,8.012307521905994,2.678742964270931,1.3666009643120376,-16.180047118147748
6.820486172348922,2.548827899362484,8.039094951548703,2.5169424930894535,0.7127651298628811,-15.976209991497095
6.8459744513425465,2.555955550661113,8.064264376479597,2.3571803931744824,0.0972210613700593,-15.748892979849481
6.871534006849157,2.556927761274814,8.087836180411342,2.1996914633759874,-0.48020041875313924,-15.497931385809752
6.897103284461905,2.5521257570872824,8.109833095045103,2.0447121495178897,-1.0199970991237155,-15.223764416902108
6.922624542032778,2.541925786096045,8.130280216540282,1.8924745053488685,-1.5229741981630056,-14.92733760509172
6.948043799893738,2.526696044114415,8.149204961593771,1.7432011292979512,-1.9902155795200092,-14.610008278630117
6.973310760334882,2.506793888319215,8.166636972886751,1.59710104651165,-2.423049459600147,-14.273455944090557
6.998378699218074,2.4825633937232134,8.182607983351868,1.4543664870707445,-2.8230105913820362,-13.919599117402734
7.023204333155307,2.454333287809393,8.197151648222576,1.3151704958967172,-3.1918007163797073,-13.550519790271593
7.0477476660334,2.4224152806455956,8.210303353181542,1.1796652979940012,-3.5312488324702804,-13.168396354521528
7.071971818839856,2.387102792320893,8.222100006161483,1.047981334448786,-3.8432725544151207,-12.775445452260799
7.095842846763065,2.3486700667767417,8.23257981950597,0.920226879926178,-4.129841566987628,-12.373872891505043
7.119329547430833,2.3073716511068656,8.241782088305232,0.7964881510111276,-4.392943904022483,-11.965833477767633
7.142403263941901,2.2634422120666406,8.249746969815343,0.6768298162334513,-4.634555542473088,-11.553399370131729
7.1650376860625675,2.21709665664191,8.256515267977678,0.5612958225321341,-4.856613586775406,-11.13853637904389
7.1872086526289864,2.168530520774156,8.262128226202998,0.44991045874169516,-5.06099314000174,-10.723087482297334
7.208893957836728,2.1179205893741386,8.266627330790415,0.34267958391872183,-5.249487816014575,-10.308762742225715
7.230073163730469,2.065425711213993,8.270054126629603,0.23959195649646467,-5.423793740297384,-9.897134755754783
7.250727420842609,2.011187773811019,8.272450046194567,0.14062060893891684,-5.585496813785159,-9.48963875319279
7.27083929858072,1.9553328056731674,8.273856252283956,0.04572422140698895,-5.736062970065347,-9.08757647455916
7.290392626637451,1.8979721759725139,8.274313494498026,-0.04515154333860265,-5.8768311372589555,-8.692122987094795
7.309372348397176,1.8392038645999242,8.27386197906464,-0.1320727732095506,-6.0090086168611,-8.304335658237418
7.327764387043175,1.7791137784313134,8.272541251332544,-0.2151161297919248,-6.133668607907094,-7.925164559595951
7.345555524827487,1.7177770923522424,8.270390090034626,-0.2943677753878843,-6.251749631285253,-7.555463645243493
7.36273329575101,1.6552595960393899,8.267446412280748,-0.3699224118403192,-6.364056641404848,-7.196002119052091
7.379285891711404,1.5916190296253414,8.263747188162345,-0.4418824330308401,-6.471263646723413,-6.847475478985021
7.395202082007657,1.5269063931581073,8.259328363832037,-0.5103571878206903,-6.5739176933065115,-6.510515800355776
7.410471145939238,1.4611672162250422,8.25422479195383,-0.575462345824248,-6.6724440936432226,-6.1857008948865015
7.4250828181014885,1.39444277528861,8.248470168495587,-0.6373193547731131,-6.767152803987892,-5.87356205822965
7.4390272458543745,1.326771247248731,8.242096974947856,-0.6960549753554096,-6.858245865828756,-5.574590195883239
7.452294958326862,1.2581887885904435,8.235136425194302,-0.7518008773142419,-6.945825829725882,-5.289240196405907
7.464876846212766,1.1887305302931845,8.227618416421159,-0.804693279278301,-7.029905072551964,-5.0179335013627755
7.476764151515698,1.1184314795676649,8.219571483628375,-0.8548726142919287,-7.110415902804556,-4.7610589026798875
7.487948466311375,1.0473273205396194,8.211022757485456,-0.9024832033187276,-7.187221324698909,-4.5189716784140535
7.498421739516771,0.9754551072926303,8.201997925452268,-0.9476729201028681,-7.260126302575491,-4.291991254864132
7.508176290589697,0.9028538442668754,8.19252119625124,-0.9905928326515094,-7.328889335835386,-4.080397653208561
7.517204829032366,0.8295649509085216,8.182615267924724,-1.031396809183595,-7.393234124702083,-3.884427038672873
7.525500478541451,0.7556326096615007,8.172301299832888,-1.0702410795703237,-7.452861082340456,-3.704266735660331
7.533056804638066,0.6811039988380961,8.161598889037185,-1.107283746926927,-7.507458432820954,-3.54005009964813
7.539867844626447,0.6060294145098866,8.150526051567915,-1.1426842479234083,-7.556712630132967,-3.391851643063369
7.545928138771546,0.5304622882085569,8.139099209088682,-1.176602764354042,-7.600317843054921,-3.2596827961459502
7.551232761653631,0.4544591097780077,8.127333181445142,-1.2091995923155014,-7.637984275112669,-3.143488644921163
7.555777352751411,0.378079267026881,8.115241185521986,-1.240634478764713,-7.6694451276670375,-3.0431459285847478
7.55955814542168,0.3013848157502106,8.102834840734339,-1.2710659380505605,-7.694462065543568,-2.958462501375456
7.562571993579182,0.22444019509477492,8.090124181353833,-1.300650563064315,-7.712829105489908,-2.889178374449812
7.564816395530129,0.14731190403987585,8.077117675723189,-1.3295423468088132,-7.724374914115234,-2.8349683575576963
7.566289514570528,0.0700681548987235,8.0638222522551,-1.3578920303843902,-7.728963569303558,-2.795446225131243
7.566990196119515,-0.007221480794312077,8.050243331951256,-1.3858464926357026,-7.726493902820913,-2.770170243277035
7.566917981311572,-0.08448641982252121,8.036384867024898,-1.413548195068473,-7.716897597794446,-2.7586498188519473
7.566073117113347,-0.16165539580046567,8.022249385074213,-1.4411346932569924,-7.7001362595844,-2.7603529737455372
7.564456563155342,-0.23865675839630968,8.007838038141642,-1.4687382229944477,-7.676197710046889,-2.7747143094740085
7.562069995571378,-0.31541873549677857,7.993150655911698,-1.4964853660891877,-7.64509177226968,-2.801143110212339
7.558915808216411,-0.39186965321947537,7.978185802250806,-1.524496797191311,-7.6068458157336405,-2.8390312357441227
7.554997111684216,-0.4679381113768118,7.962940834278893,-1.5528871095487522,-7.561500321742772,-2.887760477331052
7.550317730570447,-0.5435531145942395,7.947411963183405,-1.5817647143220628,-7.509104707916302,-2.9467090859634033
7.544882199424505,-0.6186441616734025,7.931594316040184,-1.6112318051816967,-7.449713621098239,-3.0152572299852296
7.538695757807771,-0.6931412978843849,7.915481997988367,-1.641384377481549,-7.383383872970956,-3.0927911936337282
7.531764344828927,-0.7669751366140946,7.899068154213552,-1.6723122894178863,-7.310172154649296,-3.178706185721019
7.524094593462786,-0.8400768581605875,7.882345031319373,-1.7040993512750966,-7.230133627987734,-3.272407685123289
7.515693824881181,-0.9123781944404649,7.865304037806622,-1.7368234281263295,-7.143321454233531,-3.373311304197608
7.506570042936776,-0.9838114089828002,7.847935803525359,-1.7705565411683055,-7.049787286478065,-3.480841200732841
7.496731928846948,-1.0543092818475808,7.830230238113676,-1.805364953175634,-6.949582722057523,-3.5944271123056355
7.4861888360284725,-1.123805109068156,7.812176588581919,-1.8413092242986904,-6.842761685115647,-3.7135001233595153
7.474950784937791,-1.1922327259193124,7.793763496338932,-1.8784442255322855,-6.729383688042741,-3.837487304895569
7.463028457678598,-1.2595265627997398,7.774979054083609,-1.9168190985812412,-6.609517903200694,-3.9658053897010808
7.450433192050601,-1.3256217418317469,7.755810863097796,-1.956477152478252,-6.483247962756316,-4.097853663154073
7.437176974632283,-1.39045422145931,7.736246091573014,-1.9974556891097928,-6.350677393941633,-4.2330062615861035
7.42327243241769,-1.4539609953987265,7.7162715346819155,-2.039785751725654,-6.211935588920444,-4.370604077775766
7.408732822463703,-1.5160803512879308,7.695873677164659,-2.0834917925034118,-6.067184201903152,-4.5099464771938065
7.393572018950824,-1.5767521933069624,7.675038759239625,-2.12859125727535,-5.916623860447486,-4.650283029903048
7.377804497017754,-1.6359184319114373,7.653752846666872,-2.1750940875743807,-5.760501072248879,-4.790805462267141
7.36144531269864,-1.693523442633926,7.632001905791128,-2.223002142197052,-5.599115202416371,-4.930640030547914
7.344510078272301,-1.74951459465809,7.609771884369158,-2.272308542502531,-5.4328253885228275,-5.0688405157711065
7.32701493232572,-1.8038428485433182,7.587048798944132,-2.322996947660242,-5.262057250916252,-5.2043820366341285
7.308976503840286,-1.8564634210524806,7.56381882946753,-2.3750407680265835,-5.087309243224113,-5.336155875475313
7.290411869629762,-1.9073365134847218,7.5400684217872636,-2.428402326781337,-4.909158472090066,-5.4629655122206655
7.271338504494914,-1.9564280982056224,7.51578439851945,-2.4830319819035434,-4.728265795482484,-5.583524063587078
7.251774223512858,-2.003710756160447,7.4909540787004145,-2.538867222539414,-4.545379985128725,-5.696453330431112
7.231737115951254,-2.049164556011734,7.4655654064750205,-2.5958317558437254,-4.361340710766875,-5.80028466563694
7.211245470391137,-2.092777963119403,7.439607088916583,-2.653834602500095,-4.177080072400326,-5.893461888707062
7.190317690759943,-2.134548763843406,7.413068742891582,-2.7127692213871657,-3.9936223725951883,-5.974346491166798
7.168972203121509,-2.174484987569358,7.385941050677711,-2.7725126862988336,-3.812081785846354,-6.041225398226216
7.147227353245816,-2.2126058054278213,7.358215923814722,-2.832924940281096,-3.633657548880236,-6.092321575099787
