th1 (rad),w1 (rad/s),th2 (rad),w2 (rad/s),a1 (rad/s^2),a2 (rad/s^2)
6.06766935713893,1.0866865118376359,1.4372739005023547,-1.4140636535422417,2.6551366966115437,-10.67223146305938
6.0785362222573065,1.1132378788037514,1.4231332639669323,-1.5207859681728355,2.839436053993491,-10.768918792936933
6.089668601045344,1.1416322393436862,1.4079254042852039,-1.6284751561022048,3.043308837564149,-10.87976730197731
6.101084923438781,1.1720653277193276,1.3916406527241818,-1.737272829121978,3.267582474341326,-11.007255222277045
6.112805576715974,1.204741152462741,1.374267924432962,-1.8473453813447485,3.513229791534007,-11.154114528742312
6.124852988240602,1.239873450378081,1.3557944706195146,-1.9588865266321716,3.7813930468090238,-11.323358283516717
6.137251722744383,1.2776873808461713,1.336205605353193,-2.0721201094673387,4.07340915113577,-11.51831105470919
6.150028596552844,1.318421472357529,1.3154844042585196,-2.1873032200144307,4.390835198200656,-11.742641650207544
6.16321281127642,1.3623298243395354,1.2936113720583753,-2.304729636516506,4.735472733290565,-12.000396539093376
6.176836109519815,1.409684551672441,1.2705640756932102,-2.42473360190744,5.109388096098091,-12.29603090963927
6.19093295503654,1.4607784326334219,1.2463167396741357,-2.547693911003833,5.514924413602512,-12.634432005784818
6.205540739362874,1.515927676769447,1.2208398005640975,-2.6740382310616813,5.954698019214912,-13.020925672915507
6.220700016130569,1.575474656961596,1.1940994182534808,-2.8042474877908363,6.431567632292027,-13.461251105233814
6.236454762700185,1.6397903332845163,1.1660569433755723,-2.9388599988431743,6.948557606988703,-13.961479323344701
6.25285266603303,1.7092759093544032,1.1366683433871405,-3.078474792076621,7.50870548771458,-14.52783589268999
6.269945425126575,1.784362964231549,1.1058835954663744,-3.223753151003521,8.114786745303647,-15.16636469182063
6.28778905476889,1.8655108316845854,1.0736460639563392,-3.3754167979217273,8.768842554811522,-15.882332444861447
6.306444163085736,1.9531992572327006,1.039891895977122,-3.534240122370342,9.471395010172829,-16.67921646237268
6.325976155658063,2.047913207334429,1.0045494947534186,-3.7010322869940686,10.220171965819837,-17.557031614142655
6.346455287731407,2.1501149269926274,0.9675391718834779,-3.876602603135495,11.008074064599533,-18.50962721826525
6.367956437001333,2.2601956676386226,0.928773145852123,-4.0616988753181476,11.819996726516827,-19.520415593151444
6.390558393677719,2.3783956349037907,0.8881561570989416,-4.256903031249662,12.627983790147997,-20.555799196721253
6.414342350026757,2.5046754728052707,0.845587126786445,-4.462461023216874,13.384098872542017,-21.55542595700004
6.43938910475481,2.638516461530691,0.8009625165542762,-4.678015282786874,14.010533034714204,-22.418566245023076
6.465774269370117,2.7786217918778333,0.7541823637264075,-4.902200945237105,14.387240214438178,-22.98694671771951
6.493560487288895,2.922494194022215,0.7051603542740364,-5.132070412414301,14.339613429290605,-23.027419983605594
6.522785429229117,3.0658903283151213,0.6538396501498934,-5.362344612250356,13.633527090021573,-22.22449346934984
6.553444332512268,3.2022255992153372,0.6002162040273898,-5.584589546943855,11.992891930713192,-20.20359724144232
6.5854665885044215,3.3221545185224692,0.5443703085579513,-5.786625519358278,9.161881456550024,-16.615778308816623
6.618688133689647,3.4137733330879696,0.4865040533643685,-5.952783302446444,5.026445075455391,-11.304191160857966
6.6528258670205265,3.4640377838425236,0.42697622033990407,-6.065825214055024,-0.23365367097668915,-4.512735765217987
6.6874662448589515,3.4617012471327566,0.3663179681993538,-6.1109525717072035,-6.065265443582662,3.0055453634948353
6.722083257330279,3.40104859269693,0.30520844248228174,-6.080897118072255,-11.659972316817067,10.15290902246076
6.7560937432572485,3.2844488695287595,0.2443994713015592,-5.979368027847648,-16.26225526686533,15.911847116073147
6.788938231952536,3.121826316860106,0.18460579102308272,-5.820249556686917,-19.46147347245945,19.743919348916293
6.820156495121137,2.9272115821355116,0.12640329545621354,-5.622810363197754,-21.260989970724662,21.678597678481932
6.849428610942492,2.714601682428265,0.070175191824236,-5.406024386412935,-21.93584663430008,22.112027172492937
6.876574627766774,2.4952432160852642,0.016114947960106644,-5.184904114688005,-21.84106986456265,21.54179590256662
6.901527059927627,2.2768325174396375,-0.03573409318677341,-4.969486155662339,-21.287926190084153,20.39850265130954
6.924295385102023,2.063953255538796,-0.0854289547433968,-4.765501129149244,-20.501729878374825,18.99057339159928
6.944934917657411,1.8589359567550479,-0.13308396603488926,-4.575595395233251,-19.626898831681057,17.513581089657446
6.963524277224962,1.6626669684382374,-0.17883991998722176,-4.4004595843366765,-18.747676373469382,16.080196930187633
6.980150946909344,1.4751902047035435,-0.22284451583058854,-4.2396576150348,-17.90863770722653,14.74909132021762
6.99490284895638,1.2961038276312782,-0.26524109198093654,-4.092166701832624,-17.130094795367157,13.546351630791602
7.007863887232692,1.1248028796776066,-0.30616275899926276,-3.9567031855247077,-16.418331029273794,12.47954772486297
7.019111916029468,0.9606195693848687,-0.34572979085450983,-3.831907708276078,-15.771957029316983,11.546357865279802
7.028718111723316,0.8028999990916988,-0.3840488679372706,-3.7164441296232797,-15.185692851336244,10.739621460441317
7.0367471117142335,0.6510430705783364,-0.4212133092335034,-3.6090479150188663,-14.65254756281064,10.05018686532909
7.043257542420017,0.5045175949502301,-0.45730378838369207,-3.5085460463655753,-14.165037124726998,9.468448592237875
7.048302718369519,0.3628672237029601,-0.4923892488473478,-3.4138615604431966,-13.71583929060542,8.985125785840633
7.051931390606549,0.2257088307969059,-0.5265278644517798,-3.32401030258479,-13.298125527668791,8.59161168183627
7.054188478914518,0.09272757552021799,-0.5597679674776277,-3.2380941857664274,-12.905711550447238,8.280087191549029
7.05511575466972,-0.036329539984254394,-0.592148909335292,-3.155293313850937,-12.533108786719003,8.043510171777235
7.054752459269878,-0.16166062785144442,-0.6237018424738013,-3.0748582121331647,-12.175523976541635,7.875544006568546
7.053135852991363,-0.2834158676168608,-0.654450424595133,-2.9961027720674793,-11.828833499393513,7.770461255711332
7.050301694315195,-0.40170420261079587,-0.6844114523158078,-2.918398159510366,-11.489547022075318,7.723042041419619
7.046284652289087,-0.5165996728315491,-0.7135954339109115,-2.84116773909617,-11.154768123449056,7.728477630903674
7.041118655560771,-0.6281473540660396,-0.7420071113018732,-2.7638829627871333,-10.822155589539323,7.782284438748007
7.0348371820201105,-0.7363689099614328,-0.7696459409297446,-2.686060118399653,-10.489886853879142,7.8802307328039936
7.027473492920496,-0.8412677785002242,-0.7965065421137412,-2.607257811071613,-10.1566238609569,8.018276700049027
7.019060815135494,-0.9428340171097932,-0.8225791202244573,-2.5270750440711227,-9.821481030668432,8.192527646298856
7.009632474964396,-1.0410488274164775,-0.8478498706651686,-2.445149767608134,-9.483994748565467,8.399199638022939
6.999221986690231,-1.1358887749021322,-0.8723013683412499,-2.3611577712279046,-9.144093752301979,8.634596658262453
6.98786309894121,-1.227329712425152,-0.895912946053529,-2.27481180464528,-8.802069840877987,8.8950982358649
6.975589801816958,-1.315350410833932,-0.9186610640999818,-2.1858608222866307,-8.458548447343455,9.177156459306865
6.962436297708619,-1.3999358953073666,-0.9405196723228482,-2.094089257693562,-8.11445875591653,9.477301271799185
6.948436938755545,-1.4810804828665318,-0.9614605648997838,-1.9993162449755701,-7.771003192071092,9.792152946991985
6.93362613392688,-1.5587905147872427,-0.9814537273495395,-1.9013947155056503,-7.429626257932897,10.118440656679502
6.918038228779007,-1.6330867773665716,-1.000467674504596,-1.8002103089388553,-7.091982819005795,10.453026060199681
6.901707361005342,-1.7040066055566296,-1.0184697775939846,-1.6956800483368584,-6.759906068547792,10.79293086883286
6.884667294949776,-1.7716056662421076,-1.0354265780773533,-1.5877507396485298,-6.4353755013435325,11.135367367800846
6.8669512382873545,-1.8359594212555428,-1.0513040854738385,-1.4763970659705212,-6.120485318636419,11.477770914610382
6.848591644074799,-1.897164274441907,-1.0660680561335436,-1.3616193568244175,-5.817413760392508,11.817833477227069
6.82962000133038,-1.9553384120458321,-1.0796842497017878,-1.2434410220521468,-5.5283939195818075,12.153537331134917
6.810066617209921,-2.01062235124165,-1.0921186599223092,-1.1219056487407977,-5.255686635135879,12.483188103248944
6.789960393697505,-2.063179217593009,-1.1033377164097171,-0.9970737677083082,-5.001556084553969,12.805446435365942
6.769328601521575,-2.1131947784385483,-1.1133084540868001,-0.8690193033546488,-4.768248702194343,13.119357642243017
6.748196653737189,-2.1608772654604915,-1.1219986471203467,-0.7378257269322186,-4.557976033127988,13.424378860066492
6.726587881082584,-2.2064570257917713,-1.1293769043896689,-0.6035819383315537,-4.372902092761263,13.72040331842406
6.7045233108246665,-2.2501860467193837,-1.1354127237729843,-0.46637790514731314,-4.2151357366068805,14.007781518139698
6.682021450357473,-2.2923374040854525,-1.1400765028244575,-0.3263000899659162,-4.086728449273951,14.28733924933321
6.659098076316618,-2.333204688578192,-1.1433395037241167,-0.1834266974725841,-3.9896778321714854,14.560392523911894
6.635766029430836,-2.373101466899907,-1.1451737706988425,-0.03782277223346517,-3.925936897841483,14.828759601820279
6.612035014761837,-2.4123608358783217,-1.1455519984211773,0.11046482378473763,-3.897429052063482,15.09477032777177
6.5879114064030535,-2.4513351263989565,-1.1444473501833299,0.2614125270624553,-3.906068340246611,15.361272917088876
6.563398055139064,-2.4903958098014227,-1.1418332249127052,0.4150252562333441,-3.953784113834421,15.631638066072775
6.53849409704105,-2.5299336509397667,-1.1376829723503719,0.5713416368940718,-4.042548672032623,15.909759711056253
6.513194760531652,-2.570359137660093,-1.1319695559814311,0.7304392340046344,-4.17440555098657,16.200050766087287
6.487491169155051,-2.6121031931699585,-1.1246651636413847,0.8924397416655072,-4.3514948014214765,16.50743049550564
6.461370137223351,-2.6556181411841733,-1.1157407662247296,1.0575140466205637,-4.576069555128624,16.83729745932241
6.43481395581151,-2.7013788367354596,-1.105165625758524,1.2258870212137878,-4.850495019652164,17.195477639144954
6.407800167444155,-2.7498837869319814,-1.0929067555463863,1.3978417976052373,-5.177216118420621,17.58813052880983
6.380301329574835,-2.8016559481161876,-1.0789283375703338,1.5737231028933356,-5.558672319872653,18.02158529245025
6.352284770093673,-2.857242671314914,-1.0631911065414004,1.7539389558178382,-5.997126261609952,18.50206246428742
6.3237123433805245,-2.9172139339310137,-1.045651716983222,1.9389595804607125,-6.494354312592824,19.03521095377637
6.294540204041215,-2.982157477056942,-1.026262121178615,2.129311689998476,-7.051118964345662,19.625350786807203
6.264718629270646,-3.0526686667003986,-1.0049690042786301,2.325565197866548,-7.666300494369584,20.27425290475331
6.234191942603641,-3.1293316716440946,-0.9817133522999646,2.5283077269140812,-8.335503531558658,20.979201201092426
6.2028986258872,-3.212686706959681,-0.9564302750308238,2.7380997389250057,-9.04886901277227,21.729963158746784
6.170771758817604,-3.303175397087404,-0.9290492776415737,2.9553993705124735,-9.787716897746268,22.50414840236904
6.137740004846729,-3.4010525660648665,-0.899495283936449,3.180440854536164,-10.519546249644408,23.26029557949735
6.1037294791860806,-3.5062480285613105,-0.8676908753910874,3.4130438103311374,-11.190911787031212,23.928015190533742
6.068666998900468,-3.6181571464316225,-0.833560437287776,3.652323962236475,-11.71799323816092,24.394926764420696
6.032485427436152,-3.735337078813232,-0.7970371976654113,3.896273229880682,-11.97572654974794,24.491592453623134
5.9951320566480195,-3.8550943443107113,-0.7580744653666044,4.141189154416914,-11.788940417226948,23.979236924385912
5.956581113204912,-3.9729837484829806,-0.7166625738224353,4.380981523660773,-10.933851456198509,22.55189457625531
5.916851275720083,-4.082322263044966,-0.6728527585858275,4.606500469423326,-9.164953306334443,19.873952704136794
5.876028053089633,-4.17397179610831,-0.6267877538915942,4.805239996464693,-6.285323682415423,15.678212717868393
5.83428833512855,-4.236825032932464,-0.5787353539269473,4.9620221236433775,-2.2637890013028534,9.92914300064934
5.791920084799225,-4.259462922945493,-0.5291151326905136,5.061313553649871,2.643733095337757,2.9914510988846024
5.74932545556977,-4.233025591992115,-0.47850199715401487,5.091228064638717,7.8681502237198275,-4.3351114568746905
5.706995199649849,-4.154344089754917,-0.42758971650762767,5.04787695006997,12.681308006958082,-11.032901777108624
5.665451758752299,-4.027531009685337,-0.377110947006928,4.937547932298884,16.475700807997274,-16.25790475209201
5.625176448655446,-3.8627740016053638,-0.32773546768393913,4.774968884777964,18.977763064827503,-19.63637939642646
5.586548708639392,-3.6729963709570885,-0.2799857788361595,4.578605090813699,20.25840551819488,-21.276906129096744
5.549818744929821,-3.47041231577514,-0.23419972792802252,4.365836029522732,20.590664675601555,-21.569272166736358
5.51511462177207,-3.2645056690191243,-0.1905413676327952,4.150143307855368,20.291742523259185,-20.962928624766096
5.482469565081878,-3.0615882437865323,-0.14903993455424153,3.940514021607707,19.62973333805016,-19.836896931234996
5.451853682644013,-2.8652909104060305,-0.10963479433816445,3.742145052295357,18.79567389459462,-18.461317688065105
5.423200773539953,-2.6773341714600845,-0.07221334381521088,3.557531875414706,17.911079885129485,-17.008518800880804
5.396427431825352,-2.4982233726087895,-0.036638025061063825,3.387446687405898,17.04640161516442,-15.579155293393066
5.371445198099264,-2.327759356457145,-0.0027635581870048415,3.2316551344719677,16.23851577394443,-14.226844484102202
5.348167604534693,-2.165374198717701,0.029552993157714834,3.089386689630946,15.503748294019204,-12.976457440342852
5.3265138625475155,-2.010336715777509,0.06044686005402429,2.9596221152275173,14.846531853885399,-11.83625699105086
5.30641049538974,-1.861871397238655,0.09004308120629946,2.841259545317009,14.264801430082311,-10.805451335155958
5.287791781417354,-1.7192233829378318,0.11845567665946954,2.7332050319654493,13.753216295638897,-9.878698215838215
5.270599547587976,-1.5816912199814428,0.14578772697912404,2.634418049807067,13.305019080925227,-9.048698988033015
5.254782635388161,-1.4486410291721905,0.1721319074771947,2.543931059926737,12.913070824798352,-8.307638464834545
5.240296225096439,-1.319510320924207,0.19757121807646208,2.4608546752783917,12.570400277441257,-7.647944262890839
5.227101121887197,-1.1938063181497944,0.222179764829246,2.384375232649483,12.270472992818918,-7.062653158954535
5.215163058705699,-1.0711015882216053,0.24602351715574083,2.3137487010599376,12.007302623441195,-6.545555541920522
5.204452042823483,-0.9510285619871933,0.2691610041663402,2.2482931456407322,11.775476285470269,-6.091218349377453
5.194941757203611,-0.8332737991324907,0.29164393562274754,2.1873809621469578,11.570135644724335,-5.694944668264113
5.186609019212286,-0.7175724426852473,0.3135177452442171,2.1304315154643167,11.386937497140469,-5.352703241143346
5.179433294785433,-0.6037030677138426,0.33482206039886026,2.0769044830528833,11.222007121193716,-5.061046500701207
5.173396264108295,-0.49148299650190547,0.3555911052293891,2.026294018045871,11.071891561796276,-4.817027251648797
5.168481434143276,-0.3807640808839427,0.3758540454098478,1.9781237455293832,10.93351647130784,-4.6181192224887
5.164673793334437,-0.2714289161708643,0.3956352828651416,1.9319425533044963,10.804148118897235,-4.462143932181164
5.161959504172728,-0.16338743498189195,0.41495470839818654,1.8873211139826847,10.68136105493161,-4.347204779397349
5.160325629822909,-0.056573824432575845,0.43382791953801336,1.8438490661887112,10.563011310498883,-4.271628445791099
5.159759891578583,0.04905628867241299,0.4522664101999005,1.8011327817308003,10.44721470432229,-4.233913303525248
5.160250454465307,0.1535284357156359,0.4702777380172085,1.7587936486955478,10.332329691190123,-4.23268435102023
5.161785738822463,0.25685173262753713,0.487865674504164,1.7164668051853456,10.216944142018555,-4.266654163913004
5.164354256148738,0.3590211740477227,0.5050303425560174,1.6738002635462155,10.099865451856406,-4.334589378989908
5.167944467889216,0.46001982856628676,0.5217683451914795,1.6304543697563163,9.980113403333824,-4.435282291960806
5.172544666174878,0.559820962599625,0.5380728888890427,1.5861015468367083,9.85691525514197,-4.567527225351129
5.178142875800875,0.6583901151510447,0.5539339043574097,1.5404262745831971,9.729702570539915,-4.730101399511519
5.1847267769523855,0.7556871408564438,0.5693381671032417,1.493125260588082,9.598109345902413,-4.921750112001369
5.19228364836095,0.851668234315468,0.5842694197091225,1.4439077594680683,9.461971042504326,-5.141176095541526
5.200800330704104,0.9462879447405113,0.5987084973038032,1.392495998512653,9.321324165989246,-5.387032981053199
5.210263210151509,1.0395011864004038,0.6126334572889297,1.338625668702121,9.1764060780158,-5.6579228394507615
5.220658222015513,1.1312652471805618,0.6260197139759509,1.2820464403076133,9.02765476465388,-5.952397813564356
5.231970874487319,1.2215417948271006,0.6388401783790271,1.2225224621719697,8.875708327787233,-6.268965879611548
5.2441862924355895,1.310298878104973,0.6510654030007468,1.1598328033758543,8.721404010850604,-6.606100795777457
5.257289281216639,1.397512918213479,0.6626637310345054,1.0937717954180797,8.565776620574006,-6.962256303484669
5.271264410398774,1.483170684419219,0.6736014489886861,1.024149232383233,8.410056263894868,-7.335884644790733
5.286096117242966,1.5672712470581676,0.6838429413125184,0.9507903859353257,8.25566538554655,-7.725459447351732
5.301768829713548,1.649827900913633,0.6933508451718717,0.8735357914618084,8.10421516843564,-8.12950300743714
5.318267108722684,1.7308700525979894,0.7020862030864898,0.7922407613874369,7.957501446664331,-8.546617973281167
5.335575809248664,1.8104450670646328,0.7100086107003643,0.7067745816546253,7.817500380107534,-8.975523398285155
5.353680259919311,1.8886200708657082,0.7170763565169105,0.6170193476717737,7.686364249060403,-9.415095099926855
5.372566460627968,1.9654837133563121,0.7232465499936283,0.5228683966725052,7.566417845734139,-9.864410230219775
5.392221297761531,2.0411478918136536,0.7284752339603533,0.4242242943703074,7.460156063028574,-10.32279594214387
5.412632776679668,2.1157494524439393,0.7327174769040564,0.3209963349488687,7.370243405115493,-10.789882028160568
5.433790271204107,2.1894518864950943,0.7359274402535451,0.213097514667263,7.299516261866663,-11.265657414446535
5.455684790069058,2.262447049113761,0.7380584154002177,0.10044094052279766,7.250988890064897,-11.750530416593255
5.478309260560196,2.3349569380144097,0.7390628248054456,-0.01706436364313489,7.227864114250945,-12.245392690746707
5.50165882994034,2.4072355791569193,0.7388921811690142,-0.13951829055060194,7.233549777525403,-12.751686827767625
5.525731185731909,2.4795710769321735,0.7374969982635082,-0.2670351588282782,7.271681904400541,-13.271477496178962
5.550526896501231,2.5522878959761788,0.7348266466752255,-0.39974993379006785,7.346155330667144,-13.80752586917024
5.576049775460993,2.6257494492828504,0.7308291473373247,-0.5378251924817703,7.4611621220299655,-14.363366645944453
5.602307269953821,2.70036107050315,0.7254508954125071,-0.6814588589412148,7.6212372991835515,-14.943386086823802
5.629310880658852,2.7765734434949856,0.7186363068230949,-0.8308927198094529,7.831309969874324,-15.55289777281032
5.657076615093802,2.8548865431937287,0.7103273796250004,-0.9864216975375562,8.09675553208947,-16.198209689198983
5.685625480525739,2.9358540985146235,0.7004631626496248,-1.148403794429546,8.423440474937447,-16.886670748016794
