th1 (rad),w1 (rad/s),th2 (rad),w2 (rad/s),a1 (rad/s^2),a2 (rad/s^2)
3.4899185911714894,-2.496901927910246,6.192906064746785,0.6026995596685701,4.445364540512665,2.260465867967906
3.464949571892387,-2.4524482825051193,6.19893306034347,0.6253042183482492,4.278763647056949,2.368663167581985
3.440425089067336,-2.40966064603455,6.205186102526953,0.6489908500240691,4.094244312676205,2.4339486531443137
3.4163284826069904,-2.368718202907788,6.211676011027193,0.6733303365555122,3.890619453468624,2.455783558086342
3.3926413005779126,-2.3298120083731018,6.218409314392749,0.6978881721363757,3.6669696753826178,2.434017741987307
3.3693431804941816,-2.2931423116192757,6.225388196114112,0.7222283495562487,3.422696554080073,2.368969235312565
3.346411757377989,-2.258915346078475,6.232610479609675,0.7459180419093744,3.157575589447927,2.261500760669763
3.323822603917204,-2.227339590183996,6.240069660028769,0.768533049516072,2.8718048716428384,2.1130881138975597
3.301549208015364,-2.198621541467568,6.247754990523929,0.7896639306550476,2.566044982703486,1.9258746095921209
3.2795629926006886,-2.172961091640533,6.25565162983048,0.8089226767509687,2.2414454801636516,1.7027055751198263
3.2578333816842835,-2.150546636838896,6.263740856597989,0.825949732502167,1.8996535802898606,1.4471372617787108
3.2363279153158944,-2.1315501010359976,6.272000353923011,0.840421105119954,1.5428014529548768,1.1634156256608617
3.2150124143055345,-2.116122086506449,6.28040456497421,0.8520552613765626,1.1734698674338344,0.8564222216883994
3.19385119344047,-2.1043873878321104,6.288925117587976,0.8606194835934466,0.7946277145783637,0.5315868492130842
3.172807319562149,-2.0964411106863268,6.29753131242391,0.8659353520855775,0.4095490128570959,0.194769366376246
3.1518429084552855,-2.0923456205577557,6.306190665944766,0.8678830457493399,0.02171114499065571,-0.1478840655935355
3.130919452249708,-2.092128509107849,6.31486949640226,0.8664042050934045,-0.36532001282619886,-0.4901025108735075
3.109998167158629,-2.095781709236111,6.323533538453193,0.8615031799846695,-0.7480109914650749,-0.8256598986102237
3.089040350066268,-2.1032618191507617,6.3321485702530405,0.8532465809985673,-1.1229798825279245,-1.1485422037608175
3.0680077318747605,-2.114491617976041,6.340681036063026,0.8417611589609592,-1.4871060996969248,-1.453101794701087
3.046862815695,-2.1293626789730102,6.349098647652636,0.8272301410139483,-1.8376240487927997,-1.7341898488822591
3.02556918890527,-2.1477389194609384,6.3573709490627754,0.8098882425251257,-2.172195628126011,-1.9872599051418793
3.0040917997106606,-2.1694608757421987,6.365469831488027,0.7900156434737069,-2.4889585369783727,-2.208438363699623
2.9823971909532387,-2.1943504611119824,6.373369987922764,0.7679312598367106,-2.7865495742712945,-2.3945606818332386
2.960453686342119,-2.2222159568546953,6.3810493005211315,0.7439856530183783,-3.064104178977667,-2.543174771467577
2.938231526773572,-2.252856998644472,6.388489157051315,0.7185539053037024,-3.321235168566168,-2.652515380752294
2.9157029567871273,-2.2860693503301337,6.395674696104352,0.6920287514961795,-3.557994825257501,-2.721454841433138
2.8928422632838258,-2.3216492985827086,6.402594983619314,0.6648142030818481,-3.774825109320441,-2.749436416694171
2.869625770297999,-2.359397549675913,6.409243125650132,0.6373198389149064,-3.972500875827016,-2.7363966303858858
2.8460317948012395,-2.3991225584341835,6.415616324039281,0.6099558726110476,-4.152070630229294,-2.6826825200584254
2.8220405692168975,-2.4406432647364764,6.421715882765391,0.5831290474104633,-4.314798707010093,-2.58896889993938
2.7976341365695325,-2.4837912518065774,6.427547173239496,0.5572393584110695,-4.462111930106447,-2.456179622970078
2.7727962240514668,-2.528412371107642,6.433119566823607,0.5326775621813687,-4.595552936050421,-2.28541565321167
2.74751210034039,-2.574367900468146,6.438446342445421,0.509823405649252,-4.716741506976442,-2.0778916275621024
2.7217684213357085,-2.62153531553791,6.443544576501914,0.489044489373631,-4.827344535998051,-1.8348815847075521
2.6955530681803292,-2.6698087608978907,6.4484350213956505,0.47069567352655545,-4.929054667444549,-1.5576737166326966
2.6688549805713504,-2.719099307572336,6.453141978130916,0.4551189363602285,-5.0235772299850785,-1.247533368504096
2.641663987495627,-2.769335079872187,6.457693167494519,0.44264360267518754,-5.112624804952151,-0.9056730672758206
2.613970636696905,-2.8204613279217083,6.462119603521271,0.43358687200242935,-5.197918627588291,-0.5332280739334299
2.585766023417688,-2.8724405141975913,6.466455472241295,0.42825459126309506,-5.281195982955995,-0.13123579737166383
2.557041618275712,-2.9252524740271513,6.470738018153925,0.4269422332893784,-5.364222807910511,0.2993826539742903
2.52778909353544,-2.978894702106256,6.475007440486819,0.4299360598291213,-5.448810825399392,0.7578405052944666
2.4980001465143777,-3.03338281036025,6.4793068010851105,0.43751446488206597,-5.536838701181825,1.2435046197552786
2.4676663184107754,-3.0887511973720683,6.483681945733931,0.4499495110796188,-5.630276914515371,1.7559177138455684
2.436778806437055,-3.145053966517222,6.488181440844727,0.46750868821807445,-5.731216267072396,2.2948250874302665
2.4053282667718827,-3.202366129187946,6.492856527726907,0.49045693909237714,-5.8419002166714415,2.86020746501399
2.373304605480003,-3.2607851313546607,6.497761097117831,0.5190590137425171,-5.964761517040225,3.452321583615625
2.3406967541664563,-3.320432746525063,6.502951687255256,0.5535822295786733,-6.102463978517383,4.071750265112014
2.307492426701206,-3.381457386310237,6.508487509551043,0.5942997322297935,-6.257950547998027,4.719463895956322
2.2736778528381034,-3.4440368917902173,6.514430506873341,0.6414943711893567,-6.434499354096991,5.396895526587479
2.2392374839202014,-3.5083818853311874,6.5208454505852345,0.6954633264552315,-6.6357898940246764,6.106032221929309
2.2041536650668894,-3.574739784271434,6.527800083849787,0.7565236486745246,-6.865982174616924,6.849525872039356
2.168406267224175,-3.6433996060176033,6.535365320336532,0.8250189073949181,-7.129812387241924,7.630827439360207
2.131972271163999,-3.7146977298900223,6.543615509410481,0.9013271817885202,-7.43270962189372,8.454349605358933
2.0948252938650986,-3.7890248261089594,6.552628781228366,0.9858706778421096,-7.780939231812627,9.325664001996488
2.056935045604009,-3.8668342184270856,6.562487488006787,1.0791273178620744,-8.181779750323418,10.251740656818786
2.018266703419738,-3.94865201593032,6.573278761185407,1.1816447244302624,-8.64374169313204,11.241238852246868
1.978780183260435,-4.03508943286164,6.58509520842971,1.294057112952731,-9.176838002591046,12.304860043029812
1.9384292889318187,-4.12685781288755,6.598035779559237,1.4171057133830292,-9.792916929151579,13.455774193747617
1.8971607108029431,-4.224786982179066,6.612206836693067,1.5516634553205053,-10.506067953984832,14.710129603778748
1.8549128409811524,-4.329847661718914,6.627723471246273,1.6987647513582929,-11.333108134889434,16.087650307105537
1.8116143643639633,-4.443178743067809,6.644711118759855,1.8596412544293481,-12.294146272532565,17.612309018344597
1.7671825769332852,-4.566120205793134,6.663307531304149,2.035764344612794,-13.4131979151036,19.313026328293383
1.7215213748753537,-4.70025218494417,6.683665174750277,2.228894607895728,-14.718769951364731,21.224266244135116
1.674518853025912,-4.847439884457818,6.705954120829234,2.4411372703370793,-16.244218033852793,23.38622959918697
1.626044454181334,-5.009882064796345,6.730365493532605,2.6749995663289488,-18.027440156682715,25.844000829285292
1.5759456335333704,-5.190156466363172,6.757115489195894,2.9334395746218016,-20.108979271741564,28.644302108784437
1.5240440688697385,-5.391246259080588,6.786449884942113,3.219882595709646,-22.526620500621068,31.827105201039316
1.4701316062789327,-5.6165124640867985,6.818648710899209,3.5381536477200393,-25.30262649929446,35.406603509124366
1.4139664816380646,-5.869538729079743,6.85403024737641,3.892219682811283,-28.416104032373916,39.33090215878073
1.3552710943472672,-6.153699769403482,6.892952444204523,4.28552870439909,-31.746789329986335,43.40107616442592
1.2937340966532325,-6.471167662703345,6.935807731248514,4.71953946604335,-34.968528146895764,47.11909698779701
1.229022420026199,-6.8208529441723025,6.983003125908947,5.19073043592132,-37.370303418641846,49.43392579153426
1.160813890584476,-7.194555978358721,7.034910430268161,5.685069693836662,-37.62831470883107,48.42034874602797
1.0888683308008889,-7.570839125447032,7.091761127206527,6.169273181296942,-33.739952907133095,41.19100891217242
1.0131599395464186,-7.908238654518363,7.153453859019496,6.581183270418666,-23.717211542941968,24.889456279198058
0.934077553001235,-8.145410769947782,7.219265691723683,6.830077833210647,-7.641715708875964,-0.38253640311697656
0.8526234453017572,-8.221827927036541,7.287566470055789,6.826252469179478,10.325780205051895,-28.695895217087266
0.7704051660313918,-8.118570124986022,7.355828994747584,6.5392935170086055,23.90874945654944,-51.052991902756204
0.6892194647815315,-7.879482630420527,7.42122192991767,6.028763597981044,29.953520713055166,-62.82274040818604
0.6104246384773262,-7.579947423289975,7.481509565897481,5.400536193899184,29.865415180012356,-65.84496374371304
0.5346251642444264,-7.281293271489852,7.535514927836473,4.742086556462053,26.58248798827813,-64.19943410402999
0.4618122315295279,-7.015468391607071,7.582935793401093,4.100092215421753,22.2559671350671,-60.91252586235578
0.39165754761345717,-6.792908720256399,7.623936715555311,3.4909669567981956,17.960459660686126,-57.51194961417135
0.3237284604108932,-6.613304123649538,7.658846385123293,2.915847460656482,14.109654690132594,-54.59032680961944
0.2575954191743978,-6.472207576748212,7.688004859729857,2.369944192560288,10.810946882314852,-52.29638630597736
0.1928733434069157,-6.364098107925064,7.71170430165546,1.8469803295005143,8.053453678115362,-50.598109040665946
0.12923236232766505,-6.28356357114391,7.730174104950465,1.3409992390938548,5.791237569341671,-49.400676818392924
0.06639672661622595,-6.225651195450493,7.743584097341404,0.8469924709099255,3.9761450062422745,-48.59422799242028
0.0041402146617210145,-6.185889745388071,7.752054022050503,0.36105019098572266,2.5688690750898084,-48.07128492824092
-0.05771868279215969,-6.160201054637173,7.75566452396036,-0.11966265829668654,1.541139316001612,-47.73203184761698
-0.11932069333853143,-6.144789661477157,7.754467897377393,-0.5969829767728563,0.8744912231402917,-47.48522914852022
-0.180768589953303,-6.136044749245754,7.748498067609664,-1.0718352682580585,0.5578355401207071,-47.247967898265436
-0.24212903744576053,-6.130466393844547,7.7377797149270835,-1.544314947240713,0.5847092427601145,-46.945499951446926
-0.303433701384206,-6.1246193014169465,7.722336565454676,-2.013769946755182,0.9505621176496143,-46.51153191219315
-0.36467989439837545,-6.115113680240451,7.702198865987125,-2.4788852658771137,1.6502411516132949,-45.88899920592851
-0.42583103120078,-6.0986112687243175,7.677410013328354,-2.9377752579363987,2.6757749597274736,-45.031171546518344
-0.48681714388802316,-6.071853519127043,7.648032260748989,-3.388086973401582,4.014543423141579,-43.902875588700944
-0.5475356790792936,-6.031708084895627,7.614151391014974,-3.8271157292885913,5.647905973481903,-42.48161228638865
-0.6078527599282498,-5.975229025160807,7.575880233722088,-4.251931852152478,7.550342496471706,-40.75837626694358
-0.6676050501798579,-5.89972560019609,7.5333609152005625,-4.659515614821914,9.689133459353485,-38.73803832125273
-0.7266023061818189,-5.802834265602556,7.486765759052344,-5.046895998034442,12.024576655969136,-36.439215136275855
-0.7846306488378444,-5.682588499042865,7.436296799071999,-5.4112881493972,14.51071400389958,-33.893608053611
-0.841456533828273,-5.537481359003869,7.382183917578027,-5.75022422993331,17.09652703233868,-31.14483435278497
-0.8968313474183117,-5.366516088680482,7.324681675278694,-6.061672573461159,19.727552474254665,-28.24679747098804
-0.9504965083051166,-5.169240563937936,7.264064949544083,-6.34414054817104,22.34786309824069,-25.261652481478908
-1.002188913944496,-4.945761932955529,7.200623544062372,-6.596757072985828,24.902345178875276,-22.257431699746437
-1.0516465332740512,-4.6967384811667765,7.134655973332514,-6.819331389983293,27.33917736288945,-19.30541422245718
-1.098613918085719,-4.423346707537882,7.0664626594326805,-7.0123855322078645,29.612377731461393,-16.477358176876145
-1.1428473851610979,-4.127222930223268,6.996338804110602,-7.177159113976626,31.684246497843255,-13.842761178234747
-1.1841196144633306,-3.8103804652448354,6.924567212970835,-7.3155867257589735,33.527506664122704,-11.46635929124387
-1.222223419115779,-3.4751053986036085,6.851411345713245,-7.430250318671412,35.126949668650774,-9.406099667173697
-1.256974473101815,-3.1238359019171007,6.777108842526531,-7.524311315343149,36.48043633483838,-7.711812142019167
-1.288212832120986,-2.759031538568717,6.701865729373099,-7.601429436763341,37.5991824797076,-6.424755360664965
-1.3158031475066732,-2.383039713771641,6.625851435005466,-7.66567699036999,38.50735852498437,-5.578130684368058
-1.3396335446443897,-1.9979661285217973,6.5491946651017665,-7.721458297213671,39.24113046797854,-5.198558892893063
-1.3596132059296075,-1.6055548238420119,6.47198008212963,-7.773443886142601,39.84734088234254,-5.308418973878519
-1.3756687541680277,-1.2070814150185865,6.394245643268204,-7.826528075881386,40.38205158283862,-5.928865323842836
-1.3877395683182137,-0.8032608991902002,6.31598036250939,-7.8858167291198145,40.90912536156708,-7.083260450955362
-1.3957721773101157,-0.3941696455745294,6.237122195218192,-7.956649333629368,41.49888780670788,-8.80064298490721
-1.399713873765861,0.02081923249254941,6.157555701881899,-8.04465576347844,42.226628641874825,-11.118597507052131
-1.3995056814409355,0.44308551891129766,6.077109144247114,-8.155841738548961,43.17015079265447,-14.08429941064492
-1.3950748262518224,0.8747870268378424,5.995550726861624,-8.296684732655411,44.40447509343829,-17.75115703780055
-1.386326955983444,1.3188317777722254,5.91258387953507,-8.474196303033416,45.98957000547041,-22.165518891151212
-1.3731386382057216,1.7787274778269295,5.827841916504736,-8.695851491944929,47.94245466955934,-27.331726743168037
-1.3553513634274523,2.258152024522523,5.740883401585287,-8.96916875937661,50.1763567616557,-33.131693131549234
-1.332769843182227,2.75991559213908,5.651191713991521,-9.300485690692101,52.375316627439055,-39.15486775797222
-1.3051706872608362,3.2836687584134703,5.5581868570846,-9.692034368271823,53.75917993382662,-44.37436589888709
-1.2723339996767016,3.8212605577517365,5.461266513401881,-10.135778027260693,52.725729627358724,-46.645999032051336
-1.2341213940991842,4.3485178540253235,5.3599087331292745,-10.602238017581207,46.587409184424544,-42.322175008398666
-1.190636215558931,4.814391945869569,5.2538863529534625,-11.025459767665193,32.281019629589046,-27.187138890270596
-1.1424922961002353,5.137202142165459,5.143631755276811,-11.2973311565679,9.379363362635624,-0.554098376309866
-1.0911202746785806,5.230995775791816,5.030658443711132,-11.302872140330999,-16.25049749633551,29.74457251203728
-1.0388103169206624,5.068490800828461,4.917629722307821,-11.005426415210627,-35.24814163712575,51.22294049516424
-0.9881254089123778,4.7160093844572035,4.807575458155715,-10.493197010258985,-43.490309334755636,58.59760474028649
-0.9409653150678057,4.281106291109647,4.702643488053125,-9.90722096285612,-43.7855076030779,55.869869554519695
-0.8981542521567092,3.843251215078868,4.603571278424564,-9.348522267310925,-40.455382252045744,48.86391277638164
-0.8597217400059205,3.4386973925584106,4.510086055751454,-8.859883139547108,-36.193845783579455,41.07737850310978
-0.8253347660803364,3.076758934722616,4.4214872243559835,-8.44910935451601,-32.15217427504636,33.91149313050374
-0.7945671767331103,2.7552371919721526,4.336996130810824,-8.109994423210972,-28.688794440975553,27.728201594014088
-0.7670148048133888,2.468349247562397,4.255896186578714,-7.832712407270831,-25.84420508982015,22.494721429770287
-0.7423313123377648,2.2099071966641954,4.177569062506006,-7.607765192973129,-23.554067955927344,18.063185035243826
-0.7202322403711229,1.974366517104922,4.1014914105762745,-7.4271333426206905,-21.731532638898166,14.273634376975407
-0.7004885752000737,1.7570511907159405,4.0272200771500675,-7.284396998850936,-20.29525976840451,10.986030500174149
-0.6829180632929143,1.5540985930318953,3.954376107161558,-7.174536693849195,-19.176730998979984,8.086490591008006
-0.6673770773625953,1.3623312830420955,3.882630740223066,-7.0936717879391145,-18.32022105245192,5.485259685272896
-0.6537537645321744,1.1791290725175763,3.811694022343675,-7.038819191086385,-17.68048941681244,3.1128072959637074
-0.6419624738069987,1.0023241783494519,3.741305830432811,-7.007691118126748,-17.219989858833355,0.9162164130224533
-0.6319392320235041,0.8301242797611184,3.6712289192515435,-6.998528953996523,-16.90615046144978,-1.1435077525069564
-0.623637989225893,0.6610627751466205,3.601243629711578,-7.0099640315215925,-16.70881674344795,-3.0931082836982937
-0.6170273614744267,0.49397460771214097,3.5311439893963623,-7.040895114358576,-16.597796143132342,-4.947781996391187
-0.6120876153973053,0.32799664628081754,3.4607350382527766,-7.090372934322488,-16.540411737930246,-6.711012070605913
-0.6088076489344971,0.16259252890151507,3.3898313089095518,-7.157483055028547,-16.49900341961802,-8.373638954553273
-0.607181723645482,-0.0023975052946651476,3.3182564783592663,-7.24121944457408,-16.42839256259512,-9.912332047488102
-0.6072056986984286,-0.16668143092061635,3.2458442839135255,-7.340342765048961,-16.273460490389336,-11.287743452417281
-0.6088725130076347,-0.32941603582450973,3.172440856263036,-7.453220199573134,-15.967198601537987,-12.442840142153393
-0.6121666733658798,-0.48908802183988964,3.0979086542673047,-7.577648600994668,-15.42987812598644,-13.302237386959085
-0.6170575535842787,-0.643386803099754,3.022132168257358,-7.710670974864259,-14.570336096813346,-13.773768535073437
-0.6234914216152763,-0.7890901640678876,2.945025458508715,-7.848408660214993,-13.290683353437329,-13.753909145783348
-0.6313823232559551,-0.9219969976022608,2.8665413719065653,-7.9859477516728266,-11.495792519338076,-13.138765230189254
-0.6406022932319777,-1.0369549227956416,2.786681894389837,-8.11733540397472,-9.108370088342319,-11.84171075551066
-0.6509718424599341,-1.1280386236790647,2.70550854035009,-8.235752511529826,-6.088883119752211,-9.816956384810746
-0.6622522286967247,-1.188927454876587,2.6231510152347917,-8.333922075377934,-2.457010657853079,-7.085229990455926
-0.6741415032454906,-1.2134975614551178,2.5398117944810124,-8.404774375282493,1.6917024259179616,-3.7541525254544728
-0.6862764788600417,-1.1965805371959382,2.4557640507281873,-8.442315900537038,6.181993515838602,-0.02384773801392675
-0.6982422842320011,-1.134760602037552,2.371340891722817,-8.442554377917176,10.774074606957555,3.8296113561879643
-0.7095898902523766,-1.0270198559679764,2.286915347943645,-8.404258264355297,15.198052544776003,7.49315388028145
-0.7198600888120564,-0.8750393305202164,2.202872765300092,-8.329326725552482,19.199540668039127,10.668639001106968
-0.7286104821172585,-0.6830439238398252,2.1195794980445672,-8.222640335541412,22.58271182654099,13.121748734588229
-0.7354409213556568,-0.45721680557441524,2.037353094689153,-8.09142284819553,25.237745393582866,14.712827310574816
-0.7400130894114009,-0.20483935163858658,1.9564388662071976,-7.944294575089781,27.146483403178557,15.402736198826732
-0.7420614829277867,0.06662548239319899,1.8769959204562998,-7.790267213101514,28.368813607688587,15.23680629309915
-0.7413952281038547,0.35031361847008485,1.7990932483252846,-7.637899150170523,29.018050392456107,14.316397794997505
-0.7378920919191538,0.6404941223946459,1.7227142568235794,-7.494735172220548,29.234484683721575,12.768400081464211
-0.7314871506952074,0.9328389692318617,1.647766905101374,-7.367051171405906,29.16361098812759,10.71984250458883
