th1 (rad),w1 (rad/s),th2 (rad),w2 (rad/s),a1 (rad/s^2),a2 (rad/s^2)
3.6056863703831636,-1.4639181713808629,1.050046456403155,0.999689344801919,1.6274078908794178,-5.959945161261211
3.591047188669355,-1.4476440924720686,1.0600433498511743,0.9400898931893068,1.4968492940521332,-6.121352652019992
3.576570747744634,-1.4326755995315472,1.0694442487830673,0.8788763666691068,1.376262725293612,-6.268873123646505
3.5622439917493187,-1.4189129722786111,1.0782330124497583,0.8161876354326418,1.2639807824544507,-6.404058272345481
3.5480548620265324,-1.4062731644540667,1.0863948888040849,0.752147052709187,1.1584403116542146,-6.528326854556756
3.533992130381992,-1.3946887613375245,1.0939163593311767,0.6868637841636195,1.058188618076154,-6.642955458380079
3.520045242768617,-1.384106875156763,1.100784997172813,0.6204342295798186,0.9618844300376418,-6.749076748642744
3.506204174017049,-1.3744880308563865,1.1069893394686112,0.5529434620933912,0.8682952346492746,-6.847682926788805
3.4924592937084853,-1.3658050785098936,1.112518774089545,0.4844666328255031,0.7762922518589607,-6.939632638904755
3.4788012429233865,-1.358042155991304,1.1173634404178001,0.4150703064364556,0.6848440109158725,-7.025659985638306
3.4652208213634736,-1.3511937158821454,1.1215141434821647,0.34481370658007254,0.5930092425268302,-7.106384633642125
3.451708884204652,-1.3452636234568771,1.1249622805479655,0.2737498602436513,0.49992959868600856,-7.1823223041975925
3.4382562479700836,-1.340264327470017,1.127699779150402,0.20192663720167536,0.40482255484251745,-7.2538951293205525
3.4248536046953832,-1.336216101921592,1.1297190455224186,0.12938768590846983,0.306974729081951,-7.321441528716125
3.411491443676167,-1.3331463546307725,1.1310129223815033,0.05617327062130857,0.20573576363499374,-7.385225382097494
3.3981599801298596,-1.3310889969944226,1.1315746550877164,-0.017678983199666376,0.10051284912547355,-7.445444359383366
3.3848490901599155,-1.330083868503168,1.1313978652557197,-0.09213342679350003,-0.009234073821237995,-7.502237333683878
3.371548251474884,-1.3301762092413802,1.1304765309877847,-0.16715580013033882,-0.12399643214145976,-7.5556908450267795
3.35824648938247,-1.3314161735627947,1.1288049729864813,-0.24271270858060662,-0.24422047374282005,-7.605844611500925
3.344932327646842,-1.333858378300223,1.1263778459006752,-0.3187711546956159,-0.37031008544837857,-7.652696102870666
3.33159374386384,-1.3375614791547068,1.1231901343537192,-0.39529811572432255,-0.5026290102963985,-7.696204202811271
3.318218129072293,-1.3425877692576709,1.119237153196476,-0.47226015775243524,-0.6415025010028668,-7.736291992068046
3.3047922513797166,-1.3490027942676996,1.1145145516189516,-0.5496230776731157,-0.787218445556538,-7.77284868780283
3.2913022234370395,-1.356874978723265,1.1090183208422204,-0.627351564551144,-0.9400279982612607,-7.805730775459697
3.277733473649807,-1.3662752587058775,1.102744805196709,-0.705408872305741,-1.1001457458321726,-7.834762369607887
3.264070721062748,-1.3772767161641992,1.0956907164736516,-0.7837564960018198,-1.2677494339747521,-7.859734840093386
3.250297953901106,-1.3899542105039469,1.0878531515136334,-0.8623538444027538,-1.4429792756807687,-7.880405739946546
3.2363984117960665,-1.4043840032607546,1.0792296130696057,-0.9411579018022193,-1.6259368586207619,-7.896497072206913
3.222354571763459,-1.4206433718469622,1.0698180340515835,-1.0201228725242883,-1.8166836657893672,-7.9076929343912905
3.208148138044989,-1.438810208504856,1.0596168053263406,-1.0991998018682012,-2.015239221212463,-7.91363658193063
3.1937600359599405,-1.4589626007169807,1.0486248073076585,-1.1783361676875075,-2.2215788712669404,-7.91392695566965
3.179170409952771,-1.4811783894296502,1.0368414456307835,-1.257475437244204,-2.435631212184522,-7.90811472355884
3.1643586260584744,-1.5055347015514955,1.0242666912583416,-1.3365565844797924,-2.65727517578376,-7.895697893046598
3.1493032790429596,-1.532107453309333,1.0109011254135436,-1.4155135634102585,-2.8863367885554516,-7.876117058451752
3.1339822045098664,-1.5609708211948876,0.9967459897794411,-1.494274733994776,-3.1225856240558794,-7.848750356795845
3.1183724962979174,-1.5921966774354464,0.9818032424394934,-1.5727622375627344,-3.3657309752580606,-7.8129082162095935
3.102450529523563,-1.6258539871880269,0.966075620063866,-1.6508913197248303,-3.615417782164542,-7.76782799307704
3.0861919896516827,-1.6620081650096723,0.9495667068666177,-1.7285695996556008,-3.87122236065333,-7.7126686074881805
3.069571908001586,-1.7007203886162057,0.9322810108700617,-1.8056962857304826,-4.132647991223601,-7.646505301232707
3.052564704115424,-1.7420468685284416,0.9142240480127568,-1.8821613387428096,-4.399120440990663,-7.568324658327407
3.0351442354301397,-1.7860380729383483,0.8954024346253288,-1.9578445853260837,-4.669983508847636,-7.4770200447084285
3.0172838547007563,-1.8327379080268247,0.8758239887720679,-2.032614785773168,-4.944494701994007,-7.3713876409492745
2.998956475620488,-1.8821828550467647,0.8554978409143362,-2.1063286621826607,-5.2218211717832945,-7.250123259328792
2.9801346470700203,-1.9344010667645977,0.8344345542925096,-2.178829894775949,-5.501036057745595,-7.111820153845445
2.960790636402374,-1.9894114273420536,0.8126462553447501,-2.2499480963144034,-5.781115410309683,-6.954968048372302
2.940896522128954,-2.0472225814451503,0.7901467743816061,-2.3194977767981264,-6.060935884744652,-6.777953623547466
2.9204242963145024,-2.1078319402925967,0.7669517966136248,-2.387277313033601,-6.3392734206916534,-6.579062716653548
2.8993459769115764,-2.171224674499513,0.7430790234832888,-2.4530679402001363,-6.614803142890635,-6.356484500121855
2.8776337301665813,-2.2373727059284194,0.7185483440812874,-2.516632785201355,-6.8861007388894455,-6.108317912900337
2.855260003107297,-2.306233713317314,0.6933820162292739,-2.577715964330358,-7.1516455882931265,-5.832580624299514
2.8321976659741237,-2.377750169200245,0.6676048565859702,-2.636041770573353,-7.409825935221164,-5.527220811681045
2.808420164282121,-2.4518484285524567,0.6412444388802367,-2.6913139786901636,-7.658946410972925,-5.190132031100362
2.7839016799965965,-2.5284378926621858,0.6143312990933351,-2.743215299001167,-7.897238227463937,-4.819171453314733
2.758617301069975,-2.607410274936825,0.5868991461033234,-2.7914070135343145,-8.122872373867732,-4.412181725757849
2.7325431983206068,-2.6886389986755024,0.5589850759679802,-2.835528830791893,-8.333976159114318,-3.9670167030355494
2.7056568083338517,-2.7719787602666455,0.5306297876600613,-2.8751989978222485,-8.52865345125115,-3.4815712622833854
2.6779370207311852,-2.857265294779157,0.5018777976818388,-2.910014710445082,-8.705008970430566,-2.9538153821647377
2.649364367783394,-2.944315384483463,0.472777650577388,-2.9395528642667297,-8.86117699380341,-2.381832610423142
2.619921213938559,-3.032927154421497,0.4433821219347207,-2.963371190370961,-8.995354824867059,-1.7638629674544333
2.589591942394344,-3.1228807026701673,0.4137484100310111,-2.9810098200455055,-9.105841361994585,-1.0983502222347938
2.5583631353676424,-3.213939116290113,0.38393831183055604,-2.9919933222678536,-9.191081063872495,-0.38399331893214883
2.5262237442047413,-3.305849926928838,0.3540183786078775,-2.995833255457175,-9.249713543839434,0.3801984885502222
2.493165244935453,-3.3983470623672325,0.32406004605330574,-2.992031270571673,-9.280628918769427,1.1948475394263314
2.459181774311781,-3.4911533515549267,0.294139733347589,-2.9800827951774096,-9.283028877701318,2.0601478547035263
2.4242702407962318,-3.58398364033194,0.26433890539581495,-2.959481316630374,-9.25649320732551,2.9758050805523233
2.3884304043929125,-3.6765485724051947,0.2347440922295112,-2.929723265824851,-9.201051204587573,3.940978603568102
2.3516649186688605,-3.7685590844510704,0.20544685957126269,-2.89031347978917,-9.117257016010104,4.954228930260723
2.3139793278243497,-3.8597316546111715,0.176543724773371,-2.8407711904865627,-9.006267474543188,6.013474306143976
2.275382011278238,-3.9497943293566036,0.14813601286850536,-2.780636447425123,-8.869920479555075,7.115961497678519
2.235884067984672,-4.038493534152154,0.12032964839425413,-2.709476832448338,-8.710811427042447,8.258256600825062
2.1954991326431506,-4.125601648422579,0.09323488006977075,-2.6268942664400874,-8.53236471382405,9.436262569839528
2.154243116158925,-4.21092529556082,0.06696593740536988,-2.5325316407416922,-8.338897006863235,10.64527074854357
2.1121338632033164,-4.294314265629453,0.04164062099795296,-2.4260789332562567,-8.13566890645502,11.880053887039983
2.069190720547022,-4.3756709546940025,0.017379831665390394,-2.307278394385857,-7.9289219746098025,13.135007798103937
2.025434011000082,-4.4549601744401,-0.005692952278468177,-2.1759283164048178,-7.725898982361185,14.404347843225711
1.980884409255681,-4.532219164263712,-0.027452235442516355,-2.0318848379725605,-7.534846765577031,15.682364805925793
1.9355622176130438,-4.6075676319194825,-0.04777108382224196,-1.8750611899133025,-7.365003336452034,16.963742490102753
1.889486541293849,-4.681217665284003,-0.06652169572137498,-1.705423765012275,-7.226573877707674,18.24393680043111
1.842674364641009,-4.75348340406108,-0.08357593337149773,-1.522984397007964,-7.130703867253663,19.519613508038933
1.7951395306003983,-4.824790442733616,-0.09880577734157736,-1.3277882619275747,-7.089461680304708,20.789139913635616
1.7468916261730623,-4.895685059536663,-0.11208365996085311,-1.1198968627912185,-7.115847370181113,22.05312482593072
1.6979347755776957,-4.966843533238474,-0.12328262858876529,-0.8993656145319113,-7.223848690458962,23.315002318575893
1.648266340245311,-5.039082020143064,-0.1322762847340844,-0.6662155913461524,-7.428569559570652,24.581658137907304
1.5978755200438803,-5.11336771573877,-0.13893844064754593,-0.42039900996707935,-7.746459891655705,25.864103641770864
1.5467418428864925,-5.190832314655327,-0.14314243074721672,-0.16175797354937071,-8.195678817244863,27.178210467747437
1.4948335197399392,-5.272789102827776,-0.14476001048271042,0.11002413112810366,-8.796625359048598,28.54552855895448
1.4421056287116614,-5.360755356418262,-0.1436597691714294,0.39547941671764847,-9.572670402368928,29.99421786004528
1.3884980751474787,-5.456482060441951,-0.1397049750042529,0.6954215953181013,-10.551118094729217,31.560123809084935
1.333933254543059,-5.561993241389244,-0.1327507590510719,1.0110228334089506,-11.764405749626023,33.28800573700214
1.2783133221291667,-5.679637298885504,-0.12264053071698239,1.343902890778972,-13.25150062509632,35.23285776423329
1.2215169491403117,-5.812152305136467,-0.10920150180919266,1.696231468421305,-15.059328380515819,37.46108389628001
1.163395426088947,-5.962745588941625,-0.09223918712497961,2.070842307384105,-17.243780039293988,40.05087229974887
1.1037679701995307,-6.135183389334565,-0.07153076405113856,2.471351030381594,-19.86919019939367,43.09017313513006
1.042416136306185,-6.333875291328502,-0.046817253747322624,2.9022527617328944,-23.003719138647735,46.668600758382475
0.9790773833929,-6.563912482714979,-0.01779472612999368,3.368938769316719,-26.70486890808571,50.855040434402135
0.9134382585657501,-6.8309611717958365,0.015894661563173512,3.8774891736607406,-30.982544090877905,55.64311910426239
0.8451286468477918,-7.140786612704615,0.05466955329978092,4.433920364703365,-35.71346308526776,60.82758773640381
0.7737207807207456,-7.497921243557293,0.09900875694681457,5.042196242067403,-40.45777717074613,65.74259657522646
0.6987415682851726,-7.9024990152647545,0.1494307193674886,5.699622207819668,-44.108851854387794,68.7656335029617
0.6197165781325251,-8.343587533808632,0.2064269414456853,6.387278542849285,-44.37660500629425,66.59089870295345
0.5362807027944387,-8.787353583871575,0.27029972687417814,7.053187529878819,-37.55467849345096,53.9143687887139
0.44840716695572297,-9.162900368806085,0.3408316021729663,7.592331217765959,-20.159354759397814,25.78146357234647
0.3567781632676621,-9.364493916400063,0.4167549143506259,7.8501458534894235,6.033564418183246,-15.246142467118425
0.26313322410366147,-9.304158272218231,0.49525637288552016,7.697684428818239,30.81510544259039,-54.560493875066136
0.17009164138147914,-8.996007217792327,0.5722332171737026,7.152079490067578,43.9944742608442,-77.46608215696904
0.08013156920355587,-8.556062475183884,0.6437540120743783,6.377418668497888,45.271591933013426,-83.26175724726234
-0.005429055548282977,-8.103346555853749,0.7075281987593572,5.544801096025265,40.28685205503258,-79.79303732089971
-0.08646252110682047,-7.700478035303423,0.7629762097196099,4.746870722816268,33.564958268493534,-73.46597172541804
-0.16346730145985472,-7.364828452618488,0.8104449169477725,4.012211005562087,27.14292032154122,-67.21918071711397
-0.2371155859860396,-7.093399249403076,0.8505670270033934,3.340019198390948,21.636385497260278,-61.974904998038554
-0.30804957848007036,-6.877035394430473,0.8839672189873029,2.7202701484105622,17.104025388964207,-57.844081199402254
-0.3768199324243751,-6.705995140540831,0.9111699204714085,2.1418293364165395,13.437648485552385,-54.677938135504235
-0.44387988382978344,-6.571618655685307,0.9325882138355739,1.5950499550614972,10.503847775619889,-52.27268912871363
-0.5095960703866365,-6.466580177929108,0.9485387133861889,1.0723230637743608,8.18701741166825,-50.43510366320994
-0.5742618721659275,-6.384710003812426,0.9592619440239325,0.5679720271422615,6.397630981554019,-48.99853676065147
-0.6381089722040517,-6.3207336939968854,0.9649416642953551,0.0779866595357468,5.069561940102249,-47.82316152645488
-0.7013163091440205,-6.270038074595863,0.9657215308907126,-0.40024495572880203,4.154714393113489,-46.792313884109404
-0.7640166898899792,-6.228490930664728,0.9617190813334245,-0.8681680945698961,3.6176355082827443,-45.808833112787774
-0.8263015991966265,-6.192314575581901,0.9530374003877256,-1.3262564256977738,3.4308560144854123,-44.79241432178113
-0.8882247449524455,-6.158006015437047,0.9397748361307479,-1.7741805689155852,3.5710928630997745,-43.67799718549273
-0.949804805106816,-6.122295086806049,0.922033030441592,-2.2109605407705124,4.0162852876093,-42.4149021217651
-1.0110277559748764,-6.082132233929956,0.8999234250338869,-2.6351095619881635,4.743409574462494,-40.966362170917
-1.0718490783141759,-6.034698138185331,0.8735723294140052,-3.0447731836973335,5.727018299533166,-39.30913483098198
-1.1321960596960292,-5.97742795519,0.8431245975770318,-3.4378645320071533,6.938442433073755,-37.432957733391966
-1.1919703392479293,-5.908043530859262,0.8087459522569603,-3.812194109341073,8.345575665278691,-35.33970965080055
-1.2510507745565218,-5.824587774206475,0.7706240111635496,-4.165591205849078,9.913137376627823,-33.04223543814444
-1.3092966522985865,-5.725456400440197,0.7289680991050589,-4.496013560230523,11.603294291361111,-30.56287398320894
-1.3665512163029885,-5.609423457526586,0.6840079635027536,-4.801642300062612,13.376518608852972,-27.93178016661965
-1.4226454508782544,-5.475658271438056,0.6359915405021275,-5.080960101728809,15.192574230638034,-25.185150564614815
-1.477402033592635,-5.323732529131676,0.5851819394848394,-5.332811607374957,17.011548534267757,-22.363452060293483
-1.5306393588839518,-5.153617043788999,0.5318538234110899,-5.556446127977892,18.794876897832296,-19.50972347587188
-1.5821755293218418,-4.9656682748106755,0.47628936213131096,-5.75154336273661,20.506331968467073,-16.667986680438474
-1.6318322120699487,-4.760604955126005,0.41877392850394485,-5.918223229540995,22.112963056189514,-13.88177775125708
-1.6794382616212087,-4.539475324564109,0.3595916962085349,-6.0570410070535665,23.585971109264765,-11.192797979415218
-1.7248330148668498,-4.303615613471462,0.2990212861379992,-6.168968986847719,24.901494443598484,-8.639689520704417
-1.7678691710015644,-4.054600669035477,0.23733159626952205,-6.255365882054763,26.041266247782094,-6.2569561720648075
-1.808415177691919,-3.7941880065576554,0.1747779374489744,-6.3179354437754105,26.993094497876218,-4.074067633036384
-1.8463570577574957,-3.524257061578893,0.1115985830112203,-6.358676120105774,27.751114464435386,-2.114797096434305
-1.8815996283732845,-3.246745916934539,0.04801182181016256,-6.379824091070117,28.3157762469334,-0.39684123375827185
-1.91406708754263,-2.963588154465205,-0.015786419100538615,-6.3837925034077,28.69355337390402,1.0682429091381556
-1.943702969087282,-2.676652620726165,-0.07962434413461562,-6.373110074316319,28.896388634001557,2.274775002800694
-1.9704694952945436,-2.3876887343861495,-0.14335544487777882,-6.350362324288312,28.94092333926202,3.2223836994808757
-1.9943463826384051,-2.098279500993529,-0.20685906812066196,-6.318138487293504,28.84757982801742,3.9151834940093386
-2.0153291776483404,-1.809803702713355,-0.270040452993597,-6.27898665235341,28.639579847912007,4.360765982344275
-2.033427214675474,-1.5234079042342348,-0.33283031951713116,-6.235378992529967,28.34198204094504,4.569084621767547
-2.0486612937178164,-1.2399880838247843,-0.3951841094424308,-6.189688146312292,27.98081135034369,4.55131010009603
-2.0610611745560643,-0.9601799703213474,-0.45708099090555376,-6.144175045311332,27.582334908792717,4.318722480769578
-2.0706629742592777,-0.6843566212334202,-0.518522741358667,-6.1009878205036365,27.172516584209756,3.881690408245733
-2.077506540471612,-0.4126314553913227,-0.5795326195637034,-6.062170916421179,26.776658988849483,3.2487715386884584
-2.0816328550255254,-0.14486486550282784,-0.6401543287279152,-6.0296832010342944,26.419218997227333,2.425956851628109
-2.0830815036805537,0.1193273244694455,-0.7004511607382582,-6.0054236325180135,26.12376005604063,1.4160796795326585
-2.081888230435859,0.3805649250298518,-0.7605053970634383,-5.9912628357226865,25.912978368874068,0.21842440006871988
-2.0780825811855603,0.6396947087185925,-0.8204180254206652,-5.9890785917219995,25.808703199812424,-1.1713908760810279
-2.0716856340983743,0.8977817407167167,-0.8803088113378852,-6.0007925004828095,25.831711320474007,-2.7611027762100604
-2.062707816691207,1.1560988539214567,-0.9403167363427133,-6.02840352824491,26.001090532293986,-4.560758108619539
-2.0511468281519925,1.4161097592443965,-1.0006007716251624,-6.0740111093311056,26.332701943007308,-6.580366501876354
-2.0369857305595485,1.6794367786744697,-1.0613408827184734,-6.139814774349869,26.83597017195655,-8.82522227644453
-2.020191362772804,1.9477964803940353,-1.122739030461972,-6.228066997114314,27.50769902943255,-11.28710905045247
-2.0007133979688634,2.222873470688361,-1.185019700433115,-6.340938087618839,28.320797551094795,-13.928438148428846
-1.9784846632619797,2.506081446199309,-1.2484290813093035,-6.480222469103127,29.204768063422417,-16.65487730435598
-1.9534238487999867,2.7981291268335333,-1.3132313060003349,-6.646771242146687,30.01414954818333,-19.271008708838828
-1.9254425575316514,3.0982706223153667,-1.3796990184218019,-6.839481329235075,30.483005900712715,-21.41603103971754
-1.8944598513084978,3.4031006813224938,-1.4480938317141527,-7.05364163963225,30.173749446336124,-22.49050941064061
-1.8604288444952728,3.704838175785855,-1.5186302481104752,-7.278546733738656,28.45752357534142,-21.62533435635105
-1.8233804627374142,3.989413411539269,-1.5914157154478619,-7.494800077302166,24.615854407040786,-17.817438485722075
-1.7834863286220215,4.235571955609677,-1.6663637162208835,-7.672974462159387,18.18341144514806,-10.39994208861293
-1.7411306090659247,4.4174060700611575,-1.7430934608424775,-7.776973883045517,9.504419485500945,0.18879747786851844
-1.696956548365313,4.512450264916167,-1.8208631996729328,-7.775085908266831,0.052523363492913755,11.959620862494857
-1.6518320457161515,4.5129754985510955,-1.898614058755601,-7.655489699641882,-8.118174112409987,22.125679649948566
-1.6067022907306405,4.431793757426996,-1.9751689557520198,-7.434232903142397,-13.564000439106968,28.737547493278655
-1.5623843531563706,4.296153753035926,-2.049511284783444,-7.146857428209611,-16.102497597161094,31.56732357424191
-1.5194228156260112,4.135128777064315,-2.1209798590655398,-6.831184192467192,-16.436316267757537,31.581758155925993
-1.478071527855368,3.97076561438674,-2.1892917009902115,-6.515366610907932,-15.454476336935123,29.984384423647192
