th1 (rad),w1 (rad/s),th2 (rad),w2 (rad/s)
5.368847890926501,1.759861767864662,2.7928686391164073,0.9836015625520859
5.386446508605148,1.8653756862733264,2.802704654741928,1.0557947299624384
5.405100265467881,1.9709981060995034,2.8132626020415525,1.131245153933189
5.4248102465288754,2.0766560530311104,2.8245750535808845,1.210030738422472
5.445576807059187,2.1822615939266368,2.836675360965109,1.2922080985351085
5.467399422998453,2.287710988691066,2.84959744195046,1.3778111222816414
5.490276532885363,2.392883964586706,2.8633755531732765,1.4668496750320628
5.51420537253123,2.497643146529856,2.8780440499235973,1.559308498083651
5.539181803996529,2.6018336769904398,2.893637134904434,1.6551463547327867
5.565200140766433,2.7052830576464912,2.9101885984517617,1.7542954770445036
5.592252971342898,2.8078012417345732,2.927731553222207,1.8566613637190468
5.620330983760244,2.90918100093692,2.946298166859397,1.962122973712534
5.649422793769613,3.00919858360922,2.9659193965965223,2.070533351358902
5.6795147796057055,3.1076146722526636,2.9866247301101114,2.181720706616794
5.710590926328232,3.204175637579799,3.008441937176279,2.295489958893209
5.74263268270403,3.2986150746679654,3.0313968367652113,2.4116247350754545
5.775618833450709,3.3906555940244516,3.0555130841159657,2.5298897925730204
5.809525389390954,3.4800108275066544,3.0808119820416957,2.6500338171912783
5.844325497666021,3.566387596631625,3.1073123202136084,2.771792524568128
5.879989373632337,3.6494881795913017,3.1350302454592898,2.8948919738577956
5.91648425542825,3.7290126039659444,3.1639791651978677,3.019051984534334
5.953774381467909,3.804660885335986,3.194169685043211,3.143989532752645
5.991820990321269,3.8761351282582974,3.2256095803707376,3.2694219936549573
6.030582341603852,3.9431414057815224,3.2583038003072873,3.3950700911501737
6.070013755661667,4.005391337055783,3.292254501218789,3.5206604175766834
6.110067669032225,4.062603289724109,3.3274611053945558,3.6459273925737823
6.150693701929466,4.114503144620854,3.3639203793202936,3.770614543469247
6.191838733375675,4.160824574714911,3.401626524754986,3.8944750083716038
6.2334469791228235,4.201308808053399,3.440571274838702,4.017271187628252
6.275460067203357,4.235703865523036,3.4807439867149843,4.1387734990094
6.3178171058585875,4.263763288432825,3.5221317217050783,4.258758226555049
6.360454738742916,4.285244398169151,3.564719303970629,4.377004492205121
6.403307182724607,4.2999061604541415,3.60848934889268,4.493290422944394
6.446306244329148,4.307506759993695,3.653422253122124,4.607388634122182
6.489381311929085,4.307801027335913,3.699496139463346,4.719061201706684
6.5324593222024445,4.300537898068377,3.746686751480413,4.828054352151083
6.575464701183129,4.285458124027144,3.794967295001924,4.934093157457141
6.6183192824234,4.262292495136317,3.844308226576495,5.036876583284144
6.660942207374763,4.230760865922076,3.8946769924093365,5.136073296713728
6.703249816033984,4.190572308374798,3.946037725376474,5.231318693061359
6.745155539117732,4.141426726874022,3.9983509123070875,5.322213641460401
6.786569806386472,4.083018264064148,4.051573048721692,5.408325468233476
6.827399989027114,4.015040790474137,4.105656303404027,5.489191684763385
6.867550396931856,3.9371956966300106,4.160548220251661,5.564326910936264
6.906922353898156,3.8492020868734667,4.216191489361023,5.63323333477383
6.945414374766891,3.7508093047064333,4.272523822708761,5.695414874678493
6.982922467813955,3.6418115015388715,4.329477971455546,5.750394969457345
7.019340582829344,3.5220637037988993,4.386981921150119,5.797737618653657
7.054561219867333,3.39149855732481,4.444959297336656,5.837070949487993
7.088476205440581,3.250142663494653,4.503330006831535,5.868112228522121
7.120977632075528,3.098131208383985,4.562011129116756,5.890692910655474
7.151958944159368,2.935719468296482,4.620918058223311,5.904782078582014
7.181316138842333,2.7632897926177815,4.679965879009131,5.910506526273039
7.2089490367685105,2.581352845186853,4.7390709442718615,5.90816582382593
7.234762565220379,2.390542232734685,4.798152602510121,5.8982409893162675
7.258667987547725,2.191602139037927,4.857135012403283,5.881395875826589
7.280584008938105,1.9853681626422879,4.91594897116155,5.858471013454142
7.300437690564528,1.7727421482265273,4.974533681296091,5.830470351492508
7.318165112046793,1.554662321637218,5.032838384811016,5.798542032346616
7.333711735263165,1.3320704087264488,5.090823805134482,5.763954903941678
7.347032439350429,1.1058775843257194,5.148463354173899,5.7280728687919895
7.358091215193687,0.8769310400052612,5.205744082861819,5.69232933682095
7.366860525593739,0.645982694046936,5.262667376230028,5.658203996976465
7.373320352534209,0.4136611407862748,5.319249416199793,5.627203888249487
7.3774569639420715,0.18044741343412177,5.375521455082287,5.600850398764705
7.379261438076413,-0.053345417877832785,5.431529959069935,5.580673428618102
7.378727983897635,-0.2875893150469163,5.487336693356116,5.568213591532791
7.375852090747165,-0.5223559659914758,5.5430188292714435,5.565033061420312
7.370628531087251,-0.757930429979079,5.598669159885647,5.572735530925947
7.36304922678746,-0.9948253383986803,5.6543965151949065,5.592995754407183
7.353100973403473,-1.23379744678061,5.710326472738978,5.627599285289492
7.340762998935666,-1.4758684348733504,5.766602465591873,5.678493240427774
7.326004314586933,-1.7223518214484588,5.823387397996151,5.747849127240956
7.3087807963724485,-1.9748875736131484,5.880865889268561,5.838138733998354
7.289031920636317,-2.235485138714775,5.939247276608545,5.952223349936063
7.26667706924917,-2.506573519397903,5.9987695101079055,6.09345417561172
7.24161133405519,-2.7910521547625273,6.059704051864022,6.265775633104592
7.2137008125075655,-3.092325585765326,6.122361808195068,6.473808991565436
7.182777556649913,-3.414281506193503,6.187099898110723,6.7228620270126145
7.148634741587977,-3.761122171753719,6.254328518380849,7.018742267406272
7.11102351987044,-4.136856700754118,6.324515941054911,7.367109455670033
7.0696549528629,-4.544061323163946,6.3981870356116115,7.771823223181404
7.02421433963126,-4.981167081758627,6.475905267843426,8.231253718224766
6.974402668813673,-5.437113377530161,6.558217805025674,8.730923099083173
6.920031535038372,-5.882420485070975,6.645527036016506,9.23111549239536
6.8612073301876615,-6.259131509997193,6.737838190940459,9.65278276825119
6.798616015087689,-6.48262807265009,6.834366018622971,9.879753419449813
6.7337897343611886,-6.478056110942985,6.933163552817469,9.808841872645953
6.669009173251759,-6.242500187687153,7.031251971543928,9.435531108725717
6.606584171374887,-5.857627807939565,7.125607282631186,8.870878721887625
6.548007893295492,-5.4247887882896055,7.214316069850062,8.251711990622624
6.493760005412596,-5.009201255233037,7.296833189756288,7.664496977323053
6.443667992860266,-4.6370226924316,7.373478159529519,7.142304201292618
6.397297765935949,-4.312760573132541,7.444901201542445,6.689157489864999
6.354170160204624,-4.032415588294375,7.511792776441094,6.298052202200841
6.31384600432168,-3.7897349843192405,7.574773298463103,5.9593725397483865
6.275948654478487,-3.5785914939595864,7.6343670238605865,5.664002132655951
6.240162739538891,-3.393700167590909,7.691007045187146,5.404197720905447
6.206225737862982,-3.230713477090843,7.745049022396201,5.1736481593135455
6.173918603092074,-3.0861156375041237,7.796785503989336,4.967284838567883
6.143057446717032,-2.9570729161622196,7.8464583523750155,4.781049375203224
6.11348671755541,-2.8412928652082976,7.894268846127048,4.611685026462006
6.085073788903327,-2.7369065870879687,7.940385696391668,4.4565673109729085
6.0577047230324474,-2.642374566969536,7.984951369501397,4.313572170832633
6.031280977362752,-2.556412555634625,8.028087091209724,4.18097534972053
6.005716851806406,-2.477933369502287,8.069896844706928,4.05737633008948
5.980937518111383,-2.4060009718767934,8.110470608007823,3.941641122601543
5.9568775083926155,-2.339793957574703,8.149887019233839,3.832859342814412
5.933479568816868,-2.2785762920299972,8.188215612661983,3.730311994428968
5.910693805896568,-2.2216737770536046,8.225518732606272,3.6334471282667744
5.888477068126032,-2.1684552227344365,8.26185320388894,3.54186107888588
5.8667925158986876,-2.118317711681546,8.2972718146778,3.4552833427664886
5.845609338781872,-2.070675659724012,8.331824648105464,3.3735634071702645
5.824902582184632,-2.024953609753379,8.365560282177166,3.2966580226788165
5.804653046087098,-1.980582836740129,8.398526862403953,3.224617590914046
5.784847217719697,-1.937001879553305,8.430773038313093,3.1575705658398077
5.765477198924163,-1.893661035587002,8.462348743971491,3.0957050883632165
5.746540588568293,-1.8500306512603075,8.493305794855123,3.0392475182733207
5.72804028205569,-1.8056127261818042,8.523698270037857,2.98843809390196
5.709984154793872,-1.7599549575338829,8.553582650976876,2.9435045970230034
5.692384605218534,-1.7126659489512164,8.583017696947106,2.904635543263641
5.6752579457290215,-1.6634299823566523,8.612064052379743,2.8719549367665858
5.658623645905455,-1.61201959521496,8.64078360174741,2.8455008919996927
5.642503449953305,-1.5583042934393678,8.669238610667406,2.8252103321384214
5.626920407018912,-1.5022540900238766,8.69749071398879,2.8109114841201666
5.611897866118674,-1.4439371568171835,8.725599828829992,2.8023250572468865
5.5974584945505015,-1.3835116151784148,8.75362307940246,2.799073956051938
5.583623378398717,-1.3212122336580072,8.78161381896298,2.8007003376444803
5.570411256062137,-1.2573334063436234,8.809620822339424,2.8066879823657627
5.557837921998701,-1.19221014733469,8.837687702163082,2.81648745711209
5.545915820525353,-1.1261989089474087,8.865852576734204,2.8295414769962584
5.534653831435879,-1.059659834654252,8.894147991504166,2.845308179786575
5.524057233089336,-0.9929416662841247,8.922601073302031,2.863280609394456
5.514127816426495,-0.926370038724011,8.951233879395977,2.883001413555475
5.504864116039254,-0.8602394120426192,8.980063893531531,2.90407245575336
5.496261721918828,-0.7948084847964942,9.009104618089065,2.9261596170186954
5.488313637070863,-0.7302986441759983,9.038366214259252,2.9489934632953476
5.481010650629103,-0.6668948473878349,9.067856148892206,2.9723666690961497
5.4743417021552245,-0.6047482792127095,9.097579815583167,2.996129142685325
5.468294219363098,-0.543980164949592,9.12754110701002,3.0201817345537343
5.462854417713602,-0.4846862045577919,9.157742924355556,3.044469275876259
5.458007555668024,-0.42694120471736385,9.18818761711432,3.0689735275969627
5.45373814362085,-0.37080359952598313,9.218877352390288,3.093706453988702
5.45003010762559,-0.3163196539524716,9.249814416930176,3.11870408596767
5.446866911086065,-0.26352722989832805,9.281001457789854,3.1440211184510694
5.444231638787082,-0.21245906063993478,9.312441668974365,3.1697262949010883
5.442107048180683,-0.16314552657462938,9.344138931923377,3.1958985687354495
5.440475592914936,-0.11561695630862506,9.376097917610732,3.2226239910710217
5.43931942335185,-0.06990549556061983,9.408324157521442,3.249993252144477
5.4386203683962435,-0.026046595411800592,9.440824090042886,3.2780997947904273
5.438359902442126,0.015919826007942006,9.47360508799079,3.3070384183328567
5.438519100702205,0.05594849592493174,9.50667547217412,3.336904296821566
5.439078585661455,0.09398812498224782,9.540044515142336,3.3677923442444184
5.440018466911277,0.129980927720803,9.57372243858478,3.3997968694363503
5.441318276188485,0.16386228775881068,9.607720407279142,3.4330114737506907
5.442956899066074,0.1955605352321204,9.64205052201665,3.4675291544684437
5.444912504418395,0.22499680879809694,9.676725813561335,3.5034425860275586
5.447162472506376,0.25208497854063217,9.711760239421611,3.5408445593046025
5.449683322291782,0.2767316093849098,9.747168685014657,3.5798285663629272
5.452450638385631,0.29883594714289735,9.782966970678286,3.6204895243655266
5.45543899785706,0.3182899111068971,9.819171865921941,3.6629246378537696
5.458621896968129,0.3349780782521481,9.85580111230048,3.7072344034511406
5.46197167775065,0.34877764467488154,9.892873456334991,3.7535237654029405
5.465459454197399,0.3595583499612811,9.93040869398902,3.8019034343387874
5.469055037697012,0.3671823498460004,9.968427728332408,3.8524913853573626
5.472726861195472,0.37150402188123993,10.006952642185981,3.9054145550680004
5.476441901414284,0.37236968802954773,10.04600678773666,3.9608107606281386
5.48016559829458,0.3696172372899419,10.08561489534294,4.018830867077752
5.483861770667479,0.3630756309140679,10.12580320401372,4.0796412322912
5.48749252697662,0.3525642728284592,10.166599616336631,4.143426461404314
5.491018169704905,0.3378922290937105,10.208033880950675,4.210392504172809
5.494397091995842,0.3188572834287626,10.250137805992402,4.280770128574794
5.49758566483013,0.29524482227891885,10.29294550727815,4.3548188007357265
5.500538113052919,0.26682655457073723,10.336493695285506,4.4328309927116
5.503206378598626,0.23335909121397416,10.380822005212622,4.515136922222456
5.505539969510766,0.1945824423013324,10.425973374434847,4.602109696308513
5.507485793933779,0.15021854317276592,10.471994471397931,4.694170774850558
5.508987979365507,0.09997000551928062,10.518936179146436,4.791795575238386
5.5099876794207,0.04351942439630371,10.56685413489882,4.8955188828036755
5.5104228736646625,-0.01947021570380658,10.615809323726857,5.0059394759325855
5.510228171507625,-0.08935315937088041,10.665868718486184,5.1237229617178475
5.509334639913916,-0.166495126115701,10.717105948103363,5.24960115651578
5.507669688652759,-0.2512619761031267,10.76960195966852,5.384365295637859
5.5051570688917275,-0.34399933866223703,10.8234456126249,5.528848707127642
5.5017170755051055,-0.4449978448650818,10.878734099696176,5.683892033719647
5.497267097056454,-0.5544357782745757,10.935573020033372,5.8502802350690155
5.491722739273708,-0.672286921527658,10.994075822384062,6.028635012461662
5.484999870058432,-0.7981760298853727,11.054362172508679,6.219238744577715
5.477018109759578,-0.9311583227713635,11.116554559954455,6.421757201625557
5.467706526531864,-1.069395244804278,11.180772131970711,6.634821542427149
5.457012574083821,-1.2097036172270248,11.247120347394983,6.855434836083584
5.444915537911551,-1.346984777475117,11.315674695755819,7.078205689203045
5.431445690136799,-1.4736213514716172,11.386456752647849,7.294518482917169
5.416709476622083,-1.5790909590421711,11.45940193747702,7.491966871482554
5.4009185670316615,-1.6502725866140486,11.534321606191845,7.654685033189632
5.384415841165521,-1.6730489528865173,11.610868456523741,7.76538882183234
5.367685351636656,-1.6354629472296758,11.688522344742065,7.809477597504249
5.3513307221643585,-1.5315888795378294,11.766617120717108,7.780068182794793
5.3360148333689805,-1.3640422919068584,11.844417802545056,7.681175661225488
5.322374410449912,-1.1432652616909489,11.921229559157311,7.526582601391546
5.310941757833003,-0.8838999596779555,11.996495385171226,7.3349035883573945
5.302102758236224,-0.600574570980618,12.0698444210548,7.1240198252681335
5.296097012526418,-0.30518773354449963,12.141084619307481,6.907641932062211
5.293045135190972,-0.00612199762769966,12.210161038628103,6.694480485950969
5.292983915214696,0.29131860558501316,12.277105843487613,6.489005687541271
5.295897101270546,0.5840576760608962,12.341995900363026,6.292690163719633
5.301737678031155,0.8704461947103967,12.404922802000222,6.105128582003647
5.310442139978259,1.1496666457831424,12.465974087820259,5.924851952797678
5.321938806436091,1.4213403771918143,12.525222607348235,5.749857252337777
5.336152210208009,1.6852892053224173,12.582721179871612,5.577929766377806
5.353005102261233,1.9414011767810926,12.63850047753539,5.406831235997512
5.372419114029044,2.18956260477503,12.692568789895365,5.234406869042743
5.394314740076794,2.429630950997437,12.744912858585792,5.058645478616598
5.418611049586769,2.6614324046547377,12.795499313371957,4.877713379777827
5.445225373633316,2.8847741228090724,12.844276447169735,4.689973791831712
5.474073114861406,3.099464875040731,12.891176185088051,4.493998011046826
5.505067763611813,3.3053400902676495,12.93611616519852,4.288571350574499
5.538121164514489,3.5022886280572676,12.979001878704265,4.072694962359869
5.5731440507950625,3.6902793823352895,13.019728828327864,3.8455836342349525
5.610046844618416,3.8693863162643845,13.058184664670213,3.6066591749699093
5.64874070778106,4.03981086894552,13.094251256419913,3.35553886975474
5.689138816470515,4.201900948404534,13.12780664511746,3.092018593050792
5.73115782595456,4.356165968238312,13.158726831047968,2.8160504340929977
5.774719485636943,4.503287602856472,13.186887335388898,2.5277150799637287
5.819752361665508,4.644126108312969,13.212164486188534,2.227189692730026
5.8661936227486375,4.779722137367573,13.234436383115835,1.914712618290343
5.9139908441223135,4.911293894656974,13.253583509298737,1.5905470225444132
5.963103783068883,5.040229116182115,13.269488979524182,1.2549465750916178
6.013506074230704,5.168070539680522,13.282038445275099,0.9081278014484683
6.065186779627509,5.296491981671422,13.291119723289583,0.5502560679620603
6.1181516994442235,5.427259417889938,13.296622283969203,0.18145595360009226
6.172424293623123,5.562166907675357,13.298436843505204,-0.19813705678745458
6.228045962699876,5.702929845282607,13.29645547293733,-0.5882566960294873
6.285075261152702,5.851006676770605,13.290572905977035,-0.9882756810034926
6.343585327920408,6.007304066801281,13.280690149167,-1.396801192702298
6.403658368588421,6.171701130320545,13.266722137239977,-1.81100642731971
6.4653753798916265,6.342315414078845,13.24861207296678,-2.2255929603674685
6.528798534032415,6.514457074496056,13.226356143363105,-2.631316497560092
6.5939431047773756,6.679348699374724,13.200042978387504,-3.013200092957064
6.660736591771123,6.823041390428923,13.169910977457933,-3.349066030843811
6.728967005675412,6.926588165112022,13.136420317149495,-3.609914383846836
6.798232887326532,6.969068962964941,13.100321173311027,-3.7644231437597413
6.867923576956181,6.9342606185280244,13.062676941873429,-3.7886771751906902
6.937266183141461,6.818481439051508,13.024790170121522,-3.677549935914132
7.005450997531977,6.633794639509423,12.98801467076238,-3.4493682165275357
7.071788943927071,6.40306247833102,12.953520988597106,-3.1387797966670674
7.135819568710382,6.15065744405146,12.922133190630435,-2.783235409903393
7.197326143150896,5.8955818123199215,12.8943008365314,-2.412807911154171
7.256281961274095,5.6495468426331765,12.870172757419859,-2.0471309658917907
7.312777429700427,5.4182493265737595,12.84970144776094,-1.6970245044752637
7.366959922966164,5.203475777885862,12.832731202716188,-1.3674201591081208
7.418994680745023,5.004842078472498,12.819057001125106,-1.0598408212590922
7.469043101529747,4.820925746728918,12.808458592912515,-0.774046586968739
7.517252358997037,4.649914215935489,12.800718127042828,-0.5089983169983636
7.563751501156392,4.489944224025588,12.795628143872843,-0.2633772542837217
7.608650943396648,4.339264185674259,12.792994371330005,-0.03584512059160044
7.652043585253391,4.19630154300318,12.79263592012409,0.1748384918534071
7.694006600683422,4.0596817203696185,12.794384305042623,0.3697737433859244
7.734603417887119,3.9282238810240027,12.798082042476482,0.5499157479157082
7.773885656697359,3.8009266116439235,12.803581199955639,0.7160872328108484
7.8118949228137975,3.6769501229463315,12.810742072283748,0.8689980955677854
7.84866442404326,3.55559810592407,12.819432053239426,1.0092664657539863
7.884220405102501,3.4363006082071057,12.829524717896966,1.1374386430867789
7.918583411184572,3.3185984106392694,12.840899104327834,1.2540067424082997
7.951769395290964,3.2021289668319604,12.853439171751917,1.359423637613769
7.983790684959284,3.08661379164575,12.867033408128055,1.4541151853243823
8.014656822875741,2.9718471279001095,12.8815745599813,1.5384899001734516
8.044375294154742,2.85768572063524,12.896959458983034,1.6129463403707223
8.072952151361095,2.7440395518682936,12.913088922386741,1.6778784943079288
8.100392546879778,2.63086341917915,12.929867707329821,1.7336794625236764
