th1 (rad),w1 (rad/s),th2 (rad),w2 (rad/s),a1 (rad/s^2),a2 (rad/s^2)
0.42428270647732313,-1.8094143652949706,2.654146476895817,2.2088685804168495,-5.296829637330504,-10.42199785645548
0.40618856282437343,-1.8623826616682757,2.6762351626999856,2.1046486018522947,-5.60831234995769,-10.661937693578448
0.38756473620769066,-1.9184657851678526,2.6972816487185085,1.9980292249165104,-5.90133044092518,-10.907499947926071
0.36838007835601216,-1.9774790895771044,2.7172619409676737,1.8889542254372496,-6.172364878805601,-11.15248872302043
0.3486052874602411,-2.0392027383651605,2.7361514832220464,1.7774293382070452,-6.41733963947506,-11.389893950176685
0.3282132600765895,-2.103376134759911,2.7539257766041167,1.6635303987052783,-6.631655728584165,-11.611894371834007
0.3071794987289904,-2.1696926920457527,2.7705610805911696,1.5474114549869382,-6.810254808669723,-11.809906959294787
0.28548257180853287,-2.2377952401324497,2.786035195141039,1.4293123853939904,-6.947717335506124,-11.97469175573713
0.26310461940720836,-2.307272413487511,2.800328318994979,1.309565467836619,-7.038398524150302,-12.09651927634795
0.24003189527233326,-2.3776563987290142,2.813423973673345,1.1886002750731395,-7.076602987378176,-12.165404279982459
0.21625533128504312,-2.448422428602796,2.825309976424076,1.066946232273315,-7.056795547549706,-12.171404901972355
0.19177110699901517,-2.518990384078293,2.835979438746809,0.9452321832535914,-6.973841712568344,-12.104980001448473
0.16658120315823224,-2.588728801203976,2.845431760579345,0.8241823832391066,-6.823267013043026,-11.957390625954558
0.14069391514619248,-2.6569614713344065,2.853673584411736,0.7046084769795611,-6.601520383118406,-11.721124533132556
0.11412430043284841,-2.7229766751655906,2.8607196691815315,0.5873972316482355,-6.306223705303436,-11.39031676719792
0.0868945336811925,-2.786038912218625,2.8665936414980138,0.4734940639762564,-5.936388198207478,-10.961135473451694
0.059034144559006255,-2.8454027942007,2.8713285821377763,0.36388270924173943,-5.492579017160596,-10.432101402834096
0.030580116616999255,-2.9003285843723057,2.8749674092301936,0.25956169521339845,-4.977012467269016,-9.804312472543543
0.0015768307732761978,-2.9500987090449957,2.8775630261823277,0.16151857048796303,-4.3935753954779555,-9.081551284247318
-0.02792415631717376,-2.9940344629997755,2.8791782118872074,0.07070305764548984,-3.7477630125073156,-8.270262975305734
-0.05786450094717152,-3.0315120931248485,2.8798852424636623,-0.011999572107567497,-3.0465386538196046,-7.379401934769254
-0.08817962187842,-3.0619774796630446,2.8797652467425867,-0.08579359145526004,-2.298125743328869,-6.4201571654115
-0.11879939667505045,-3.084958737096333,2.8789073108280343,-0.14999516310937505,-1.5117474947648721,-5.405575826818739
-0.1496489840460138,-3.100076212043982,2.8774073591969405,-0.20405092137756242,-0.6973330022571944,-4.35011149845517
-0.1806497461664536,-3.107049542066554,2.875366849983165,-0.24755203636211412,0.13479090146372702,-3.26912727664101
-0.21172024158711913,-3.1057016330519165,2.8728913296195437,-0.28024330912852424,0.9742040906180119,-2.1783839455527727
-0.2427772579176383,-3.0959595921457366,2.8700888965282587,-0.302027148584052,1.8106790284994483,-1.0935406971094122
-0.2737368538390957,-3.0778528018607423,2.867068625042418,-0.3129625555551461,2.634437143209234,-0.0296911473418319
-0.3045153818577031,-3.05150843042865,2.8639389994868667,-0.31325946702856444,3.4363687926093087,0.9990482477051
-0.3350304661619896,-3.0171447425025573,2.860806404816581,-0.30326898455151347,4.208213470509315,1.9798859081876894
-0.3652019135870152,-2.9750626077974642,2.857773714971066,-0.28347012546963657,4.94269962303951,2.9016324814944428
-0.39495253966498983,-2.925635611567069,2.8549390137163693,-0.25445380065469214,5.633645219463762,3.7549053151543825
-0.4242088957806605,-2.8692991593724315,2.8523944757098225,-0.2169047475031483,6.2760211653998095,4.532260512708023
-0.4529018873743848,-2.8065389477184333,2.850225428234791,-0.1715821423760681,6.86598000265078,5.228255182173991
-0.48096727685156915,-2.7378791476919253,2.8485096068110307,-0.11929959055432818,7.4008523989564345,5.839444088996798
-0.5083460683284884,-2.663870623702361,2.8473166109054873,-0.0609051496643602,7.879113952934111,6.364316249491054
-0.534984774565512,-2.58507948417302,2.8467075594088436,0.0027380128305503487,8.300325001784664,6.803178229530583
-0.5608355694072422,-2.502076234155173,2.846734939537149,0.07076979512585618,8.665046494295778,7.157992110038135
-0.5858563317487939,-2.4154257692122156,2.8474426374884074,0.14234971622623754,8.974735551385331,7.432177195401865
-0.6100105894409161,-2.325678413698362,2.84886613465067,0.2166714881802562,9.231624978693542,7.63038544429403
-0.6332673735778998,-2.2333621639114267,2.8510328495324724,0.29297534262319647,9.438591581496512,7.7582611373943084
-0.655600995217014,-2.1389762480964616,2.8539626029587044,0.37055795399713953,9.599018524599833,7.822195329039308
-0.6769907576979786,-2.0429860628504635,2.8576681824986756,0.4487799072875326,9.716657076326177,7.829085087686581
-0.6974206183264832,-1.9458194920872016,2.8621559815715507,0.5270707581643984,9.795492827645987,7.786106422941686
-0.7168788132473551,-1.8478645638107418,2.8674266891531945,0.6049318223938153,9.83962089544833,7.700508214883449
-0.7353574588854626,-1.7494683548562584,2.873476007377133,0.6819369045426498,9.853133764765879,7.579432556379697
-0.7528521424340251,-1.6509370172085995,2.880295376422559,0.7577312301064467,9.840024394903844,7.429764875290357
-0.7693615126061111,-1.5525367732595612,2.8878726887236237,0.8320288788593503,9.804106119460497,7.25801520593303
-0.7848868803387067,-1.4544957120649562,2.896192977512217,0.9046090309186806,9.748949815551885,7.0702301866083355
-0.7994318374593562,-1.3570062139094374,2.905239067821404,0.975311332784764,9.67783788870772,6.871933886649983
-0.8130018995984506,-1.2602278350223601,2.9149921811492514,1.0440306716512637,9.593733874311829,6.6680944748876145
-0.8256041779486742,-1.1642904962792417,2.925432487865764,1.1107116164001398,9.499265921494038,6.463113044459274
-0.8372470829114667,-1.0692978370643014,2.9365396040297655,1.1753427468447326,9.39672210149172,6.260830578819341
-0.8479400612821096,-0.9753306160493842,2.948293031498213,1.237951052632926,9.28805534949132,6.06454902474697
-0.8576933674426035,-0.882450062554471,2.9606725420245423,1.2985965428803958,9.174895873496508,5.8770626594716235
-0.8665178680681482,-0.790701103819506,2.9736585074533464,1.3573671694751122,9.058569006558951,5.700696326630238
-0.8744248791063433,-0.7001154137539165,2.9872321791480974,1.4143741327414145,8.940116700370687,5.537347600873513
-0.8814260332438825,-0.6107142467502096,3.0013759204755117,1.4697476087501498,8.82032112339923,5.388530465488824
-0.8875331757113846,-0.5225110355162172,3.016073396563013,1.523632913405038,8.69972910646121,5.255418606573161
-0.8927582860665467,-0.4355137444516052,3.0313097256970636,1.5761870994707696,8.578676451126244,5.138886909690896
-0.8971134235110628,-0.34972697994034274,3.0470715966917714,1.6275759685676785,8.457311366870458,5.039550171331068
-0.9006106933104663,-0.26515386627163817,3.0633473563774483,1.6779714702809891,8.335616522816668,4.957798398559134
-0.9032622319731827,-0.18179770104347148,3.080127071080258,1.7275494542665806,8.21342938544047,4.893828364297186
-0.9050802089836174,-0.09966340718906677,3.097402565622924,1.7764877379095525,8.090460664613733,4.8476713161305485
-0.9060768430555081,-0.018758800542929444,3.1151674430020195,1.824964451070858,7.966310809032141,4.819216910090489
-0.9062644310609373,0.06090430754739197,3.1334170875127283,1.8731566201717629,7.840484582081601,4.8082335657711415
-0.9056553879854634,0.13930915336820798,3.152148653714446,1.9212389558294742,7.712403814844093,4.8143855241152105
-0.9042622964517814,0.21643319151664892,3.171361043272741,1.9693828110706264,7.581418478635436,4.837246942616071
-0.9020979645366148,0.2922473763030033,3.1910548713834475,2.0177552804967873,7.446816249357617,4.876313392088444
-0.8991754907735848,0.3667155387965795,3.2112324241884154,2.0665184144176716,7.307830753716659,4.931011131056487
-0.895508335385619,0.4397938463337461,3.231897608332592,2.1158285257282365,7.163648696109764,5.000704533573716
-0.8911103969222816,0.5114303332948438,3.2530558935898743,2.165835571063974,7.0134160672245365,5.084702038207187
-0.8859960935893331,0.5815644939670892,3.274714249300514,2.2166825914460455,6.856243633040239,5.182260973278591
-0.8801804486496622,0.6501269302974916,3.296881075214974,2.2685052011788316,6.691211897363285,5.292591598675252
-0.8736791793466873,0.7170390492711244,3.3195661272267625,2.321431117165584,6.517375723182239,5.414860689304026
-0.866508788853976,0.7822128065029468,3.3427804383984183,2.3755797240586243,6.333768788500081,5.548194970628444
-0.8586866607889465,0.8455504943879476,3.3665362356390047,2.431061673764909,6.139408041057638,5.69168470327074
-0.850231155845067,0.906944574798524,3.390846852376654,2.487978520797616,5.933298303380204,5.844387701540549
-0.8411617100970817,0.966277557832326,3.4157266375846302,2.546422397813022,5.714437164505147,6.005334059815197
-0.8314989345187584,1.0234219294773774,3.4411908615627604,2.6064757384111736,5.481820277042412,6.173531850534397
-0.8212647152239847,1.0782401322478015,3.467255618946872,2.6682110569165176,5.234447157207879,6.347974047588936
-0.8104823139015067,1.1305846038198804,3.493937729516037,2.731690797392407,4.971327560384829,6.527646918346003
-0.7991764678633079,1.1802978794237287,3.521254637489961,2.796967266575867,4.691488474806027,6.711540115655678
-0.7873734890690706,1.227212764171789,3.54922431015572,2.864082667732424,4.393981740316288,6.89865868709917
-0.7751013614273526,1.2711525815749518,3.577865136833044,2.9330692546034154,4.077892257157393,7.088037201699335
-0.7623898356116031,1.3119315041465258,3.6071958293790782,3.003949626620409,3.7423467007443905,7.278756173683659
-0.7492705205701379,1.3493549711539696,3.6372353256452823,3.0767371883572454,3.3865226021287245,7.469960938265894
-0.7357769708585982,1.383220197175257,3.6680026975288547,3.1514367977399043,3.009657590233308,7.660883105734747
-0.7219447688868456,1.41331677307759,3.699517065506254,3.228045628797252,2.611058521358703,7.850864687808955
-0.7078116011560697,1.439427358291177,3.7317975217942263,3.3065542756753414,2.1901101447474005,8.039384955235386
-0.6934173275731579,1.4613284597386509,3.7648630645509797,3.386948125227695,1.7462828715714305,8.22609004968816
-0.6788040429757713,1.4787912884543652,3.7987325458032566,3.469209025724577,1.2791391306315563,8.410825338720892
-0.6640161300912277,1.4915826797606808,3.8334246360605024,3.553317279111786,0.788337710061824,8.593670473284925
-0.6491003032936209,1.499466056861299,3.8689578088516203,3.639253983844635,0.2736354038661838,8.774977087517641
-0.6341056427250079,1.5022024108999608,3.9053503486900665,3.7270037547198114,-0.2651147906700278,8.955409075304853
-0.6190836186160084,1.4995512629932606,3.9426203862372646,3.8165578454728597,-0.8279697388849537,9.135985393266964
-0.6040881059860758,1.491271565604411,3.9807859646919934,3.9079176994055294,-1.4149073542171482,9.31812538112152
-0.5891753903300316,1.4771224920622397,4.019865141686049,4.0010989532167445,-2.025843776873024,9.503696662901062
-0.5744041654094092,1.4568640542935094,4.059876131218217,4.096135919845755,-2.660657404093016,9.695065799256604
-0.5598355248664741,1.4302574802525791,4.100837490416675,4.193086577838321,-3.319220572503816,9.895152000918133
-0.5455329500639483,1.397065274527541,4.142768356195058,4.292038097847502,-4.001439578181723,10.10748437778122
-0.5315622973186729,1.3570508787457236,4.185688737173533,4.393112941625315,-4.707303526557277,10.336263365945827
-0.5179917885312156,1.3099778434801508,4.229619866589786,4.496475575284773,-5.436942197062463,10.586427104364967
-0.5048920100964142,1.2556084215095262,4.274584622342634,4.602339846328422,-6.190692627701632,10.86372354708251
-0.4923359258813189,1.19370149523251,4.320608020805919,4.710977081799247,-6.969173372723709,11.174788862765721
-0.48039891092899384,1.1240097615052729,4.367717791623911,4.822724970426904,-7.77336419222517,11.52723196174282
-0.4691588133139411,1.0462761195830212,4.41594504132818,4.937997290044333,-8.60468700641208,11.929723414142867
-0.4586960521181109,0.9602292495189004,4.465325014228623,5.057294524185761,-9.465080798283976,12.392083924562057
-0.44909375962292186,0.8655784415360607,4.515897959470481,5.181215363431382,-10.35705794552724,12.92536179763391
-0.4404379752075612,0.7620078620807883,4.567710113104795,5.310468981407721,-11.283720802091887,13.541878581437452
-0.43281789658675335,0.6491706540598694,4.620814802918872,5.4458877672220956,-12.248702868973643,14.255204118608773
-0.42632619004615463,0.526683625370133,4.675273680591093,5.588439808408183,-13.255974628798926,15.079991166222138
-0.4210593537924533,0.39412387908214375,4.731158078675175,5.739239720070405,-14.309413476360245,16.03154648594058
-0.4171181150016319,0.2510297443185413,4.788550475875879,5.8995551849298105,-15.41196935731354,17.124924813017238
-0.41460781755844645,0.0969100507454059,4.847546027725177,6.070804433059982,-16.564145561315197,18.373180151384233
-0.41363871705099237,-0.06873140486774607,4.908254072055777,6.254536234573825,-17.761331874765542,19.784158449850327
-0.4143260310996698,-0.2463447236154015,4.970799434401515,6.452377819072328,-18.989241085541,21.3548167362807
-0.4167894783358238,-0.43623713447081147,5.035323212592238,6.665925986435136,-20.21627926333469,23.06145711898361
-0.42115184968053193,-0.6383999271041584,5.101982472456589,6.896540557624972,-21.381146171455782,24.843484366953543
-0.42753584895157354,-0.8522113888187162,5.170947878032838,7.1449754012945075,-22.373532264336166,26.577608012075828
-0.4360579628397607,-1.0759467114620778,5.242397632045783,7.410751481415266,-23.006238554631192,28.03985841522024
-0.4468174299543815,-1.3060090970083897,5.316505146859936,7.691150065567468,-22.980510437356138,28.857243991763657
-0.45987752092446543,-1.5358142013819511,5.393416647515611,7.979722505485105,-21.857245371567114,28.46540546038232
-0.47523566293828495,-1.7543866550976221,5.473213872570462,8.264376560088929,-19.07061601011091,26.12110520729189
-0.4927795294892612,-1.9450928151987312,5.555857638171352,8.525587612161848,-14.053619311054788,21.063879645544876
-0.5122304576412485,-2.085629008309279,5.641113514292971,8.736226408617297,-6.5436324403448785,12.920543757055782
-0.5330867477243413,-2.1510653327127276,5.728475778379144,8.865431846187855,2.999437591794254,2.262930935262338
-0.5545974010514686,-2.121070956794785,5.817130096841022,8.888061155540479,13.213285255671783,-9.155566687592128
-0.5758081106194165,-1.9889381042380674,5.906010708396427,8.796505488664558,22.300136406229022,-19.03297195813993
-0.5956974916617972,-1.765936740175777,5.993975763283073,8.606175769083158,28.94179145204336,-25.7390683747281
-0.613356859063555,-1.4765188256553434,6.080037520973905,8.348785085335878,32.84050309933325,-29.008217880577458
-0.6281220473201085,-1.148113794662011,6.163525371827264,8.058702906530105,34.49653868612298,-29.60438517073742
-0.6396031852667285,-0.8031484078007811,6.244112400892565,7.7626590548227306,34.66553050704383,-28.581999771701753
-0.6476346693447363,-0.45649310273034277,6.321738991440792,7.476839057105713,33.992838248041934,-26.80889003501536
-0.6521996003720397,-0.11656472024992343,6.396507382011849,7.20875015675556,32.909123239439126,-24.845764047918887
-0.653365247574539,0.21252651214446783,6.468594883579405,6.960292516276371,31.661574259613506,-23.002011365442225
-0.6512399824530942,0.5291422547406028,6.538197808742169,6.7302724026219485,30.375643575911067,-21.425195135186172
-0.6459485599056882,0.8328986904997135,6.605500532768388,6.516020451270086,29.105781793049292,-20.170984242994223
-0.637619573000691,1.1239565084302066,6.670660737281088,6.314310608840144,27.8684838411164,-19.24699170846236
-0.626380007916389,1.4026413468413705,6.73380384336949,6.121840691755521,26.661691509993755,-18.637427222169773
-0.6123535944479753,1.669258261941308,6.795022250287045,5.935466419533824,25.475584863321387,-18.316042567145427
-0.5956610118285622,1.924014110574522,6.854376914482383,5.752305993862369,24.29838822111686,-18.25254733335582
-0.576420870722817,2.166997992785691,6.911899974421007,5.569780520528811,23.119403082543908,-18.415584003987433
-0.5547508907949601,2.39819202361113,6.967597779626296,5.385624680488936,21.930520822787212,-18.773984226733955
-0.5307689705588488,2.617497231839002,7.021454026431185,5.197884838221596,20.72689742942532,-19.29723114001498
-0.5045939982404587,2.8247662061332552,7.073432874813401,5.004912526821446,19.507153736845726,-19.955610888950048
-0.47634633617912614,3.0198377435017125,7.123482000081615,4.805356417931946,18.27329304999489,-20.72029640277298
-0.446147958744109,3.2025706740016613,7.171535564260934,4.5981534539042155,17.030438778570918,-21.563476299380405
-0.4141222520040924,3.3728750617873704,7.217517098799976,4.382518690910412,15.786450318604768,-22.45857051908873
-0.3803935013862187,3.530739564973418,7.26134228570908,4.157932985719524,14.551454959919054,-23.380534825014426
-0.3450861057364845,3.6762541145726084,7.302921615566276,3.9241276374693803,13.337325371756332,-24.306234514473942
-0.30832356459075844,3.8096273682901716,7.342162891940969,3.6810652923246407,12.157129658891668,-25.214856314680116
-0.27022729090785674,3.9311986648790884,7.378973544864215,3.4289167291778395,11.024580382392326,-26.08832275327265
-0.23091530425906587,4.041444468703012,7.413262712155993,3.168033501645113,9.953508242675248,-26.911673279031085
-0.19050085957203575,4.140979551129765,7.444943047172444,2.898916768854802,8.957384251569506,-27.67337979798344
-0.1490910640607381,4.23055339364546,7.473932214860992,2.6221829708749675,8.048910708727398,-28.365570083699414
-0.1067855301242835,4.311042500732734,7.500154044569741,2.3385272700379733,7.239696057471804,-28.98413972455049
-0.06367510511695616,4.383439461307452,7.523539317270121,2.0486858727924684,6.540021846647324,-29.528740774697038
-0.019840710503881642,4.448839679773925,7.544026175998045,1.753398465045498,5.958701749587095,-30.002641788179126
0.024647686293857607,4.508426697269796,7.5615601606485,1.4533720471637066,5.5030229736275045,-30.41245791669212
0.06973195326655557,4.5634569270060705,7.576093881120137,1.1492474679967855,5.178749232695819,-30.76774941825159
0.11536652253661628,4.615244419333028,7.587586355800105,0.8415699738142696,4.990151022314332,-31.080479978729844
0.16151896672994656,4.6651459295561715,7.596002055538247,0.5307651740269711,4.940011655622033,-31.36430967315545
0.20817042602550828,4.714546046112392,7.601309707278517,0.2171220772954166,5.029533554165763,-31.633666950934053
0.25531588648663217,4.764841381654049,7.6034809280514715,-0.09921459221392392,5.258034030578803,-31.90249357618317
0.3029643003031727,4.817421721959837,7.602488782129332,-0.41823952797575564,5.62226636806576,-32.1824771956361
0.35113851752277103,4.873644385640495,7.598306386849575,-0.7400642999321168,6.115121143831113,-32.480466483802
0.399874961379176,4.934795597078806,7.590905743850254,-1.0648689647701368,6.723344429669414,-32.79459125146479
0.44922291734996406,5.002029041375501,7.580257054202552,-1.3928148772847848,7.423749556701554,-33.108380692768485
0.49924320776371905,5.076266536942517,7.566328905429704,-1.7238986842124697,8.17721903657561,-33.38191973398746
0.5500058731331442,5.158038727308273,7.54908991858758,-2.0577178815523443,8.919690446512528,-33.53894614212785
0.601586260406227,5.247235631773398,7.528512739772056,-2.393107342973623,9.549579042753008,-33.44917274746024
0.6540586167239609,5.342731422200928,7.50458166634232,-2.727599070448225,9.912382201646952,-32.9069664873864
0.7074859309459702,5.441855244217398,7.4773056756378375,-3.056668735322089,9.786816094138343,-31.612625345316676
0.7619044833881442,5.539723405158782,7.446738988284617,-3.3727949887752557,8.884391585051965,-29.1731493043522
