th1 (rad),w1 (rad/s),th2 (rad),w2 (rad/s)
3.9947388040155922,2.2969799253134835,1.306184017653971,-1.4045060780871401
4.017708603268727,2.359703217985923,1.2921389568730997,-1.4196057124933803
4.041305635448587,2.4257508857796246,1.2779428997481659,-1.4309088632497111
4.065563144306383,2.495212503029569,1.2636338111156689,-1.4384551746364909
4.090515269336678,2.568116498905095,1.2492492593693039,-1.4423861253746304
4.11619643432573,2.644412965596677,1.2348253981155575,-1.4429711685567999
4.142640563981696,2.7239564945261856,1.2203956864299894,-1.4406341037735197
4.169880128926958,2.8064907841646582,1.205989345392254,-1.4359771527888787
4.197945036768605,2.8916372682682128,1.1916295738643654,-1.429799443439571
4.226861409451287,2.978890351504166,1.1773315794299697,-1.4231060730163754
4.256650312966328,3.067621851599667,1.163100518699806,-1.417103860751062
4.287326531482325,3.1570967841878854,1.1489294800922953,-1.413180539764572
4.318897499324204,3.2465016053453395,1.1347976746946495,-1.4128656217529516
4.351362515377657,3.334984490026983,1.12066901847712,-1.4177734505414312
4.384712360277927,3.4217053774132307,1.1064912839717056,-1.4295317578160114
4.41892941405206,3.505891710559348,1.0921959663935454,-1.4497018282615555
4.453988331157653,3.586894463160253,1.0776989481109298,-1.4796985292966316
4.489857275789256,3.664238553070953,1.0629019628179635,-1.5207193782007833
4.526499661319965,3.7376622824286425,1.0476947690359557,-1.573691177422817
4.563876284144252,3.807141953739855,1.0319578572617276,-1.6392406014801217
4.60194770368165,3.872899981197948,1.0155654512469263,-1.7176919049794652
4.64067670349363,3.9353971875158043,0.9983885321971316,-1.8090913350336448
4.680030675368788,3.995312077154032,0.9802976188467952,-1.9132546157106674
4.719983796140328,4.053511350793962,0.9611650726896885,-2.0298316165320935
4.760518909648267,4.111016607700831,0.9408667565243676,-2.1583813274530574
4.801629075725275,4.168972105887514,0.919282943249837,-2.2984505347837727
4.84331879678415,4.228617801321948,0.8962984379019993,-2.4496508749934014
4.885604974797369,4.291270932309252,0.8718019291520652,-2.611730853791986
4.928517684120461,4.358318424340335,0.8456846206141454,-2.784641564367551
4.972100868363865,4.4312215868585225,0.8178382049704699,-2.9685969133543617
5.0164130842324495,4.511534106628996,0.7881522358369263,-3.1641309914393054
5.061528425298739,4.600934291381839,0.7565109259225332,-3.372156771873677
5.107537768212557,4.701272906806432,0.7227893582037964,-3.594031662034639
5.1545504972806215,4.81463877051141,0.6868490415834501,-3.831636716104315
5.202696884985736,4.943445481090202,0.6485326744224069,-4.0874776930574654
5.252131339796637,5.090544170467171,0.6076578974918323,-4.364817673895958
5.303036781501309,5.259368686462969,0.5640097207528727,-4.667852398354792
5.355630468365939,5.454120312682206,0.5173311967693248,-5.001939809743294
5.410171671492761,5.679996732498724,0.4673117986718919,-5.3738914058694585
5.466971638817748,5.943458364253863,0.4135728846131973,-5.792316458660769
5.526406222460286,6.252488565021537,0.3556497200265896,-6.267958871234304
5.5889311081105015,6.616701644912527,0.2929701313142466,-6.813823304893354
5.655098124559627,7.046881079187686,0.22483189826531305,-7.444508029836511
5.725566935351504,7.552843998307709,0.15038681796694794,-8.173202301340606
5.801095375334581,8.136932845747296,0.06865479495354189,-9.002571841726915
5.8824647037920546,8.777494661238306,-0.021370923463727265,-9.901629676265836
5.970239650404437,9.395365200448367,-0.12038722022638562,-10.758787066324981
6.0641933024089205,9.816067713031883,-0.22797509088963544,-11.328873032361349
6.1623539795392395,9.81631598614968,-0.34126382121324894,-11.298317206382903
6.260517139400736,9.345726770124568,-0.45424699327707796,-10.595623494669034
6.353974407101982,8.634145616692832,-0.5602032282237683,-9.54092990264813
6.440315863268911,7.93086851487916,-0.6556125272502497,-8.481205030146878
6.519624548417702,7.336292930373459,-0.7404245775517184,-7.55592877024197
6.592987477721437,6.858664938377284,-0.8159838652541381,-6.776484370114768
6.66157412710521,6.479680961348696,-0.8837487089552858,-6.11736343637355
6.726370936718697,6.179071183953342,-0.9449223433190213,-5.55025719411697
6.78816164855823,5.940323429135622,-1.000424915260191,-5.052003270235254
6.8475648828495865,5.750966656109519,-1.0509449479625435,-4.605022289867947
6.905074549410681,5.6017201820050095,-1.096995170861223,-4.196203910976493
6.9610917512307315,5.485616990124219,-1.138957209970988,-3.815772057829069
7.015947921131974,5.397314498491114,-1.1771149305492785,-3.456422855020756
7.069921066116885,5.332587035941474,-1.211679159099486,-3.11272620289754
7.1232469364763,5.28795564678134,-1.2428064211284613,-2.7807272608299054
7.176126492944113,5.260415599131537,-1.2706136937367603,-2.4576880190737564
7.228730648935429,5.247234041656105,-1.2951905739274978,-2.141922121384739
7.28120298935199,5.245801069098546,-1.3166097951413451,-1.8326867840343304
7.333661000042976,5.253525532418858,-1.3349366629816883,-1.5301028033824016
7.386196255367164,5.2677722820475426,-1.3502376910155123,-1.2350785150315613
7.438873978187639,5.285840284399847,-1.3625884761658278,-0.9492178692668392
7.491732381031638,5.304981250510786,-1.3720806548584963,-0.6746980247510956
7.544782193536746,5.322456236137725,-1.3788276351060071,-0.41410895057208125
7.5980067558981235,5.3356236869615525,-1.382968724611728,-0.17025644610193313
7.651362992767739,5.342047724383141,-1.3846712890727473,0.054060392652439976
7.70478347001157,5.339611619191247,-1.384130685146223,0.25627794955014427
7.758179586203482,5.326619871669855,-1.3815679056507215,0.4342791187778634
7.811445784920181,5.301873977715318,-1.3772251144629428,0.5865630725238512
7.864464524697334,5.26471164026101,-1.3713594837377043,0.7123559279028175
7.917111641099944,5.215005686741874,-1.3642359244586761,0.8116537821209764
7.9692616979673625,5.153125536313389,-1.3561193866374663,0.8851999086261583
8.020792953330496,5.079869139183635,-1.3472673875512047,0.9344066315313136
8.071591644722332,4.996375998444383,-1.3379233212358916,0.961237807834576
8.121555404706776,4.904032153045044,-1.328310943157546,0.9680695147398168
8.170595726237226,4.804376462761448,-1.3186302480101477,0.9575451101589594
8.21863949086484,4.699015060987749,-1.3090547969085582,0.932437505117106
8.265629641474717,4.589548209034476,-1.299730421857387,0.8955274692144182
8.311525123565062,4.477511505704143,-1.2907751471652429,0.8495029796305058
8.356300238622103,4.364331697195354,-1.2822801173689378,0.796881505595036
8.399943555594056,4.2512962008064346,-1.2743113023129875,0.7399548394047595
8.442456517602121,4.13953479691405,-1.2669117539189398,0.6807545798742156
8.483851865571262,4.0300116241815935,-1.2601042081201976,0.6210354950748287
8.524151981813079,3.923525517499049,-1.2538938531694495,0.562273579003876
8.563387236988069,3.8207167744570576,-1.2482711173794108,0.5056755372631733
8.601594404732639,3.7220785718764744,-1.243214362006779,0.4521965875764076
8.638815190451403,3.627971446644328,-1.238692396131015,0.4025637652433714
8.675094904917847,3.5386394827837617,-1.2346667584785813,0.3573023216414991
8.710481299745684,3.454227091534727,-1.2310937352621663,0.31676324702404374
8.745023570661031,3.3747955173636726,-1.2279261027919257,0.28115039729759045
8.778771525834667,3.300338436274781,-1.2251145988189498,0.2505461270018467
8.811774910197416,3.2307962224322666,-1.2226091375489314,0.2249347053100382
8.844082872421739,3.1660686374824887,-1.220359790495831,0.20422310561001072
8.875743558796563,3.1060258405787167,-1.2183175594397309,0.18825900746236254
8.90680381720235,3.050517725991954,-1.2164349693651073,0.17684603441726413
8.93730899446227,2.9993816720821265,-1.2146665090209348,0.16975637883818115
8.967302811183092,2.9524488347700855,-1.212968945232553,0.16674104463450043
8.996827299530793,2.9095491457459,-1.211301534786208,0.16753798063806552
9.025922790988252,2.870515185773872,-1.2096261549798273,0.17187839091579163
9.054627942845991,2.8351851014554073,-1.2079073710706694,0.17949150212292855
9.082979793860545,2.803404723799742,-1.20611245604944,0.1901080491165816
9.111013841098544,2.7750290322087867,-1.2042113755582742,0.20346271395383445
9.138764131420631,2.7499230904747853,-1.2021767484187358,0.2192957241309439
9.16626336232538,2.72796256387108,-1.1999837911774263,0.2373537862784684
9.19354298796409,2.7090339095506355,-1.1976102533146415,0.2573905033174722
9.220633327059597,2.69303431695994,-1.1950363482814668,0.27916639735581417
9.247563670229196,2.6798714611959227,-1.1922446843079086,0.3024486378692702
9.274362384841154,2.6694631203133934,-1.1892201979292158,0.3270105551070624
9.301057016044288,2.6617366975079255,-1.1859500923781452,0.35263100208493847
9.327674383019367,2.6566286807376684,-1.1824237823572958,0.3790936147417487
9.354240669826744,2.6540840655405646,-1.1786328462098783,0.406186008528081
9.38078151048215,2.6540557613638582,-1.1745709861245974,0.4336989405349064
9.407322068095787,2.6565039974629236,-1.1702339967192483,0.4614254589288343
9.433887108070417,2.6613957411697995,-1.16561974212996,0.4891600556332689
9.460501065482115,2.668704138919404,-1.1607281415736272,0.5166978336068149
9.487188106871308,2.678407988714587,-1.155561163237559,0.5438336964802397
9.513972186758453,2.690491251592158,-1.1501228262727567,0.5703615655119934
9.540877099274375,2.7049426090227935,-1.1444192106176367,0.5960736266299674
9.567926525364603,2.721755072958556,-1.138458474351337,0.6207596085895327
9.595144076094188,2.7409256553691224,-1.1322508782654417,0.6442060918617335
9.622553332647879,2.76245510453254,-1.1258088173468244,0.6661958466543855
9.650177883693205,2.7863477160317838,-1.1191468588802804,0.6865071973589458
9.678041360853523,2.8126112273290276,-1.112281786906691,0.7049134096125212
9.706167473126813,2.841256805929795,-1.1052326528105658,0.7211820949779836
9.734580041186112,2.872299142502695,-1.098020831860786,0.7350746268893061
9.76330303261114,2.9057566618899364,-1.090670085591893,0.7463455598976441
9.792360599230038,2.9416518667409113,-1.0832066299929164,0.7547420422984316
9.821777117897447,2.980011830547206,-1.075659209569932,0.7600032098298446
9.85157723620292,3.020868859184192,-1.0680591774716335,0.7618595452135368
9.88178592479476,3.0642613427152843,-1.0604405820194982,0.7600321847609939
9.912428538221913,3.1102348222462552,-1.0528402601718883,0.7542321489921733
9.943530886444377,3.1588433000984324,-1.0452979386819665,0.744159469107147
9.97511931944536,3.2101508255843343,-1.037856343990895,0.7295021751232824
10.007220827701204,3.2642333933111596,-1.0305613222396621,0.7099351044655481
10.039863161634315,3.321181196304174,-1.0234619711950066,0.6851184817392015
10.073074973597357,3.3811012824197,-1.0166107863776146,0.6546962113566751
10.106885986421554,3.4441206695519613,-1.0100638242640478,0.6182938147945765
10.141327193117075,3.5103899829814433,-1.0038808861161022,0.5755159339024627
10.176431092946888,3.58008768662794,-0.9981257267770776,0.5259433116276294
10.212231969813168,3.653424988368135,-0.9928662936608013,0.4691291531505455
10.248766219696849,3.730651506725745,-0.9881750021292958,0.40459476620698065
10.286072734764106,3.8120617897857887,-0.984129054467226,0.33182438357320876
10.324193352661965,3.898002772809905,-0.9808108106314939,0.2502590906133874
10.363173380390064,3.9888822410493368,-0.97830821972536,0.1592898288454003
10.403062202800557,4.085178315194024,-0.976715321436906,0.05824954369066068
10.443913985952497,4.18744987540029,-0.9761328259999994,-0.05359527353937686
10.4857884847065,4.296347645691447,-0.9766687787353932,-0.17705307281427884
10.528751961163415,4.412625304882661,-0.978439309463536,-0.31301461273142117
10.572878214212242,4.537149355880319,-0.9815694555908502,-0.4624570707674336
10.618249707771046,4.670905374471297,-0.9861940262985245,-0.6264410707326514
10.66495876151576,4.81499634216821,-0.992458437005851,-0.8060939440010221
10.713108724937442,4.97062550960603,-1.0005193764458613,-1.002567757529119
10.762814980033502,5.139050803208696,-1.0105450540211525,-1.2169527651817371
10.81420548806559,5.321488986307578,-1.02271458167297,-1.4501143227739606
10.867420377928665,5.5189342247025275,-1.0372157249007095,-1.7024020787046552
10.922609720175691,5.7318367113748385,-1.054239745687756,-1.9731536657557824
10.979928087289439,5.959565649836376,-1.0739712823453138,-2.259885941282868
11.039523743787802,6.199571897355272,-1.0965701417581424,-2.5570566332957605
11.101519462761354,6.446211439000934,-1.1221407080911,-2.8543494049242533
11.165981577151364,6.6893820311495915,-1.1506842021403425,-3.134715264308654
11.232875397462859,6.913581973088619,-1.1820313547834291,-3.373063429965772
11.302011217193746,7.098687313598688,-1.2157619890830869,-3.5374821358131836
11.372998090329732,7.224010440548096,-1.2511368104412186,-3.595248374881426
11.445238194735213,7.275622585580751,-1.287089294190033,-3.5236105766860444
11.51799442059102,7.253205763431148,-1.3223253999568934,-3.319973304495398
11.590526478225332,7.17080698379639,-1.3555251330018474,-3.0033308029305386
11.662234548063296,7.05032456601537,-1.3855584410311528,-2.605114061178889
11.73273779372345,6.912999915576703,-1.4116095816429417,-2.1569108335950515
11.801867792879216,6.774355290469637,-1.4331786899788923,-1.6829363922625526
11.869611345783913,6.643393374473645,-1.4500080539015179,-1.1985988880640341
11.93604527952865,6.524015718126987,-1.4619940427821583,-0.7123438486227167
12.001285436709919,6.41681365092417,-1.4691174812683854,-0.22814436131477472
12.06545357321916,6.320457940160158,-1.4713989248815331,0.25250851682506353
12.128658152620762,6.232587596181454,-1.4688738397132826,0.729298617391607
12.190984028582577,6.150323095127169,-1.4615808535393664,1.2023105093911628
12.252487259533849,6.070546144597328,-1.4495577484454547,1.6716027017202906
12.313192720979822,5.990049203596396,-1.4328417214282518,2.136991043712549
12.373093213015787,5.905618915851404,-1.4114718109911264,2.5979568593012203
12.432149402174302,5.81409030106894,-1.3854922423981142,3.0536307235536255
12.490290305184992,5.712391567396333,-1.354955935162578,3.5028248034117917
12.547414220858956,5.597589218807103,-1.31992768712846,3.944098866484627
12.603390113047027,5.46693695073914,-1.2804866984636136,4.375851224300223
12.658059482554417,5.317927934236618,-1.2367281862206114,4.79642856084566
12.711238761896784,5.148347544152407,-1.1887639006121549,5.204249390416743
12.762722237338307,4.956321938506776,-1.1367214067079874,5.597935785277123
12.812285456723375,4.740356967327543,-1.0807420488552162,5.976447659742947
12.85968902639665,4.49936164237901,-1.0209775722577867,6.339213725310434
12.90468264282044,4.2326508475400635,-0.9575854350046824,6.686253517626718
12.947009151295841,3.939923124363301,-0.8907228998284152,7.018285770199169
12.986408382539475,3.621211215109745,-0.8205400421264235,7.336819830923794
13.022620494690573,3.276805567284997,-0.7471718438171856,7.644228520583838
13.055388550363423,2.907154258697252,-0.6707295586113472,7.943802230497473
13.084460092950396,2.512747118975432,-0.5912915363063724,8.23978405341036
13.109587564140151,2.093998174380686,-0.5088936957722688,8.53738234347329
13.130527545883957,1.651151242971482,-0.42351987233753596,8.842746594627217
13.147039058313672,1.1842535024978122,-0.3350924063912638,9.162867801574176
13.15888159333865,0.6932809827688169,-0.24346372837552205,9.505311842205753
13.165814403166339,0.17857631631885584,-0.1484106099534645,9.877588597472652
13.167600166329526,-0.35809861043108204,-0.04963472397873797,10.285759440992653
13.164019180225216,-0.9113572848091853,0.05322287043118856,10.7315493091518
13.154905607377124,-1.4680194950046916,0.16053836352270656,11.206820390454013
13.140225412427077,-2.000292491135463,0.2726065674272467,11.684361243033512
13.120222487515722,-2.457654682656072,0.38945017985758185,12.106613171536337
13.095645940689161,-2.7654253194198004,0.5105163115729452,12.382910646409192
13.067991687494963,-2.8466785894519493,0.6343454180370371,12.417698622909759
13.039524901600444,-2.671730422502479,0.7585224042661347,12.175485505140637
13.012807597375419,-2.29001384349397,0.8802772593175411,11.721702368002907
12.989907458940479,-1.7958406706402292,0.9974942829975701,11.175716310253302
12.971949052234077,-1.269562355442614,1.109251446100103,10.633927544362322
12.95925342867965,-0.7555630012919929,1.2155907215437263,10.143843573663366
12.95169779866673,-0.27123944857533666,1.3170291572803599,9.718321071916282
12.948985404180977,0.17962405005408394,1.4142123679995227,9.353943157448562
12.950781644681518,0.5985965858569906,1.5077517995740082,9.041744385925286
12.956767610540087,0.9887451725067093,1.598169243433261,8.771901902726418
12.966655062265154,1.3530961812647906,1.6858882624605251,8.535417505161021
12.980186024077803,1.6941234016991107,1.7712424375121354,8.324551345532116
12.997127258094794,2.01365226856457,1.8544879509674566,8.132802305048383
13.01726378078044,2.3129190518808964,1.9358159740179404,7.954756038524316
13.040392971299248,2.592678885780977,2.0153635344031837,7.785919331322546
13.066319760157057,2.8533214313608264,2.0932227277164093,7.622578402101834
13.094852974470665,3.0949791889201,2.1694485117374276,7.461688003821157
13.125802766359866,3.3176236196157394,2.244065391775639,7.300787473416944
13.158979002556023,3.521147877139858,2.3170732665098086,7.137937001557155
13.194190481327421,3.7054360879017976,2.38845263652538,6.971667453901668
13.23124484220644,3.870419408930342,2.4581693110643967,6.800938156563854
13.269949036295744,4.016119196812969,2.5261786926300354,6.6250984160977255
13.310110228263873,4.142677769856167,2.5924296767910127,6.4438498860605815
13.351537005962435,4.250377484073201,2.6568681756516184,6.257208095109163
13.394040780803167,4.3396491388799605,2.71944025660271,6.065462456717211
13.437437272191966,4.411071023234991,2.780094881169882,5.869134858520583
13.481547982424315,4.465360152900157,2.8387862297550877,5.668937471592428
13.526201583953316,4.503357396436969,2.895475604471012,5.465730737563462
13.571235157917686,4.5260082246373585,2.9501329118466466,5.26048261242628
13.61649524016406,4.534340748457281,3.0027377379709095,5.054230110380568
13.661838647648633,4.529442552322457,3.053280039074715,4.848044045255455
13.707133073171857,4.512437609498684,3.1017604795272695,4.642997656130657
13.752257449266844,4.484464312793015,3.1481904560885763,4.440139566953346
13.797102092394775,4.446655393195386,3.1925918517581096,4.2404712972741745
13.84156864632673,4.400120251605762,3.234996564730851,4.044929332819626
13.885569848842787,4.345930008327004,3.2754458580590473,3.8543715915752492
13.929029148926057,4.28510538911217,3.3139895739748,3.6695679873879463
13.971880202817179,4.2186074177669175,3.3506852538486793,3.4911946979693265
14.014066276994848,4.147330772578416,3.385597200828373,3.3198316839281965
14.055539584720632,4.072099583926796,3.4187955176676548,3.155962975109214
14.0962605805599,3.9936653989769604,3.450355147418747,2.9999792347858962
14.13619723454967,3.912707011630524,3.480354939766606,2.8521821260915954
14.175324304665974,3.8298318473194617,3.5088767610275218,2.7127900338573143
14.213622623139168,3.745578598462142,3.536004661366095,2.5819447346384155
14.251078409123789,3.6604208236412563,3.561824108712479,2.4597186545061773
14.2876826173602,3.5747712484444123,3.5864212952575407,2.3461224049593943
14.323430329844644,3.488986535558954,3.609882519307135,2.2411123393267807
14.358320195200234,3.403372323735664,3.632293642700403,2.144597922990734
14.39235391843759,3.3181883676949044,3.65373962193031,2.056448758845348
14.42553580211454,3.233653642445566,3.6743041095187636,1.9765011532579497
14.457872338538996,3.1499513047313514,3.694069121051343,1.9045641465419039
14.48937185158631,3.067233430686167,3.713114762516762,1.8404249650945652
14.520044185893171,2.9856254718627855,3.7315190121677078,1.7838538797937178
14.549900440611799,2.9052303914493574,3.749357550965645,1.7346084771540156
