th1 (rad),w1 (rad/s),th2 (rad),w2 (rad/s),a1 (rad/s^2),a2 (rad/s^2)
1.2933859043561498,-2.9883205057068394,1.4379372072568224,2.850135815103582,-6.65709806209607,-4.412326805460834
1.2635026992990814,-3.0548914863278003,1.4664385654078582,2.8060125470489736,-5.483231393373984,-6.2568727693856205
1.2329537844358034,-3.10972380026154,1.494498690878348,2.7434438193551176,-4.397260558114412,-8.024274202929199
1.201856546433188,-3.153696405842684,1.5219331290718991,2.6632010773258257,-3.4467080028698405,-9.645988178055518
1.1703195823747612,-3.1881634858713825,1.5485651398451574,2.5667411955452706,-2.66012230807062,-11.079102050672
1.1384379475160473,-3.2147647089520888,1.5742325518006102,2.4559501750385504,-2.0466968041074125,-12.307141092230223
1.1062903004265265,-3.235231676993163,1.5987920535509956,2.332878764116248,-1.599582682057516,-13.335683077911902
1.073937983656595,-3.2512275038137384,1.6221208411921582,2.199521933337129,-1.3009953368130962,-14.185401531812452
1.0414257086184575,-3.2642374571818693,1.6441160605255294,2.0576679180190047,-1.1273580897240323,-14.884979721346026
1.0087833340466388,-3.2755110380791095,1.6646927397057194,1.9088181208055444,-1.053415990825713,-15.465393105585695
0.9760282236658477,-3.2860451979873666,1.6837809209137748,1.7541641897496874,-1.0549705708238304,-15.956063737995294
0.9431677716859741,-3.296594903695605,1.7013225628112718,1.5946035523697344,-1.1103612104556775,-16.38272893057782
0.910201822649018,-3.3076985158001615,1.7172685983349691,1.4307762630639562,-1.201020332411255,-16.766582935403882
0.8771248374910164,-3.3197087191242742,1.7315763609656087,1.2631104337099175,-1.311445778192429,-17.12422429566016
0.8439277502997737,-3.3328231769061984,1.744207465302708,1.0918681907533159,-1.4288642255859283,-17.46803517655583
0.8105995185307118,-3.3471118191620577,1.755126147210241,0.9171878389877576,-1.5427713122372761,-17.80673955839622
0.7771284003390913,-3.3625395322844303,1.7642980256001186,0.7391204434037953,-1.6444589988977323,-18.145990457609987
0.743503005016247,-3.3789841222734074,1.7716892300341565,0.5576605388276955,-1.7265874813527076,-18.48890983033222
0.7097131637935129,-3.3962499970869344,1.7772658354224333,0.3727714405243733,-1.7828256709835408,-18.836551025756936
0.6757506638226436,-3.4140782537967698,1.780993549827677,0.1844059302668039,-1.8075655977431355,-19.188279781493055
0.6416098812846759,-3.4321539097742013,1.782837609130345,-0.007476867548126653,-1.7957068680643669,-19.542082827489278
0.6072883421869338,-3.450110978454845,1.7827628404548639,-0.20289769582301945,-1.742503613327449,-19.894818508317876
0.5727872324023854,-3.4675360145881196,1.7807338634966337,-0.4018458809061982,-1.6434655847854795,-20.242424962359316
0.5381118722565041,-3.4839706704359745,1.7767154046875717,-0.6042701305297914,-1.4943055992691032,-20.580100428661193
0.5032721655521444,-3.4989137264286656,1.7706727033822738,-0.8100711348164034,-1.2909265157327314,-20.90246836358601
0.4682830282878577,-3.511822991585993,1.7625719920341099,-1.0190958184522634,-1.0294418530053788,-21.20373783603359
0.4331647983719978,-3.5221174101160466,1.7523810338495873,-1.2311331968125994,-0.7062248227828188,-21.477867398529646
0.3979436242708373,-3.5291796583438746,1.7400697018814613,-1.4459118707978957,-0.3179808700231377,-21.71873839684789
0.36265182768739856,-3.532359467044106,1.7256105831734823,-1.6630992547663745,0.13816121439497028,-21.920341501545096
0.3273282330169575,-3.5309778549001565,1.7089795906258185,-1.8823026697818255,0.6645448719398644,-22.076978117086718
0.29201845446795593,-3.5243324061807577,1.6901565639280003,-2.1030724509526926,1.2628738662465695,-22.18347625161743
0.25677513040614836,-3.511703667518292,1.6691258394184734,-2.324907213468867,1.9340994030230452,-22.23541843799831
0.22165809373096543,-3.4923626734880617,1.6458767672837846,-2.54726139784885,2.6783135355437895,-22.229377436373756
0.1867344669960848,-3.4655795381326238,1.6204041533052962,-2.7695551722125877,3.494656777089962,-22.16315379822522
0.15207867161475858,-3.430632970361724,1.5927086015831704,-2.9911867101948397,4.38124832146338,-22.03600803118756
0.11777234191114133,-3.3868204871470904,1.562796734481222,-3.2115467905067154,5.335147451528361,-21.84887918679882
0.08390413703967042,-3.3334690126318067,1.5306812665761547,-3.4300355823747037,6.352354485337768,-21.604581318732865
0.050569446913352356,-3.269945467778429,1.4963809107524075,-3.6460813955620326,7.427858876223995,-21.307969539110044
0.017869992235568066,-3.1956668790161893,1.4599200967967871,-3.859161090953133,8.555740778206209,-20.96606842619438
-0.014086676554593829,-3.1101094712341273,1.421328485887256,-4.068821775215077,9.729330477062407,-20.588157359918373
-0.0451877712669351,-3.0128161664635034,1.380640268135105,-4.274703348814261,10.941427580319344,-20.185809972155553
-0.07531593293157013,-2.90340189066031,1.3378932346469625,-4.476561448535817,12.18457881359364,-19.77288819665172
-0.10434995183817322,-2.7815561025243736,1.2931276201616044,-4.674290330502334,13.451409782248621,-19.365495164909863
-0.13216551286341696,-2.647042004701887,1.2463847168565811,-4.867945282151433,14.735002230077862,-18.981895026507832
-0.15863593291043585,-2.499691982401109,1.1977052640350667,-5.057764232416511,16.029304205463333,-18.64241105194307
-0.18363285273444693,-2.3393989403464754,1.1471276217109017,-5.244188342935941,17.329555993381383,-18.36931514852177
-0.2070268421379117,-2.1661033804126615,1.0946857382815423,-5.427881494421159,18.63270916208443,-18.18672071805155
-0.22868787594203832,-1.979776288791817,1.0404069233373308,-5.609748701601675,19.937808344640068,-18.120484285663732
-0.2484856388299565,-1.7803982053454164,0.984309436321314,-5.790953544458312,21.246292856962103,-18.19810569331357
-0.2662896208834107,-1.5679352767757953,0.9263999008767309,-5.972934601391448,22.5621530929187,-18.448585283318636
-0.28196897365116863,-1.3423137458466083,0.8666705548628164,-6.157420454224635,23.89183602491842,-18.902137753899567
-0.2953921111096347,-1.1033953855974241,0.80509635032057,-6.346441831763631,25.24371942499765,-19.589555461307995
-0.3064260649656089,-0.8509581913474475,0.7416319320029338,-6.542337386376711,26.626838266707747,-20.540821895518096
-0.3149356468790834,-0.58468980868037,0.6762085581391667,-6.747745605331892,28.048302564046228,-21.782234482745245
-0.3207825449658871,-0.3042067830399077,0.6087311020858478,-6.965567950159345,29.508417993743773,-23.330697921819542
-0.32382461279628616,-0.009122603102469984,0.5390754225842543,-7.19887492937754,30.991799125050672,-25.18283538337455
-0.32391583882731084,0.30079538814803675,0.4670866732904789,-7.450703283211285,32.4516342797023,-27.294956309368583
-0.3209078849458305,0.6253117309450598,0.3925796404583661,-7.723652846304971,33.78275893648003,-29.547728314092037
-0.3146547676363799,0.96313932030986,0.31534311199531634,-8.019130129445891,34.778077035779795,-31.68759575858065
-0.3050233744332813,1.3109200906676581,0.23515181070085744,-8.336006087031697,35.06519098868462,-33.239674874312065
-0.29191417352660476,1.6615720005545043,0.15179174983054047,-8.668402835774817,34.03451814255173,-33.405897042342765
-0.2752984535210597,2.0019171819800214,0.0651077214727923,-9.002461806198244,30.813717959280023,-31.02124664246947
-0.25527928170125946,2.3100543615728215,-0.02491689658919015,-9.312674272622939,24.426544102507812,-24.75557617252828
-0.23217873808553124,2.5543198025978997,-0.11804363931541954,-9.560230034348221,14.324811369950448,-13.820530668541622
-0.20663554005955226,2.697567916297404,-0.21364593965890177,-9.698435341033637,1.2330457522435503,0.8958365261212342
-0.1796598608965782,2.7098983738198394,-0.3106302930692382,-9.689476975772424,-12.466745355749554,16.31447250517155
-0.15256087715837982,2.585230920262344,-0.40752506282696244,-9.526332250720708,-23.78640143780515,28.58718786291005
-0.12670856795575638,2.347366905884292,-0.5027883853341695,-9.240460372091608,-30.979251381741502,35.56023820465398
-0.10323489889691347,2.037574392066877,-0.5951929890550856,-8.884857990045068,-34.20727190345036,37.60624220039237
-0.0828591549762447,1.6955016730323733,-0.6840415689555362,-8.508795568041144,-34.681049496980876,36.419246283525105
-0.06590413824592097,1.3486911780625646,-0.7691295246359477,-8.144603105205894,-33.63619051104384,33.648643759151305
-0.05241722646529532,1.012329272952126,-0.8505755556880067,-7.808116667614381,-31.91765066556979,30.37947837528453
-0.04229393373577406,0.6931527662964281,-0.9286567223641505,-7.504321883861535,-29.994674484715816,27.18390843186914
-0.03536240607280978,0.3932060214492699,-1.0036999412027658,-7.232482799542844,-28.091778487445655,24.312111842592774
-0.03143034585831708,0.11228823657481335,-1.0760247691981943,-6.9893616811169155,-26.299063090275595,21.844434435493028
-0.03030746349256895,-0.15070239432794263,-1.1459183860093636,-6.770917336761985,-24.639957853990452,19.781507750411368
-0.031814487435848374,-0.39710197286784715,-1.2136275593769834,-6.573102259257872,-23.10775697323225,18.09100259930825
-0.035785507164526845,-0.6281795426001696,-1.279358581969562,-6.392192233264789,-21.684021113070536,16.72998883303433
-0.042067302590528544,-0.845019753730875,-1.34328050430221,-6.224892344934446,-20.347404633939128,15.654836333934018
-0.050517500127837296,-1.0484938000702664,-1.4055294277515544,-6.068343981595106,-19.077660522582676,14.825102630079972
-0.06100243812853996,-1.2392704052960932,-1.4662128675675055,-5.920092955294306,-17.857285118421903,14.204659253322104
-0.0733951421815009,-1.4178432564803123,-1.5254137971204484,-5.778046362761085,-16.672035821692294,13.761637910041797
-0.08757357474630402,-1.5845636146972353,-1.5831942607480594,-5.640429983660667,-15.51092695991645,13.46794306105619
-0.10341921089327638,-1.7396728842963998,-1.6395985605846661,-5.505750553050105,-14.365995463847563,13.298670372781382
-0.12081593973624039,-1.8833328389348754,-1.6946560661151673,-5.372763849322292,-13.231973784616713,13.231574739329051
-0.13964926812558914,-2.0156525767810427,-1.74838370460839,-5.240448101929001,-12.105932875568188,13.24663882772446
-0.15980579389339958,-2.1367119055367247,-1.8007881856276802,-5.107981713651756,-10.986922957737294,13.325750195114317
-0.18117291294876683,-2.2465811351140976,-1.8518680027641978,-4.974724211700613,-9.875624097885296,13.45247614678898
-0.20363872429990781,-2.345337376092951,-1.901615244881204,-4.840199450232723,-8.774012265161097,13.611918183732602
-0.22709209806083733,-2.4330774987445616,-1.9500172393835313,-4.704080268395397,-7.685044413536591,13.790626139855135
-0.2514228730482829,-2.5099279428799277,-1.9970580420674853,-4.566174006996845,-6.61236570904607,13.976553058286125
-0.27652215247708223,-2.5760515999703886,-2.042719782137454,-4.426408476413984,-5.560042033086924,14.159034108454659
-0.3022826684767861,-2.631652020301258,-2.0869838669015937,-4.284818135329438,-4.532320780895568,14.328775695050675
-0.32859918867979865,-2.6769752281102135,-2.129832048254888,-4.141530378378931,-3.5334225401958506,14.477843964347834
-0.35536894096090077,-2.712309453512172,-2.1712473520386775,-3.996751938735453,-2.5673654760359286,14.599644925394184
-0.3824920354960225,-2.737983108272531,-2.211214871426032,-3.8507554894815113,-1.6378232566508193,14.688891200529019
-0.4098718665787478,-2.7543613408390395,-2.249722426320847,-3.703866577476221,-0.7480162598306227,14.741552879121153
-0.4374154799871382,-2.7618415034373456,-2.286761092095609,-3.55645104868501,0.09936527397338149,14.754791991749046
-0.46503389502151166,-2.760847850697612,-2.3223256025824592,-3.4089031287675193,0.9022084236073243,14.726881712387314
-0.4926423735284878,-2.751825766461539,-2.3564146338701346,-3.2616343116436464,1.6589981389163422,14.657112534714965
-0.5201606311931032,-2.7352357850723754,-2.389030976986571,-3.1150631862964966,2.368814719341161,14.545688387931586
-0.547512989043827,-2.711547637878964,-2.420181608849536,-2.969606302417181,3.031312063954018,14.393616012250941
-0.5746284654226166,-2.6812345172394236,-2.4498776718737076,-2.8256701422946713,3.646680608384885,14.202590971830181
-0.6014408105950109,-2.6447677111555747,-2.4781343732966543,-2.6836442325763694,4.215598752084836,13.974883514148775
-0.6278884877065666,-2.6026117236347264,-2.504970815622418,-2.5438953974348815,4.739176325298407,13.713227157201604
-0.6539146049429139,-2.5552199603817423,-2.530409769596767,-2.4067631258628652,5.21889329089256,13.420712458702203
-0.6794668045467313,-2.5030310274728165,-2.5544774008553954,-2.2725560012758432,5.656536460537755,13.100687943846037
-0.7044971148214594,-2.446465662867439,-2.5772029608681537,-2.1415491218373828,6.054136560722321,12.756669678304462
-0.7289617714501337,-2.3859242972602157,-2.5986184520865274,-2.0139824250543383,6.413907538143555,12.392260499247232
-0.7528210144227359,-2.32178522187878,-2.6187582763370707,-1.890059820061866,6.7381895660365405,12.01107947900856
-0.7760388666415237,-2.2544033262184144,-2.6376588745376894,-1.7699490252717802,7.02939681696577,11.616701806281117
-0.7985828999037078,-2.1841093580487567,-2.6553583647904073,-1.653782007208969,7.289970712557113,11.212608935815693
-0.8204239934841954,-2.1112096509231857,-2.671896184862497,-1.5416559178508122,7.522339051650505,10.802148582774022
-0.8415360899934272,-2.0359862604066805,-2.687312744041005,-1.433634432023072,7.728881157367656,10.388503922256113
-0.8618959525974941,-1.958697448833004,-2.701649088361236,-1.3297493928005109,7.911898970210838,9.974671195855741
-0.8814829270858241,-1.8795784591308957,-2.714946582289241,-1.2300026808419535,8.073593846370514,9.563444821352403
-0.900278711677133,-1.7988425206671905,-2.727246609097661,-1.1343682326284295,8.216048694475322,9.157409043474042
-0.9182671368838049,-1.7166820337224373,-2.7385902914239453,-1.042794142193689,8.34121499574428,8.758935146813485
-0.9354339572210293,-1.6332698837649946,-2.749018232845882,-0.9552047907255542,8.450904197037802,8.370183269689628
-0.9517666560586793,-1.5487608417946166,-2.758570280753138,-0.871502958028658,8.546782938545768,7.993107903085094
-0.9672542644766254,-1.463293012409159,-2.7672853103334245,-0.791571878997807,8.630371572696804,7.6294662249914555
-0.981887194600717,-1.3769892966821908,-2.7752010291234024,-0.7152772167478925,8.703045443434945,7.280828501193137
-0.995657087567539,-1.2899588422478414,-2.7823538012908813,-0.6424689317359611,8.766038420774938,6.9485898729878945
-1.0085566759900175,-1.202298458040092,-2.788778490608241,-0.5729830330060821,8.820448220495738,6.633982945602179
-1.0205796605704185,-1.1140939758351345,-2.7945083209383017,-0.5066432035500603,8.867243079508341,6.338090683978611
-1.0317206003287698,-1.025421545040051,-2.799574752973802,-0.4432622967102742,8.907269400980095,6.061859211906717
-1.0419748157791704,-0.93634885103025,-2.804007375940905,-0.382643704591207,8.941260027444244,5.8061101936732005
-1.0513383042894728,-0.8469362507558076,-2.807833812986817,-0.32458260265447497,8.96984284315931,5.571552552809999
-1.0598076667970309,-0.7572378223242144,-2.8110796390133617,-0.268867077126375,8.99354944769727,5.358793349059839
-1.067380045020273,-0.6673023278472417,-2.8137683097846256,-0.21527914363577658,9.012823680357105,5.168347691855238
-1.0740530682987455,-0.5771740910436707,-2.8159211012209835,-0.1635956667172242,9.028029809105425,5.0006476163587505
-1.0798248092091822,-0.4868937929526164,-2.817557057888156,-0.1135891905536367,9.0394602282109,4.856049886726689
-1.0846937471387084,-0.39649919067050743,-2.818692949793692,-0.06502869168636981,9.047342535652845,4.734842721277291
-1.0886587390454134,-0.30602576531397896,-2.819343236710556,-0.0176802644735969,9.051845884991616,4.6372514563881575
-1.0917189966985532,-0.2155073064640628,-2.819520039355292,0.028692250090284678,9.053086527036061,4.56344318105394
-1.093874069763194,-0.12497644119370219,-2.8192331168543894,0.07432668190082409,9.05113247473737,4.513530383008859
-1.0951238341751308,-0.03446511644632848,-2.818489850035381,0.11946198573091268,9.046007240710802,4.48757365109802
-1.0954684853395942,0.05599495596077954,-2.8172952301780723,0.1643377222418929,9.037692611070703,4.4855834781127975
-1.0949085357799864,0.14637188207148658,-2.815651852955653,0.20919355702302087,9.026130432279261,4.50752120452825
-1.0934448169592714,0.2366331863942792,-2.813559917385423,0.25426876906830337,9.011223399852101,4.55329913741814
-1.0910784850953286,0.3267454203928002,-2.8110172296947398,0.29980176044248474,8.992834849404831,4.622779871180391
-1.0878110308914006,0.4166737688868485,-2.808019212090315,0.3460295591542887,8.970787562009383,4.715774828468471
-1.083644293202532,0.5063816445069423,-2.804558916498772,0.3931873074389734,8.944861607482396,4.832042031760892
-1.0785804767574627,0.5958302605817662,-2.8006270434243823,0.4415077277565823,8.914791261358557,4.971283109165653
-1.072622174151645,0.6849781731953518,-2.7962119661468163,0.49122055884823884,8.880261044208996,5.13313953319044
-1.0657723924196916,0.7737807836374417,-2.791299760558334,0.5425519541801432,8.840900945941025,5.317188089140904
-1.0580345845833172,0.862189793096852,-2.7858742410165327,0.5957238350715522,8.796280913050188,5.522935571352071
-1.0494126866523488,0.9501526022273539,-2.779917002665817,0.650953190785073,8.745904693771251,5.749812711403755
-1.0399111606300753,1.0376116491650664,-2.7734074707579666,0.7084513178991105,8.689203154962822,5.997167353579623
-1.0295350441384246,1.1245036807146946,-2.7663229575789754,0.7684229914349068,8.625527205606225,6.264256909813119
-1.0182900073312777,1.210758952770757,-2.7586387276646263,0.8310655605330379,8.554140485205771,6.550240149861399
-1.00618241780357,1.2963003576228147,-2.750328072059296,0.8965679620316519,8.474212001275943,6.854168412999269
-0.993219414227342,1.381042477635574,-2.7413623924389796,0.9651096461616446,8.384808928519343,7.174976365526466
-0.9794089894509862,1.4648905669207675,-2.7317112959773633,1.0368594098169093,8.28488981311767,7.511472474044204
-0.9647600837817786,1.5477394650519443,-2.7213427018791942,1.1119741345573513,8.173298458462234,7.862329417748243
-0.9492826891312591,1.6294724496365667,-2.7102229605336206,1.1905974287348338,8.048758803074199,8.226074723568509
-0.9329879646348934,1.7099600376673088,-2.6983169862462724,1.2728581759705189,7.909871136531564,8.601081975147736
-0.9158883642582203,1.7890587490326244,-2.685588404486567,1.3588689957219962,7.755110033680849,8.98556301923559
-0.897997776767894,1.866609849369433,-2.671999714529347,1.448724625914352,7.582824419585629,9.377561669405274
-0.8793316782741997,1.9424380935652892,-2.657512468270203,1.5425002426084047,7.391240205383949,9.774949484816895
-0.8599072973385468,2.0163504956191285,-2.642087465844119,1.6402497374565737,7.178465955794034,10.175424278156742
-0.8397437923823555,2.088135155177069,-2.625684968469553,1.742003980238141,6.942502059165565,10.576512078296355
-0.8188624408305848,2.1575601757687246,-2.6082649286671717,1.8477691010211046,6.68125386689931,10.975573335368027
-0.7972868390728975,2.2243727144377177,-2.5897872376569606,1.9575248343747849,6.392549246386326,11.369814203894293
-0.7750431119285204,2.288298206901581,-2.5702119893132127,2.0712229764137278,6.074160945500698,11.756303767762818
-0.7521601298595045,2.349039816356588,-2.5494997595490756,2.188786014091356,5.723834091893601,12.131998073104182
-0.7286697316959386,2.406278157275524,-2.527611899408162,2.310105994822398,5.339319041450293,12.49377180503821
-0.7046069501231834,2.459671347690027,-2.504510839459938,2.4350437128727798,4.918409641892059,12.838458375192467
-0.6800102366462831,2.508855444108948,-2.48016040233121,2.5634282966247044,4.458986784620412,13.162899072426951
-0.6549216822051936,2.553445311955152,-2.454526119364963,2.6950572873489738,3.959066876348872,13.464001763499263
-0.6293872290856422,2.5930359807186405,-2.427575546491473,2.8296973049839664,3.416854569153034,13.738809408857671
-0.6034568692784558,2.627204526410171,-2.3992785734416335,2.967085399072543,2.8307987428569956,13.984578378740014
