th1 (rad),w1 (rad/s),th2 (rad),w2 (rad/s),a1 (rad/s^2),a2 (rad/s^2)
5.7343075197431395,0.5172602851372256,0.5257822676346476,0.27599995725532633,7.187505613135288,-8.575295107166804
5.739480122594512,0.5891353412685785,0.5285422672072009,0.1902470061836583,7.158186134940438,-8.66942631918767
5.745371476007198,0.6607172026179828,0.5304447372690375,0.1035527429917816,7.139076002244939,-8.77910429944932
5.751978648033377,0.7321079626404322,0.5314802646989554,0.015761699997288395,7.1306072223922605,-8.904235384630764
5.759299727659782,0.8034140348643548,0.5316378816989282,-0.07328065384901924,7.133288983807748,-9.044821112923241
5.767333868008425,0.8747469247024323,0.5309050751604381,-0.16372886497825168,7.1477026394957015,-9.200957023068286
5.776081337255449,0.9462239510973893,0.5292677865106555,-0.2557384352089345,7.174495080151422,-9.372829312286688
5.785543576766423,1.0179689018989035,0.5267104021585662,-0.3494667283318014,7.214369723838935,-9.56070818915623
5.795723265785412,1.0901125991372929,0.5232157348752482,-0.44507381022336373,7.268074016888207,-9.764936295674161
5.806624391776785,1.162793339306175,0.5187649967730146,-0.5427231731801053,7.336381885649766,-9.985909941955684
5.818252325169846,1.2361571581626725,0.5133377650412135,-0.6425822725996622,7.420068953557558,-10.224050031269943
5.830613896751473,1.310357847698248,0.5069119423152169,-0.7448227729123615,7.519877479572187,-10.47975836458531
5.8437174752284555,1.38555662249397,0.49946371458609323,-0.8496203565582147,7.6364668000305445,-10.753353387393396
5.857573041453395,1.4619212904942753,0.49096751102051106,-0.9571538904321486,7.77034346118455,-11.044977230547849
5.872192254358338,1.5396247251061208,0.48139597211618956,-1.067603662737627,7.921763086716583,-11.354462922722565
5.887588501609399,1.6188423559732867,0.4707199354888133,-1.1811482919648528,8.090593191286251,-11.681146715870508
5.903776925169132,1.6997482878861492,0.4589084525691648,-1.2979597591235579,8.276122497288998,-12.023605383415939
5.920774408047993,1.7825095128590391,0.4459288549779292,-1.4181958129577172,8.47679778131465,-12.379292043519659
5.938599503176584,1.8672774906721856,0.43174689684835205,-1.5419887333929139,8.689864020477943,-12.744036735266253
5.957272278083305,1.954176130876965,0.4163270095144229,-1.6694291007455764,8.910878247136516,-13.11137049757084
5.9768140393920755,2.04328491334833,0.39963271850696713,-1.800542805721285,9.133063625229228,-13.471626262463102
5.9972468885255585,2.1346155496006225,0.3816272904497543,-1.9352590683459159,9.346471186577467,-13.810771163428454
6.018593044021565,2.2280802614663973,0.3622746997662951,-2.0733667799802005,9.536928857497005,-14.108941893592638
6.040873846636229,2.323449550041367,0.3415410319664931,-2.214456198916127,9.684792192860435,-14.338703387138475
6.064108342136643,2.4202974719699717,0.31939646997733184,-2.357843232787512,9.763586587812705,-14.463156519883661
6.088311316856342,2.5179333378480986,0.29581803764945674,-2.5024747979863484,9.738771165831338,-14.434217097022565
6.113490650234823,2.615321049506412,0.27079328966959326,-2.646816968956574,9.567084500811712,-14.191710445037428
6.139643860729887,2.710991894514529,0.2443251199800275,-2.7887340734069483,9.197254291104567,-13.664376995025409
6.166753779675032,2.8029644374255747,0.21643777924595803,-2.9253778433572024,8.573198845602658,-12.774368757477836
6.194783424049287,2.888696425881601,0.187184000812386,-3.0531215309319806,7.6410024314096745,-11.447032547021534
6.223670388308103,2.9651064501956976,0.15665278550306622,-3.167591856402196,6.360488225418176,-9.627132628767917
6.25332145281006,3.0287113324498796,0.12497686693904425,-3.2638631826898754,4.720617166371287,-7.3004269882030295
6.283608566134559,3.075917504113592,0.0923382351121455,-3.3368674525719055,2.7550551466111144,-4.515463090805629
6.314367741175695,3.1034680555797034,0.058969560586426446,-3.3820220834799617,0.5511264111497848,-1.396078132755661
6.3454024217314915,3.1089793196912012,0.02514933975162683,-3.395982864807518,-1.7553432650521932,1.8659058054790376
6.376492214928404,3.091425887040679,-0.008810488896448351,-3.377323806752728,-4.002379639135522,5.042103016657781
6.407406473798811,3.051402090649324,-0.04258372696397563,-3.32690277658615,-6.035671798867866,7.915029997570845
6.437920494705304,2.991045372660645,-0.07585275472983713,-3.2477524766104415,-7.740666610118899,10.323120819033802
6.467830948431911,2.913638706559456,-0.10833027949594154,-3.1445212684201036,-9.060195872698307,12.185419579636457
6.496967335497506,2.823036747832473,-0.13977549218014257,-3.0226670726237392,-9.993262713453309,13.499844459400844
6.525197702975831,2.72310412069794,-0.17000216290637996,-2.887668628029731,-10.580109409160919,14.322231438286815
6.55242874418281,2.6173030266063306,-0.19887884918667725,-2.744446313646863,-10.882794840476368,14.739104323345678
6.578601774448874,2.508475078201567,-0.2263233123231459,-2.5970552704134064,-10.968622213141298,14.84445411371662
6.60368652523089,2.398788856070154,-0.25229386502727996,-2.4486107292762402,-10.899488380460202,14.724820388353173
6.627674413791591,2.289793972265552,-0.27677997232004237,-2.3013625253927086,-10.726869765613436,14.45226676635944
6.650572353514247,2.1825252746094175,-0.29979359757396945,-2.156839857729114,-10.490719084601047,14.082829372444582
6.672397606260341,2.077618083763407,-0.3213619961512606,-2.0160115640046685,-10.220487840646209,13.657938400735908
6.693173787097975,1.9754132053569449,-0.34152211179130726,-1.8794321799973095,-9.936992442404605,13.207018975172918
6.712927919151545,1.8760432809328988,-0.36031643359128035,-1.7473619902455804,-9.654387607742825,12.750241998704242
6.731688351960874,1.7794994048554706,-0.3777900534937362,-1.6198595702585379,-9.3819066720817,12.300949578744678
6.749483346009429,1.6856803381346537,-0.39398864919632154,-1.496850074471091,-9.12526078630976,11.867604332817518
6.766340149390775,1.5944277302715562,-0.40895714994103244,-1.3781740311429158,-8.8877035358754,11.455271784780377
6.78228442669349,1.5055506949128021,-0.4227388902524616,-1.263621313295112,-8.670812572716084,11.066707881602749
6.797339933642618,1.4188425691856412,-0.4353751033854127,-1.1529542344790844,-8.475049581841843,10.703137174273555
6.811528359334475,1.3340920733672228,-0.44690464573020355,-1.0459228627363488,-8.300154364817988,10.364799440603194
6.824869280068147,1.2510905297190429,-0.45736387435756704,-0.9422748683303168,-8.14541836673559,10.051327930232445
6.837380185365338,1.169636346051687,-0.4667866230408702,-0.8417615890279924,-8.009872307207218,9.762007540033956
6.849076548825854,1.0895376229796148,-0.47520423893115016,-0.7441415136276528,-7.892413471065784,9.495948544028934
6.859971925055651,1.010613488268957,-0.4826456540674267,-0.6491820281873635,-7.791891068721941,9.25220155459374
6.87007805993834,0.9326945775817376,-0.4891374743493003,-0.5566600126414261,-7.7071627259219255,9.02983194881034
6.879405005714157,0.8556229503225183,-0.4947040744757146,-0.46636169315332265,-7.637131269997796,8.827966581739146
6.887961235217382,0.7792516376225403,-0.4993676914072478,-0.3780820273359312,-7.58076819876233,8.645821743765943
6.895753751593608,0.703443955634917,-0.5031485116806071,-0.2916238098982718,-7.5371282550339815,8.482718591728887
6.902788191149957,0.6280726730845771,-0.5060647497795898,-0.20679662398098292,-7.505358154862078,8.338090373233536
6.909068917880803,0.5530190915359564,-0.5081327160193997,-0.12341572024864755,-7.484701559748642,8.211484432039487
6.914599108796162,0.47817207593847,-0.5093668732218861,-0.041300875928252684,-7.474501718414258,8.102561056900575
6.919380829555547,0.4034270587543274,-0.5097798819811686,0.03972473464075306,-7.474202743372441,8.011090593623743
6.923415100143091,0.328685031320603,-0.5093826346347611,0.11983564057699049,-7.483350169154083,7.936949793431273
6.926701950456296,0.25385152962906216,-0.5081842782289911,0.19920513851130323,-7.50159121835551,7.880118058799422
6.929240465752587,0.17883561744550705,-0.5061922268438781,0.27800631909929746,-7.5286750476209505,7.84067402767914
6.9310288219270415,0.10354886696929755,-0.5034121636528851,0.35641305937608886,-7.564453135974646,7.818792777656935
6.932064310596735,0.027904335609551092,-0.49984803305912423,0.4346009871526582,-7.608879896331255,7.814743810775222
6.93234335395283,-0.04818446335376146,-0.4955020231875977,0.5127484252604104,-7.662013525099891,7.828889880296954
6.931861509319292,-0.12480459860476037,-0.49037453893499355,0.5910373240633799,-7.724017044300944,7.8616866285810065
6.930613463333245,-0.2020447690477698,-0.48446416569435974,0.66965419034919,-7.795159426117154,7.913682907495924
6.928593015642767,-0.27999636330894134,-0.47776762379086785,0.7487910194241493,-7.875816611500696,7.985521535954171
6.925793052009678,-0.3587545294239483,-0.47027971359662635,0.8286462347836909,-7.966472130924428,8.077940097423742
6.922205506715438,-0.4384192507331926,-0.4619932512487894,0.9094256357579283,-8.067716892085013,8.191771173586776
6.917821314208107,-0.5190964196540427,-0.45289899489121016,0.991343347493796,-8.180247496927851,8.327941121735366
6.9126303500115664,-0.6008988946233212,-0.4429855614162722,1.0746227587111497,-8.304862162051148,8.487466095873852
6.9066213610653335,-0.6839475162438328,-0.4322393338291607,1.1594974196698882,-8.442452905083329,8.671443432906676
6.899781885902895,-0.7683720452946661,-0.42064435963246183,1.2462118539989548,-8.593992072771277,8.881035702828218
6.892098165449949,-0.8543119660223788,-0.40818224109247225,1.335022211027237,-8.760510451159345,9.117443553316667
6.883555045789725,-0.9419170705339722,-0.3948320189821999,1.4261966465604037,-8.943063012769162,9.381861822325707
6.874135875084385,-1.0313477006616638,-0.38057005251659587,1.5200152647836607,-9.142676680633931,9.67541105159862
6.863822398077769,-1.1227744674680031,-0.3653698998687593,1.6167693752996468,-9.360272136874414,9.999033246078982
6.852594653403089,-1.2163771888367472,-0.3492022061157628,1.7167597077604366,-9.596548430455082,10.35333614575288
6.840430881514721,-1.312342673141298,-0.33203460903815846,1.8202930692179655,-9.851814645696788,10.73836398506765
6.827307454783308,-1.4108608195982657,-0.3138316783459788,1.927676709068642,-10.125746851356915,11.153264244023326
6.813198846587325,-1.512118288111835,-0.2945549112552924,2.0392093515088754,-10.41704068501485,11.595808848847573
6.7980776637062075,-1.6162886949619835,-0.2741628177402036,2.155167439997351,-10.72292022485883,12.06171462116966
6.7819147767565875,-1.7235178972105718,-0.2526111433402301,2.2757845862090478,-11.0384529561316,12.543692449395785
6.764679597784482,-1.8339024267718878,-0.22985329747813962,2.4012215107030057,-11.355610958149056,13.03014085444412
6.746340573516763,-1.9474585363533783,-0.20584108237110957,2.531522919247447,-11.662015510774438,13.503395123250911
6.72686598815323,-2.064078691461123,-0.1805258531786351,2.666556870479956,-11.939317870783363,13.937464353580594
6.7062252012386185,-2.1834718701689564,-0.15386028447383554,2.805931514015762,-12.16122508440685,14.29526649426549
6.684390482536929,-2.305084121013025,-0.1258009693336779,2.948884178958417,-12.291313551773854,14.52555788870348
6.661339641326799,-2.4279972565307633,-0.09631212754409374,3.094139757845452,-12.281037888592175,14.560123764899332
6.637059668761491,-2.550807635416685,-0.06537072996563922,3.2397409954944454,-12.06879319346708,14.312426857363903
6.6115515924073245,-2.671495567351356,-0.03297332001069477,3.3828652640680845,-11.58152702222119,13.679806630683377
6.584836636733811,-2.7873108375735676,0.0008553326299860775,3.519663330374918,-10.741046432286518,12.552235215715978
6.556963528358075,-2.894721301896433,0.03605196593373526,3.6451856825320776,-9.477277446763539,10.830801591483574
6.52801631533911,-2.989494076364068,0.07250382275905604,3.7534936984469134,-7.749292177855738,8.457087123925144
6.49812137457547,-3.0669869981426254,0.11003875974352517,3.8380645696861646,-5.57088905012951,5.448961231347665
6.4674515045940435,-3.1226958886439204,0.14841940544038681,3.892554181999641,-3.0313597974578164,1.9297118287298787
6.436224545707605,-3.153009486618499,0.18734494726038323,3.91185130028694,-0.2976937721363686,-1.868723029413919
6.404694450841419,-3.1559864243398623,0.22646346026325262,3.893164069992801,2.4116773336666393,-5.642280251704425
6.373134586598021,-3.131869651003196,0.26539510096318064,3.8367412674757566,4.87699053387388,-9.084634744842832
6.3418158900879895,-3.083099745664457,0.3037625136379382,3.7458949200273284,6.930169675866588,-11.961134381685376
6.310984892631345,-3.0137980489057914,0.3412214628382115,3.626283576210475,8.48650667386082,-14.152959349292683
6.280846912142287,-2.9289329821671832,0.37748429860031624,3.4847539827175478,9.544683269963768,-15.657135035703323
6.251557582320616,-2.8334861494675456,0.4123318384274917,3.3281826323605146,10.163258689122433,-16.55378264791469
6.22322272082594,-2.731853562576321,0.44561366475109687,3.1626448058813676,10.430079804642805,-16.963574540385835
6.195904185200177,-2.6275527645298933,0.4772401128099105,2.9930090604775095,10.437319758076807,-17.013080630805806
6.1696286575548775,-2.5231795669491253,0.5071702034146857,2.8228782541694515,10.26670310634783,-16.814313175769996
6.144396861885387,-2.420512535885647,0.5353989859563801,2.6547351224117515,9.98363133384415,-16.456643729844266
6.12019173652653,-2.3206762225472053,0.5619463371804977,2.490168685113309,9.63690336165746,-16.00647507727919
6.096984974301058,-2.2243071889306307,0.5868480240316308,2.330103934340517,9.26107589948048,-15.510555532413832
6.074741902411751,-2.131696429935826,0.610149063375036,2.1749983790163787,8.879580631697856,-15.000323371308001
6.053424938112393,-2.042900623618847,0.6318990471651998,2.024995145303299,8.507656228561272,-14.495979953377399
6.032995931876204,-1.9578240613332345,0.6521489986182328,1.880035345769525,8.154746379330684,-14.009813608762535
6.013417691262872,-1.8762765975399276,0.6709493520759281,1.7399372096818995,7.82631769614667,-13.548714864087698
5.994654925287473,-1.7980134205784608,0.6883487241727471,1.6044500610410224,7.525175138947006,-13.115993647432418
5.976674791081688,-1.7227616691889907,0.7043932247831572,1.4732901245666983,7.252384941335281,-12.712652608956358
5.9594471743897985,-1.6502378197756378,0.7191261260288242,1.3461635984771347,7.0079080795754,-12.338260159912586
5.942944796192042,-1.5801587389798837,0.7325877620135955,1.2227809968780088,6.79102767203312,-11.991539027441942
5.927143208802243,-1.5122484622595525,0.7448155719823756,1.1028656066035893,6.600633019112033,-11.67075715479503
5.912020724179648,-1.4462421320684322,0.7558442280484114,0.986158035055639,6.435405502301605,-11.37398338723521
5.897558302858964,-1.3818880770454163,0.7657058083989678,0.872418201183287,6.293938118134184,-11.099251701661183
5.883739422088509,-1.3189486958640744,0.7744299904108007,0.7614256841666751,6.17481061135175,-10.84466414114016
5.870549935129868,-1.257200589750557,0.7820442472524675,0.6529790427552735,6.0766352247942494,-10.608453015348196
5.857977929232363,-1.1964342375026145,0.7885740376800202,0.5468945126017916,5.998083255949322,-10.38901627623049
5.846013586857337,-1.1364534049431212,0.7940429828060381,0.44300434983948667,5.937899294165128,-10.184935424874487
5.834649052807906,-1.07707441200147,0.798473026304433,0.3411549955907418,5.8949077515405,-9.994982213583523
5.823878308687892,-1.018125334486065,0.8018845762603404,0.24120517345490658,5.868014766010078,-9.818118319281727
5.813697055343031,-0.9594451868259642,0.8042966279948894,0.1430239902620893,5.856207516937253,-9.653490760827331
5.804102603474771,-0.9008831116565917,0.8057268678975104,0.04648908265381599,5.858552292798474,-9.500424893211406
5.795093772358205,-0.842297588728607,0.8061917587240485,-0.04851516627829808,5.874192178754815,-9.358416185573002
5.786670796470919,-0.7835556669410589,0.8057066070612655,-0.1420993281340281,5.902344915295905,-9.227121575372294
5.778835239801509,-0.7245322177880998,0.8042856137799252,-0.23437054388775103,5.942301267709852,-9.1063509188208
5.771589917623628,-0.6651092051110014,0.8019419083410477,-0.325434053075959,5.9934241060173745,-8.996058881046244
5.764938825572519,-0.6051749640508276,0.7986875678102882,-0.41539464188642145,6.055148303242846,-8.896337496863081
5.7588870759320105,-0.5446234810183992,0.7945336213914239,-0.5043580168550522,6.126981500851326,-8.807409563003924
5.753440841121827,-0.48335366600988594,0.7894900412228734,-0.5924321124850914,6.208505753143448,-8.729622980641855
5.748607304461728,-0.4212686084784515,0.7835657200980225,-0.6797283422915099,6.299380039914468,-8.663446142924675
5.744394618376943,-0.3582748080793068,0.7767684366751074,-0.7663628037207567,6.399343623413608,-8.609464448918438
5.74081187029615,-0.29428137184517067,0.7691048086378999,-0.8524574482099411,6.50822021755262,-8.568378017493714
5.737869056577698,-0.2291991696696445,0.7605802341558004,-0.9381412283848782,6.625922931070409,-8.541000667919066
5.735577064881001,-0.16293994035894038,0.7511988218719516,-1.023551235064069,6.752459938816043,-8.528260224145239
5.7339476654774115,-0.09541534097077996,0.740963309521311,-1.1088338373055213,6.8879408230308865,-8.531200182467234
5.732993512067703,-0.026535932740471085,0.7298749711482557,-1.1941458391301936,7.032583505252724,-8.550982751823893
5.7327281527402985,0.04378990231205615,0.7179335127569538,-1.2796556666484324,7.186721653542309,-8.588893224832018
5.733166051763419,0.11565711884747924,0.7051369560904696,-1.3655445988967527,7.350812391146402,-8.646345554974468
5.734322622951894,0.18916524275894325,0.691481510101502,-1.4520080544464975,7.525444039935739,-8.724888885546733
5.736214275379484,0.26441968315830067,0.6769614295570371,-1.539256943301965,7.71134348818599,-8.826214576123757
5.738858472211067,0.34153311804016057,0.6615688601240174,-1.6275190890632025,7.909382552862031,-8.952162968733695
5.742273803391469,0.4206269435687809,0.6452936692333854,-1.7170407187505394,8.120582375285986,-9.104728678869723
5.746480072827157,0.5018327673216407,0.62812326204588,-1.8080880055392368,8.34611439259048,-9.28606251245699
5.751498400500373,0.5852939112475455,0.6100423819904877,-1.9009486306638066,8.58729568722821,-9.49846709044711
5.757351339612849,0.6711668681198276,0.5910328956838496,-1.9959333015682776,8.845575417833262,-9.744381748030198
5.764063008294047,0.7596226222981602,0.5710735626681669,-2.0933771190485797,9.122507408427358,-10.026350031034056
5.771659234517029,0.8508476963824338,0.5501397914776811,-2.1936406193589204,9.41970157462953,-10.346959796209363
5.7801677114808525,0.9450447121287291,0.5282033852840919,-2.297110217321014,9.738743343823765,-10.708741042494863
5.78961815860214,1.0424321455669667,0.5052322831108818,-2.4041976277459627,10.081065086182546,-11.113999460872646
5.80004248005781,1.1432427964287921,0.4811903068334221,-2.5153376223546893,10.44774613911978,-11.564553336221588
5.811474908022098,1.24772025781999,0.4560369306098752,-2.630983155716905,10.83920740483671,-12.06132662305598
5.823952110600298,1.356112331868357,0.4297270990527062,-2.751596421947465,11.254751709982488,-12.603730285041571
5.8375132339189815,1.468659848968182,0.4022111348332315,-2.8776337247978807,11.691881216829195,-13.1887359790789
5.8521998324086635,1.585578661136474,0.3734347975852527,-3.0095210845886697,12.145298028272503,-13.809510567477876
5.868055619020028,1.707031641419199,0.34333958673936604,-3.1476161902634483,12.605466011934498,-14.453439749190016
5.88512593543422,1.8330863015385441,0.3118634248367316,-3.2921505877553483,13.056588986990526,-15.099335492109445
5.903456798449605,1.9636521914084495,0.2789419189591781,-3.4431439426764427,13.473863784494876,-15.71362389311602
5.92309332036369,2.098390829253398,0.24451047953241364,-3.600280181607603,13.819942130110858,-16.245411172631282
5.944077228656224,2.2365902505545066,0.2085076777163376,-3.762734293333916,14.04077059689102,-16.620648101729614
5.9664431311617685,2.3769979565234167,0.17088033478299844,-3.928940774351212,14.061516789157881,-16.736358501903005
