th1 (rad),w1 (rad/s),th2 (rad),w2 (rad/s),a1 (rad/s^2),a2 (rad/s^2)
4.146807009622037,2.1208305913731293,4.276518428342851,-2.8845151627581864,9.237320126335746,-0.8577892274346193
4.168015315535769,2.2132037926364867,4.247673276715269,-2.8930930550325327,9.031318687899997,-0.6317536384172555
4.190147353462134,2.3035169795154866,4.218742346164944,-2.8994105914167054,8.745776481645192,-0.263925136664973
4.213182523257289,2.3909747443319387,4.189748240250776,-2.902049842783355,8.382796852909793,0.24520016458740126
4.237092270700608,2.474802712861037,4.160727741822943,-2.899597841137481,7.951985668427796,0.8846600569850669
4.2618402978292185,2.554322569545315,4.131731763411568,-2.89075124056763,7.470256432803731,1.633194452390459
4.287383523524672,2.6290251338733523,4.102824251005892,-2.8744192960437256,6.9602750980686166,2.461325512130953
4.313673774863405,2.6986278848540386,4.074080058045454,-2.849806040922416,6.447758138949228,3.3350669578568284
4.340660053711946,2.763105466243531,4.04558199763623,-2.816455371343848,5.958221794461819,4.220437404824449
4.368291108374381,2.822687684188149,4.017417443922792,-2.7742509972956038,5.513958873908648,5.087694975611425
4.396517985216263,2.8778272729272354,3.9896749339498356,-2.7233740475394894,5.131903406469732,5.914364541418076
4.425296257945535,2.9291463069919326,3.9624411934744406,-2.6642304021253085,4.8227032166808685,6.686598619659169
4.454587721015454,2.977373339158741,3.9357988894531877,-2.5973644159287166,4.590932793076811,7.398952678185855
4.484361454407041,3.0232826670895094,3.9098252452939004,-2.523374889146858,4.436107912971203,8.053035394014529
4.514594281077936,3.0676437462192214,3.884591496402432,-2.4428445352067127,4.354076151298695,8.655619711590344
4.545270718540128,3.1111845077322084,3.860163051050365,-2.3562883380908093,4.338420374740274,9.216716345693778
4.57638256361745,3.154568711479611,3.8366001676694568,-2.2641211746338716,4.381646045446527,9.747927748575638
4.607928250732247,3.1983851719340763,3.813958955923118,-2.166641897148115,4.476056632864333,10.261216191238644
4.6399121024515875,3.2431457382627196,3.7922925369516367,-2.064029735235729,4.614317125305219,10.768086899306653
4.672343559834214,3.2892889095157716,3.7716522395992795,-1.9563488662426622,4.7897567425840695,11.279115882159818
4.705236448929372,3.3371864769416124,3.752088750936853,-1.843557707421064,4.996478402131079,11.803728664139724
4.738608313698788,3.387151260962923,3.733653173862642,-1.7255204207796668,5.229338411558402,12.350141128394885
4.772479826308417,3.439444645078507,3.7163979696548455,-1.602019009495718,5.483846880395448,12.925391089997435
4.806874272759202,3.4942831138824615,3.7003777795598882,-1.4727650985957437,5.756024743875095,13.53540899739478
4.841817103898027,3.5518433613212124,3.685650128573931,-1.3374110086217958,6.042240637408467,14.185093431336849
4.877335537511239,3.612265767695297,3.672276018487713,-1.1955600743084274,6.339041325011982,14.878370254543235
4.913458195188191,3.675656180945417,3.6603204177446287,-1.046776371762995,6.642982905013187,15.61822351168045
4.950214756997646,3.742086009995549,3.649852654026999,-0.8905941366461905,6.9504660454922975,16.40669231680875
4.9876356170976015,3.811590670450472,3.640946712660537,-0.7265272134781029,7.257576412771307,17.24483194720304
5.025751523802106,3.884166434578185,3.6336814405257556,-0.5540788940060725,7.559930711456765,18.132640023338816
5.064593188147888,3.9597657416927525,3.628140651585695,-0.37275249377268427,7.85252895103964,19.068950640161734
5.1041908455648155,4.038291031203149,3.624413126647968,-0.1820629873710669,8.129614409043649,20.051301083079625
5.144573755876847,4.119587175293585,3.6225924967742578,0.018450023459729348,8.384544076241243,21.075777610720497
5.185769627629782,4.203432616055998,3.622776997008855,0.22920779956693432,8.609673993617836,22.136848875299513
5.2278039537903425,4.289529355992176,3.6250690750045242,0.45057628831992946,8.79626568291901,23.22719791716125
5.270699247350264,4.377492012821366,3.6295748378877235,0.6828482674915419,8.934421675877587,24.337566231325845
5.314474167478478,4.466836229580142,3.6364033205626387,0.9262239298048004,9.013059770458115,25.45662596248133
5.359142529774279,4.5569668272847235,3.645665559860687,1.1807901894296138,9.019936854450247,26.570898531529114
5.404712198047126,4.647166195829226,3.657473461754983,1.446499174744905,8.941733675517787,27.664739530633646
5.451183860005418,4.736583532584404,3.671938453502432,1.7231465700512414,8.76421153654609,28.72041009451303
5.4985496953312625,4.824225647949865,3.6891699192029446,2.0103506709963717,8.472450330255583,29.718253733792448
5.546791951810761,4.90895015125242,3.709273425912908,2.3075332083342963,8.051174468073432,30.63699448771008
5.595881453323285,4.989461895933155,3.732348757996251,2.613903153211397,7.4851691268548475,31.454167126255538
5.645776072282617,5.0643135872017035,3.758487789528365,2.9284448244739525,6.7597840409246785,32.14668322527127
5.696419208154634,5.131911427610951,3.7877722377731047,3.249911656726665,5.861516191545733,32.691528817938725
5.7477383224307435,5.190526589526408,3.8202713543403712,3.576826944906052,4.778656684867024,33.06658084675889
5.799643588326007,5.238313156375079,3.8560396237894317,3.907492753373641,3.501981330986398,33.251521771950195
5.852026719889758,5.273332969684943,3.895114551323168,4.240007971093143,2.0254592126777955,33.22882524867274
5.904760049586607,5.293587561811721,3.9375146310340994,4.572296223579871,0.3469487867111786,32.98478111619785
5.957695925204725,5.297057049678833,3.983237593269898,4.902144034741849,-1.5311536767802352,32.51052470614719
6.010666495701513,5.281745512911031,4.032259033617317,5.227249281803321,-3.6013539649880517,31.803032635325806
6.063483950830624,5.24573197326115,4.08453152643535,5.545279608156579,-5.850635528738819,30.866043385774137
6.115941270563235,5.187225617973762,4.1399843225169155,5.853940042014321,-8.260226285760734,29.710854963628886
6.167813526742973,5.104623355116154,4.1985237229370584,6.15104859165061,-10.80562005159283,28.35694380868349
6.2188597602941345,4.996567154600226,4.260034208853565,6.434618029737445,-13.456920998291798,26.83234089817775
6.268825431840137,4.861997944617308,4.32438038915094,6.702941438719223,-16.17957716233093,25.17369691938781
6.31744541128631,4.700202172993999,4.3914098035381315,6.954678407913101,-18.93555449738408,23.425974453466644
6.36444743301625,4.510846628020158,4.460956587617263,7.188938152447768,-21.684972769999586,21.6417274150219
6.409555899296452,4.2939969003201615,4.53284596914174,7.405355426597986,-24.38817857740186,19.87997036284527
6.452495868299653,4.050115114546143,4.60689952340772,7.604155130226439,-27.00817387020846,18.204701852604263
6.492997019445115,3.7800333758440585,4.682941074709984,7.786202148752482,-29.513261001373827,16.68321966496404
6.530797353203555,3.48490076583032,4.76080309619751,7.953034345402122,-31.8797216750431,15.384438734767441
6.565646360861858,3.1661035490798892,4.8403334396515305,8.106878732749797,-34.09433133991469,14.37747923876946
6.597307396352656,2.8251602356807424,4.921402226979028,8.25065352513749,-36.15653147907971,13.730818253812398
6.625558998709463,2.4635949208899453,5.003908762230403,8.387961707675615,-38.08013873323612,13.512284496337513
6.650194947918363,2.082793533557584,5.08778837930716,8.52308455263899,-39.89454714486434,13.790118245193348
6.671022883253939,1.6838480621089407,5.173019224833549,8.660985735090923,-41.64544719308646,14.635213169190635
6.687861363875029,1.267393590178076,5.259629082184459,8.807337866782829,-43.395090238385784,16.12448061030794
6.700535299776809,0.833442687794218,5.347702460852287,8.968582672885908,-45.22197753917471,18.344951007327307
6.7088697266547515,0.3812229124024709,5.437388287581146,9.152032182959182,-47.21936766544089,21.397536489479894
6.712681955778776,-0.09097076425193801,5.528908609410737,9.36600754785398,-49.4907805708665,25.397795282109026
6.711772248136256,-0.5858785699606031,5.622568684889277,9.619985500675071,-52.137841157925905,30.46732696424023
6.7059134624366505,-1.107256981539862,5.718768539896028,9.924658770317473,-55.2293690990453,36.70080399584803
6.694840892621252,-1.659550672530315,5.818015127599203,10.291666810275952,-58.726482116769425,44.074282975952585
6.6782453858959485,-2.2468154936980094,5.9209317957019625,10.732409640035478,-62.30985077815543,52.22048339088316
6.655777230958968,-2.8699140014795637,6.028255892102317,11.25461447394431,-65.00991857250398,59.9318346995257
6.627078090944172,-3.5200131872046034,6.14080203684176,11.853932820939567,-64.53126863003382,64.23194053817407
6.591877959072126,-4.165325873504941,6.259341365051156,12.496252226321308,-56.48564769204347,59.28860582167333
6.550224700337076,-4.730182350425376,6.384303887314369,13.089138284538041,-35.177603736171356,37.40063044933827
6.502922876832822,-5.08195838778709,6.515195270159749,13.463144589031424,0.522136009564871,-3.092393391046837
6.452103292954951,-5.076737027691441,6.649826716050064,13.432220655120956,39.04915177575389,-46.86429289706538
6.401335922678037,-4.686245509933902,6.784148922601274,12.963577726150302,63.56899128863519,-71.87745139679697
6.354473467578698,-4.05055559704755,6.913784699862776,12.244803212182331,70.56892937230292,-74.299650235945
6.313967911608223,-3.3448663033245207,7.036232731984599,11.501806709822882,67.79993610565688,-64.96919163333935
6.2805192485749775,-2.666866942267952,7.151250799082828,10.852114793489488,62.112894555227484,-52.93488529006719
6.253850579152298,-2.045737996715677,7.259771947017723,10.322765940588816,56.506140102358714,-41.903427862884534
6.233393199185141,-1.4806765956920898,7.362999606423611,9.90373166195997,51.82729533499663,-32.75586756691633
6.21858643322822,-0.9624036423421235,7.462036923043211,9.576172986290807,48.13456660805527,-25.410635964058216
6.2089623968047984,-0.48105797626157076,7.557798652906119,9.322066626650225,45.26463911883264,-19.563673017585597
6.204151817042183,-0.028411585073244372,7.6510193191726215,9.126429896474368,43.022188581622984,-14.917695930339178
6.2038677011914505,0.40181030074298546,7.742283618137365,8.977252937170977,41.23277834241846,-11.235196792831871
6.20788580419888,0.8141380841671702,7.832056147509075,8.864900969242658,39.75208487160437,-8.338800272906646
6.216027185040551,1.211658932883214,7.9207051572015015,8.781512966513592,38.4630412954239,-6.0990471555329515
6.228143774369383,1.596289345837453,8.008520286866638,8.720522494958262,37.27093354606563,-4.421400845303814
6.244106667827758,1.9689986812981093,8.095725511816221,8.676308486505224,36.09929750088623,-3.2353449493051185
6.263796654640739,2.3299916563069716,8.182488596681274,8.643955037012173,34.887145890445495,-2.4858416299709103
6.287096571203809,2.6788631152114264,8.268928147051396,8.619096620712464,33.58734446185137,-2.1268164124404376
6.313885202355923,3.0147365598299403,8.355119113258521,8.59782845658806,32.165769888450164,-2.1163137553645974
6.344032567954223,3.3363942587144417,8.441097397824402,8.576665319034413,30.600862152712892,-2.4130748009757843
6.3773965105413675,3.642402880241571,8.526864051014746,8.552534571024655,28.88322308302986,-2.974382454817975
6.413820539343783,3.9312351110718695,8.612389396724993,8.522790746476476,27.014982095516306,-3.75506094632965
6.453132890454502,4.2013849320270324,8.697617304189757,8.485240137013179,25.00874306149521,-4.707506216710931
6.495146739774772,4.451472362641985,8.782469705559889,8.438165074846069,22.88603582199739,-5.782575286730231
6.539661463401192,4.6803327208619585,8.866851356308349,8.380339321978767,20.675309304358148,-6.9311008888143055
6.586464790609812,4.88708581390554,8.950654749528136,8.311028313090624,18.409602568516735,-8.105747783035648
6.6353356487488675,5.071181839590707,9.033765032659042,8.229970835260268,16.124097585728318,-9.262910220809864
6.686047467144775,5.232422815447991,9.116064741011645,8.13734173305217,13.853781374778459,-10.36437629044716
6.7383716952992545,5.370960629195775,9.197438158342166,8.033697970147697,11.631423796852294,-11.378551448176935
6.792081301591212,5.487274867164298,9.277775138043642,7.919912455665928,9.486020099446858,-12.281125987590421
6.846954050262855,5.582135068158767,9.356974262600302,7.797101195790024,7.44177091126755,-13.055169084962523
6.902775400944443,5.656552777271442,9.434945274558203,7.666549504940399,5.5175954746513405,-13.690715760314482
6.9593409287171575,5.7117287320179555,9.511610769607607,7.529642347337254,3.727111699737384,-14.183969347708254
7.016458216037337,5.74899984901533,9.586907193080979,7.387802653860171,2.078977682527246,-14.536266391054681
7.073948214527491,5.769789625840602,9.66078521961958,7.242439989949625,0.5774749769155207,-14.752946750209892
7.131646110785897,5.775564375609757,9.733209619519076,7.094910522447526,-0.7767800510945732,-14.842247593787242
7.189401754541994,5.767796575098811,9.804158724743552,6.9464880465096535,-1.986091061044962,-14.814305852163082
7.247079720292983,5.747935664488361,9.873623605208648,6.798344987988022,-3.054971599898739,-14.680318326585061
7.304559076937866,5.717385948489373,9.941607055088529,6.6515418047221715,-3.989513235695769,-14.451877984388576
7.36173293642276,5.677490816132416,10.008122473135751,6.507023024878285,-4.796853265281969,-14.140482018555671
7.4185078445840835,5.629522283479596,10.073192703384533,6.365618204692729,-5.484746730649225,-13.757192577600295
7.47480306741888,5.574674816173104,10.13684888543146,6.228046278916726,-6.061236479734286,-13.312423672849192
7.530549815580611,5.514062451375762,10.199129348220627,6.094922042188235,-6.534408834418145,-12.815825897765707
7.5856904400943685,5.44871836303158,10.260078568642509,5.9667637832105775,-6.912219931675535,-12.276242377478185
7.640177623724685,5.379596163714825,10.319746206474615,5.844001359435795,-7.202377795799208,-11.70171317634136
7.693973585361833,5.307572385756833,10.378186220068974,5.726984227672382,-7.41226665952144,-11.09950999232229
7.747049309219402,5.2334497191616185,10.435456062345699,5.61598912774916,-7.548902205474842,-10.476187533208416
7.799383806411018,5.15796069710687,10.49161595362319,5.511227252417076,-7.618908720175822,-9.837642023051012
7.850963413382086,5.081771609905112,10.546728226147362,5.412850832186566,-7.6285113225355765,-9.189170610192297
7.9017811294811375,5.005486496679756,10.600856734469227,5.3209591260846425,-7.583538286050103,-8.53552799728394
7.951835994447935,4.929651113819255,10.654066325730074,5.235603846111803,-7.489429962654102,-7.880978448783623
8.001132505586128,4.854756814192714,10.706422364191193,5.156794061623967,-7.351251946076732,-7.229342563509175
8.049680073728055,4.7812442947319465,10.757990304807432,5.084500635988875,-7.17371092734464,-6.584038956174025
8.097492516675375,4.7095071854585004,10.808835311167321,5.018660246427135,-6.961172252822215,-5.948121394942698
8.14458758852996,4.639895462930278,10.859021913631592,4.959179032477708,-6.717678555186203,-5.324312098723062
8.190986543159264,4.5727186773784165,10.90861370395637,4.905935911490477,-6.446969043646811,-4.715031894921019
8.236713729933047,4.508248986941949,10.957673063071274,4.858785592541267,-6.152499156357612,-4.122427842197545
8.281796219802466,4.446723995378372,11.006260918996686,4.817561314119291,-5.837460330510312,-3.5483987815630305
8.32626345975625,4.388349392073269,11.05443653213788,4.782077326303661,-5.504799660325899,-2.9946191257991055
8.370146953676983,4.33330139547001,11.102257305400917,4.752131135045669,-5.157239208596458,-2.4625610525466253
8.413479967631682,4.281729003384045,11.149778616751373,4.727505524520203,-4.797294726040171,-1.9535151423061852
8.456297257665522,4.233756056123644,11.197053671996574,4.707970373097141,-4.427293522321021,-1.4686094046285731
8.498634818226758,4.189483120900434,11.244133375727547,4.6932842790508555,-4.0493912276888295,-1.0088265653599746
8.540529649435763,4.148989208623545,11.291066218518056,4.683196013397255,-3.6655871871723082,-0.575019443937532
8.582019541522,4.112333336751822,11.33789817865203,4.67744581895788,-3.2777382411445593,-0.1679242301629853
8.623142874889517,4.0795559543403765,11.384672636841607,4.67576657665625,-2.887570667210716,0.2118285280231317
8.663938434432922,4.05068024766827,11.43143030260817,4.677884861936482,-2.4966900887824477,0.5637053930184256
8.704445236909605,4.025713346780445,11.478209151227535,4.683521915866666,-2.106589195381726,0.8872640913586051
8.744702370377409,4.004647454826627,11.525044370386201,4.692394556780252,-1.7186531686545043,1.1821502285502876
8.784748844925675,3.987460923140082,11.571968315954004,4.704216059065756,-1.3341627662652926,1.4480966735646947
8.824623454157075,3.974119295477429,11.619010476544663,4.7186970258014025,-0.9542950831493492,1.6849255421633744
8.86436464711185,3.9645763446459354,11.666197446802677,4.735546281223036,-0.5801220855898627,1.8925526178732825
8.90401041055831,3.9587751237900366,11.713552909614908,4.754471807401769,-0.2126070973306961,2.0709939500603203
8.94359816179621,3.9566490528167297,11.761097627688926,4.775181746902373,0.1474004931983585,2.220374262709485
8.983164652324378,3.9581230577487134,11.80884944515795,4.797385489529468,0.4991719419756579,2.340936698610055
9.022745882901866,3.96311477716847,11.856823300053245,4.820794856515568,0.8421068185880571,2.4330533160480017
9.06237703067355,3.971535845354351,11.9050312486184,4.845125389676048,1.1757410899808225,2.4972356541830534
9.102092389127094,3.983293256254159,11.95348250251516,4.870097746217879,1.4997549934753693,2.534144595214547
9.141925321689635,3.998290806188913,12.002183479977338,4.895439192170024,1.8139800096050303,2.5445986829143465
9.181908229751524,4.016430606284963,12.051137871899039,4.920885178999168,2.11840420284765,2.529580014856741
9.222072535814375,4.03761464831344,12.10034672368903,4.946180979147735,2.413175183374639,2.490236815861655
9.26244868229751,4.061746400147186,12.149808533480508,4.971083347306352,2.698599960340765,2.4278818276619503
9.303066146298981,4.088732399750594,12.199519366953572,4.995362165582971,2.9751410102221962,2.3439857174739234
9.343953470296487,4.118483809852815,12.249472988609401,5.01880202275771,3.2434079732159167,2.240164816192701
9.385138308395016,4.150917889584974,12.299661008836978,5.0412036709196375,3.5041445149202612,2.1181626424114106
9.426647487290866,4.185959334734177,12.350073045546175,5.062385297343751,3.758210044562914,1.9798248450899698
9.468507080638208,4.223541435179806,12.400696898519612,5.082183545794651,4.006556157060566,1.827067396004073
9.510742494990007,4.263606996750411,12.45151873397756,5.100454219754692,4.250197853705658,1.6618380709884832
9.55337856495751,4.306108975287468,12.502523276175106,5.117072600464577,4.490179782933274,1.4860714626788072
9.596439654710386,4.3510107731168,12.553694002179752,5.1319333150913655,4.727537915276963,1.3016379527948707
9.639949762441553,4.39828615226957,12.605013335330666,5.1449496946193145,4.963257212602618,1.1102872259598786
9.68393262396425,4.447918724395596,12.656462832276858,5.1560525668789134,5.198225960183157,0.9135870192615966
9.728411811208206,4.499900983997428,12.708023357945647,5.16518843707153,5.433187493430185,0.7128578660250808
9.77341082104818,4.55423285893173,12.759675242316362,5.172317015731781,5.668690065619829,0.5091046077026739
9.818953149637498,4.6109197595879285,12.81139841247368,5.177408061808808,5.905035570130009,0.30294541964796007
9.865062347233376,4.669970115289229,12.863172493091769,5.180437516005287,6.142227757194673,0.0945390365768006
9.911762048386269,4.731392392861176,12.914976868251822,5.181382906371055,6.37992048278487,-0.11648921008072655
9.95907597231488,4.7951915976890245,12.966790697315533,5.180218014270247,6.617366412544638,-0.33112199372497425
10.00702788829177,4.861365261814471,13.018592877458236,5.176906794332997,6.853366497523877,-0.5510247064756322
10.055641540909914,4.9298989267897095,13.070361945401565,5.171396547268241,7.086220465121718,-0.7786197065788617
