th1 (rad),w1 (rad/s),th2 (rad),w2 (rad/s)
6.220353369218527,1.9863679329698443,4.095276776096464,-1.0423699486176898
6.240217048548225,2.022812419003899,4.084853076610287,-0.9097147612096748
6.260445172738264,2.060633605042844,4.07575592899819,-0.7753914903520449
6.281051508788693,2.099557050569063,4.06800201409467,-0.6394584731533006
6.3020470792943835,2.139295095287027,4.0616074293631375,-0.5020093590512816
6.323440030247253,2.1795473214586667,4.056587335772624,-0.36317232207945604
6.34523550346184,2.220001486272515,4.05295561255183,-0.2231087696999026
6.367435518324565,2.260334920290015,4.0507245248548305,-0.0820115014499107
6.3900388675274655,2.300216371334123,4.049904409840331,0.059897703768780314
6.413041031240807,2.339308254807101,4.050503386878019,0.2023710639092006
6.436434113788878,2.3772692525565446,4.052527097517111,0.3451382946761485
6.460206806314443,2.4137571844654846,4.055978480463873,0.48791056522329046
6.484344378159098,2.4484320614243047,4.060857586116105,0.6303848098306706
6.508828698773341,2.4809592166893166,4.0671614342144125,0.7722482721477919
6.533638290940234,2.511012406068479,4.074883916935891,0.9131831404187276
6.558748415000919,2.5382767667601427,4.084015748340078,1.0528711220453673
6.5841311826685205,2.5624515303942603,4.094544459560532,1.1909978049749104
6.609755697972463,2.583252397744289,4.106454437610281,1.327256662062413
6.635588221949906,2.6004135000227855,4.119727004230905,1.4613525723142449
6.661592356950134,2.6136888935164664,4.134340529954047,1.593004758574673
6.687729245885299,2.622853559091312,4.150270577539794,1.7219490729728837
6.713957781476212,2.6277039041546018,4.167490068269522,1.8479395970819954
6.740234820517759,2.628057790326748,4.185969464240342,1.9707495608485277
6.766515398421026,2.623754133806919,4.2056769598488275,2.0901716205656133
6.7927529397590956,2.6146521459103216,4.2265786760544835,2.2060175693586896
6.818899461218199,2.6006302975211075,4.24863885174807,2.3181175820786284
6.84490576419341,2.5815851025857985,4.2718200275688565,2.426319118855494
6.870721615219268,2.557429821923512,4.296083218757412,2.530485627017653
6.896295913438503,2.5280931894689367,4.321388075027588,2.630495189203874
6.921576845333192,2.4935182587079177,4.347693026919627,2.7262392662088333
6.946512027920271,2.4536614577649627,4.374955419581715,2.817621676576907
6.97104864249792,2.408491927697364,4.403131636347484,2.9045579415434433
6.995133561774894,2.357991200450339,4.432177215762919,2.986975104091533
7.018713473779398,2.30215325111685,4.462046966803834,3.064812105233709
7.041735006290566,2.24098493422285,4.4926950878561716,3.1380207698696063
7.064144855632795,2.174506786490615,4.5240752955548675,3.2065674196379037
7.0858899234977,2.1027541499165654,4.5561409697512465,3.270435092274148
7.106917464996866,2.025778540311501,4.588845320673988,3.32962630765347
7.127175250399981,1.9436491592620808,4.622141583750523,3.3841662818799825
7.146611741992602,1.8564544236152931,4.655983246569322,3.434106454806541
7.165176286228754,1.76430336805653,4.690324311117387,3.4795281658496346
7.18281931990932,1.667326765132539,4.725119592775884,3.5205462906452833
7.199492587560645,1.5656778049104845,4.760325055682337,3.5573126395750996
7.21514936560975,1.4595321846060183,4.795898182078088,3.5900189206186295
7.22974468745581,1.349087477429523,4.8317983712842745,3.6188990846988145
7.2432355622301055,1.2345616790808376,4.867987362131263,3.6442309019179917
7.255581179020914,1.1161908681643993,4.904429671150443,3.6663366607639167
7.266743087702558,0.9942259606289507,4.941093037758082,3.6855829370838236
7.276685347308848,0.8689285846122211,4.97794886712892,3.7023794417683833
7.28537463315497,0.740566146705462,5.014972661546604,3.7171770211937236
7.292780294622025,0.609406199464074,5.052144431758542,3.730464947725248
7.298874356616666,0.4757102491837261,5.089449081235794,3.7427676944154533
7.3036314591085025,0.3397271595668918,5.126876758179948,3.7546414346708046
7.307028730704172,0.20168630909941393,5.164423172526656,3.7666705416605084
7.309045593795166,0.06179064721067254,5.202089877943261,3.7794643827387384
7.3096635002672725,-0.07979023268036992,5.239884521770649,3.7936547119940998
7.308865597940469,-0.22292692459449837,5.2778210688905896,3.8098939616416825
7.306636328694523,-0.36753691682267475,5.315920008507006,3.8288547240240134
7.302960959526296,-0.5135912021210619,5.354208555747246,3.8512307050401007
7.297825047505086,-0.6611208812879681,5.392720862797647,3.8777394218360164
7.291213838692206,-0.8102239152397384,5.431498257016007,3.9091269174844325
7.283111599539809,-0.961072247521015,5.470589526190851,3.9461747776038516
7.273500877064599,-1.113919586957491,5.51005127396689,3.9897097619424424
7.262361681195024,-1.2691102082594816,5.549948371586314,4.040616409825432
7.249670579112429,-1.4270891953545013,5.590354535684568,4.099853041268283
7.235399687158885,-1.5884146138730686,5.631353066097251,4.168471649739663
7.2195155410201535,-1.7537721449806072,5.673037782594648,4.247642252756122
7.201977819570347,-1.9239927188308215,5.715514205122209,4.338682298913405
7.182737892382039,-2.10007360203367,5.758901028111342,4.443091654499723
7.161737156361702,-2.2832031174209404,5.80333194465634,4.56259336815132
7.138905125187493,-2.4747885022881446,5.848957878337853,4.699179557110229
7.114157240164611,-2.6764849416269776,5.895949673908955,4.855159819080069
7.087392390748342,-2.8902207596125464,5.944501272099756,5.033205461076214
7.058490183152216,-3.1182075880448425,5.994833326710518,5.236374428417594
7.027308107271767,-3.3629121226129786,6.047197070994694,5.468085024864379
6.993678986045637,-3.626942348392698,6.1018779212433385,5.731973671337205
6.95740956256171,-3.9127562103972418,6.15919765795671,6.031509484765582
6.9182820004577374,-4.222019828376388,6.219512752804366,6.369125438791222
6.8760618021739734,-4.554311277201861,6.283204007192278,6.744441751845987
6.830518689401955,-4.904705281663282,6.350648424710738,7.150929341598596
6.781471636585322,-5.259761876617848,6.422157718126724,7.5703361688225295
6.728874017819144,-5.592207742414013,6.497861079814949,7.965255314669334
6.672951940395004,-5.857440111186428,6.577513632961642,8.27416809489489
6.61437753928314,-6.000104801749672,6.660255313910591,8.420448851514637
6.554376491265644,-5.978826427920837,6.744459802425737,8.34659869008312
6.494588226986435,-5.797037389365843,6.827925789326569,8.056925713325615
6.436617853092777,-5.505125683583853,6.908495046459826,7.620341677217716
6.381566596256938,-5.167152483366207,6.984698463232003,7.124178654800509
6.329895071423277,-4.830135570696692,7.055940249780008,6.631931337188479
6.28159371571631,-4.517912365193381,7.122259563151893,6.175140837122855
6.236414592064376,-4.238520493606929,7.184010971523121,5.763797527014555
6.194029387128307,-3.9921018788065687,7.2416489467932665,5.397283357084126
6.154108368340241,-3.7756700680043918,7.295621780364108,5.070901210611882
6.116351667660197,-3.585397242800556,7.346330792470227,4.778967926983075
6.080497695232192,-3.417560902340776,7.394120471740058,4.516069545095164
6.046322086208784,-3.268869435078306,7.43928116719101,4.277474887406297
6.013633391858001,-3.136525602086123,7.482055916065073,4.059200036219819
5.982268135837139,-3.018190384121864,7.522647916427271,3.8579442344409944
5.952086231995921,-2.9119164877381114,7.561227358771681,3.6709899382632654
5.92296706711854,-2.816079261825871,7.597937258154314,3.4961032895887123
5.894806274500281,-2.7293149115383173,7.632898291050201,3.331447286601641
5.867513125384898,-2.65046851115895,7.666212763916217,3.1755101827624688
5.841008440273308,-2.5785514729082024,7.697967865743842,3.0270479978495177
5.815222925544226,-2.512707206031108,7.728238345722337,2.8850389196248094
5.790095853483915,-2.4521835569920887,7.757088734918585,2.7486472743132895
5.765574017913994,-2.3963107648171373,7.784575207661718,2.6171949963524064
5.741610910265822,-2.344483888578026,7.810747157625243,2.4901388658727726
5.718166071380042,-2.2961488841539146,7.835648546283971,2.367052105324177
5.695204582538503,-2.2507916955767917,7.859319067337212,2.2476092039624542
5.672696665582735,-2.207929875456591,7.881795159376837,2.1315730681781253
5.650617366828169,-2.1671063607580066,7.903110890058619,2.0187837844917498
5.628946303220589,-2.127885109035552,7.9232987279035365,1.9091484402930523
5.607667452130234,-2.089848351317393,7.942390212306467,1.8026315838862195
5.58676896861706,-2.052595246392107,7.96041652814533,1.6992460267079
5.566243016153138,-2.0157417324686833,7.977408988412408,1.5990438006992524
5.546085598828451,-1.978921371222064,7.993399426419401,1.5021071842166176
5.526296385116231,-1.9417869712877407,8.008420498261568,1.4085397998718174
5.506878515403353,-1.9040127684023536,8.022505896260286,1.3184578650172665
5.4878383877193295,-1.8652969323051716,8.035690474910458,1.2319817370773662
5.469185418396278,-1.8253641701908225,8.048010292281232,1.1492279383783637
5.45093177669437,-1.7839682057995792,8.059502571665016,1.0703018661264996
5.4330920946363745,-1.7408939335890743,8.070205590326282,0.995291391782712
5.415683155300484,-1.6959590787119532,8.080158504244109,0.9242615312459882
5.398723564513364,-1.6490152340600222,8.089401119556568,0.8572503259665426
5.382233412172765,-1.5999481924996544,8.097973622816234,0.7942660201073891
5.366233930247768,-1.5486775418779763,8.105916283017308,0.7352855561065951
5.350747154828988,-1.4951555384271757,8.113269138578374,0.6802543468629354
5.335795599444716,-1.439365317130524,8.120071682047003,0.629087223327619
5.321401946273411,-1.3813185324875854,8.126362554280279,0.5816704065386734
5.307588760948534,-1.3210525480314046,8.132179258345666,0.5378643165500319
5.29437823546822,-1.2586273071764351,8.137557901511165,0.4975070089974855
5.281791962396456,-1.1941220218780637,8.14253297160114,0.46041802321904923
5.269850742177676,-1.1276318104167882,8.14713715183333,0.4264024324866055
5.258574424073508,-1.0592644032366878,8.151401176158197,0.39525490456400536
5.247981780041141,-0.9891370183147579,8.155353725203838,0.3667636064734697
5.2380904098579935,-0.9173734871729745,8.159021361268573,0.340713817881354
5.228916674986264,-0.8441016913207176,8.162428499447387,0.31689114997480355
5.220475658073057,-0.7694513482353488,8.165597410947134,0.2950842986171928
5.2127811445907035,-0.6935521671411462,8.168548253933306,0.27508729005345933
5.205845622919292,-0.6165323785975415,8.17129912683384,0.25670120321686135
5.199680299133317,-0.5385176286404424,8.173866138866009,0.23973537407579087
5.1942951228469125,-0.45963021800307324,8.176263492606767,0.2240081042543161
5.189698820666882,-0.3799886596044506,8.17850357364931,0.2093469085459637
5.1858989340708375,-0.29970752270175965,8.18059704273477,0.19558834436742342
5.18290185884382,-0.2188975294313143,8.182552926178444,0.18257747128113794
5.180712883549507,-0.13766586844724088,8.184378700891255,0.17016699114255668
5.179336224865034,-0.05611669054706714,8.18608037080268,0.15821611989655335
5.178775057959563,0.02564824787865916,8.187662532001646,0.14658924121500744
5.17903154043835,0.10752882639661207,8.189128424413797,0.13515439061876408
5.180106828702316,0.1894257184910027,8.190479968319984,0.12378161695700984
5.182001085887226,0.27123949610787124,8.191717784489555,0.11234126652202911
5.184713480848305,0.35286971008592016,8.192841197154776,0.10070223395323231
5.188242177949164,0.43421397539479434,8.193848219494308,0.08873022362763623
5.192584317703112,0.5151670902734304,8.194735521730584,0.07628606554344337
5.197735988605846,0.5956202190900899,8.195498382386019,0.0632241307816709
5.203692190796747,0.6754601699760888,8.196130623693834,0.049390893384299986
5.210446792496508,0.7545687999001414,8.196624532627677,0.034623687724534655
5.217992480495509,0.8328225816694875,8.196970769504922,0.018749712873063297
5.226320706312204,0.9100923691217376,8.197158266633654,0.0015853376878880096
5.235421630003421,0.9862433981946447,8.197174120010533,-0.017064238125226464
5.245284063985367,1.0611355622509189,8.19700347762928,-0.03740491151814129
5.255895419607876,1.1346239995528282,8.196629428514099,-0.05965313847975821
5.267241659603404,1.206560028641053,8.196032897129301,-0.08403488210437636
5.279307259889815,1.2767924630647194,8.195192548308258,-0.11078400517301965
5.292075184520462,1.345169329937234,8.194084708256527,-0.14014007831075825
5.305526877819834,1.4115400067197634,8.19268330747342,-0.17234559185724665
5.319642277887032,1.4757577771519217,8.190959851554847,-0.20764258187631282
5.334399855658551,1.537682790253495,8.188883425736083,-0.24626870826498962
5.349776683561085,1.5971853859997813,8.186420738653434,-0.2884528552567502
5.365748537421084,1.654149728192666,8.183536210100867,-0.33441036070131713
5.3822900347030105,1.708477660226895,8.180192106493854,-0.38433801860409667
5.39937481130528,1.7600926743939775,8.176348726307813,-0.4384090370530212
5.41697573804922,1.8089438620607898,8.171964635937282,-0.49676816770505616
5.435065176669828,1.855009692884418,8.166996954260231,-0.5595272497997409
5.453615273598672,1.8983014587756655,8.161401681762234,-0.6267614273637558
5.472598288186428,1.938866215151002,8.155134067488596,-0.6985062992557829
5.491986950337938,1.9767890602794083,8.14814900449604,-0.7747562451346615
5.511754840940732,2.012194614632332,8.140401442044693,-0.8554641348205233
5.5318767870870555,2.0452475963506163,8.131846800696488,-0.9405425742198118
5.552329263050562,2.0761524351271956,8.12244137495429,-1.0298667705595095
5.573090787401834,2.105151922353459,8.112142707248696,-1.1232790179385579
5.594142306625368,2.1325249563138615,8.10090991706931,-1.22059471793138
5.615467556188507,2.1585835025765223,8.088703969889997,-1.321609767244615
5.6370533912142715,2.183668946164545,8.07548787221755,-1.4261090736474598
5.658890080675917,2.208148058585363,8.061226781481077,-1.5338759102091455
5.680971561261771,2.2324088353931453,8.045888022378985,-1.644701792088964
5.703295649615702,2.2568564763825525,8.029441004458096,-1.7583965628995322
5.725864214379528,2.2819097805062514,8.0118570388291,-1.8747984091480716
5.748683312184591,2.3079982129823517,7.99310905473762,-1.993783578705684
5.771763294314415,2.3355598764075385,7.973171218950563,-2.1152756576226297
5.79511889307849,2.365040585879121,7.952018462374337,-2.2392543525196857
5.818769298937281,2.3968942156292155,7.92962591884914,-2.3657638266262824
5.842738241093573,2.431584456919104,7.905968280582877,-2.4949207405007208
5.867054085662764,2.46958810877192,7.881019073177869,-2.6269222493741395
5.891749966750484,2.5114000184010288,7.854749850684128,-2.762054305801745
5.9168639669344945,2.557539799578798,7.82712930762611,-2.900700708882648
5.942439364930283,2.6085604859809965,7.798122300537283,-3.043353431400244
5.968524969790093,2.6650593223954373,7.767688766223281,-3.190624846218886
5.9951755630140475,2.7276909569230425,7.735782517761092,-3.3432625644888825
6.022452472583278,2.7971833652325873,7.702349892116203,-3.502167687876665
6.050424306235604,2.87435689919351,7.667328215237436,-3.6684173526013697
6.079167875227538,2.960146877254736,7.630644041711423,-3.843292471498144
6.108769344000086,3.055630062985704,7.592211116996442,-4.028311487335242
6.139325644629943,3.1620550914590457,7.5519280021230895,-4.225270579678792
6.170946195544533,3.2808761619796165,7.509675296326302,-4.436289799050016
6.203754957164329,3.4137876463346,7.465312398335802,-4.6638623925675535
6.237892833627675,3.5627537267927716,7.418673774410126,-4.910899850211303
6.273520370895603,3.730019931551337,7.369564775908013,-5.180755394533922
6.310820570211116,3.9180788834073486,7.317757221962673,-5.4771887762388225
6.35000135904519,4.1295339037417405,7.262985334200285,-5.804195825595273
6.391296698082607,4.366749132132911,7.204943375944332,-6.165550174747748
6.434964189403937,4.631074680993312,7.143287874196854,-6.563765303988116
6.48127493621387,4.92127240633099,7.077650221156973,-6.9979570962992605
6.5304876602771795,5.230573953458988,7.0076706501939805,-7.459812828720445
6.582793399811769,5.541833509107069,6.933072521906776,-7.926905399949856
6.63821173490284,5.821382943432871,6.8538034679072775,-8.354170230850091
6.696425564337169,6.01616683217212,6.770261765598777,-8.66987594294884
6.75658723265889,6.065012220518718,6.683563006169289,-8.791156783277284
6.817237354864077,5.9313072248202845,6.595651438336516,-8.669167573029466
6.87655042711228,5.6346560470042935,6.508959762606221,-8.332576840883947
6.932896987582323,5.240453393443819,6.425633994197382,-7.8725499147197056
6.985301521516761,4.816423456682037,6.346908495050185,-7.382419289208716
7.033465756083581,4.405123667674113,6.2730843021580975,-6.920126009159689
7.077516992760322,4.02457500993023,6.203883042066501,-6.50966114245615
7.117762742859624,3.6785451780274117,6.1387864306419395,-6.155552379735521
7.154548194639898,3.3645770837024047,6.0772309068445844,-5.8539931248481
7.1881939654769225,3.0781942678020693,6.018690975596104,-5.598597061361304
7.218975908154943,2.8147136984472265,5.962705004982491,-5.382834519639467
7.247123045139415,2.569905514200019,5.908876659786096,-5.200887624850923
7.272822100281415,2.3401631863335433,5.856867783537587,-5.04784329058894
7.2962237321447505,2.1224867367776823,5.806389350631697,-4.919638884886557
7.317448599512527,1.914406559229435,5.757192961782832,-4.812933158971055
7.336592665104821,1.71389814426736,5.709063630193121,-4.724969209603251
7.353731646547495,1.5193055211211413,5.661813938097088,-4.653452291204
7.368924701758707,1.32927811224981,5.615279415185048,-4.5964478835108995
7.382217482881205,1.1427207315787054,5.569314936349939,-4.552299066280003
7.393644690196992,0.9587548335081796,5.523791945687139,-4.519560369531991
7.403232238532074,0.7766888068579358,5.478596341991819,-4.496945101033827
7.410999126600654,0.5959952618636705,5.433626890981481,-4.483283569027077
7.416959079219291,0.41629353958133064,5.38879405529121,-4.477490165909698
7.421122014615104,0.2373359550043582,5.344019153632113,-4.478537788826251
7.423495374165148,0.05899653002782454,5.299233775743851,-4.4854384916587575
7.424085339465426,-0.11873882208563363,5.254379390827263,-4.497229579434047
7.42289795124457,-0.2957815221156629,5.2094070950329225,-4.512964575513312
7.419940136023413,-0.47194965926027044,5.164277449277789,-4.531708623209011
7.415220639430811,-0.6469779734274131,5.1189603630457,-4.552537936852159
7.408750859696537,-0.8205288574755596,5.073434983677178,-4.574542904015992
7.400545571121781,-0.9922045737720812,5.027689554637018,-4.596834373880006
7.39062352538406,-1.1615606927368498,4.981721210898217,-4.618552562992619
7.379007918456692,-1.3281205727926468,4.935535685268291,-4.638877888833288
7.365726712728765,-1.491390523894466,4.889146906379958,-4.657042926229718
7.35081280748982,-1.650875146456377,4.842576477117661,-4.672344595377788
7.334304056025257,-1.8060922307121339,4.795853031163883,-4.68415565443675
7.316243133718135,-1.9565865526283024,4.749011474619516,-4.691934600468627
7.296677268191853,-2.101941920199004,4.702092128614829,-4.695233187258158
7.275657848989862,-2.241790909090126,4.655139796742247,-4.693700943975457
7.253239939898961,-2.3758218709563206,4.608202787302493,-4.6870863104418286
7.229481721189398,-2.503782984818716,4.5613319241980745,-4.675234269533345
7.204443891341211,-2.6254833293004594,4.514579581502741,-4.658080626241084
7.178189058048207,-2.7407911567083976,4.46799877524033,-4.63564332682249
7.150781146481123,-2.849629726205279,4.421642341972105,-4.608011405411374
7.12228484921907,-2.951971185274452,4.3755622279179915,-4.5753322726701136
7.092765137366325,-3.047829066561555,4.329808905191291,-4.537798114988348
7.06228684670071,-3.137249989397093,4.284430924041407,-4.495632156827342
7.030914346806739,-3.220305127512753,4.239474602473134,-4.449075464686268
6.998711295531612,-3.297081937498266,4.194983847826271,-4.398374855536847
6.965740476156629,-3.367676549870576,4.151000099270902,-4.343772333901091
6.932063710657923,-3.432187119893525,4.1075623759318916,-4.2854963373092785
6.897741839458988,-3.4907083304251314,4.064707412558799,-4.223754933683957
