th1 (rad),w1 (rad/s),th2 (rad),w2 (rad/s),a1 (rad/s^2),a2 (rad/s^2)
5.7595503392103025,1.225399687356799,0.26320329382561763,2.7626590780408353,11.826207371756706,-11.963376346487927
5.7718043360838704,1.343661761074366,0.290829884606026,2.643025314575956,11.51717425407178,-12.113842957780209
5.785240953694614,1.4588335036150837,0.3172601377517856,2.521886884998154,11.210144297779062,-12.293309020517803
5.7998292887307645,1.5709349465928744,0.3424790066017671,2.398953794792976,10.906811841341584,-12.49940925163461
5.815538638196693,1.6800030650062903,0.36646854454969685,2.27395970227663,10.608791377332272,-12.729448392252474
5.832338668846756,1.786090978779613,0.38920814157246314,2.146665218354105,10.317685809450522,-12.980536933966416
5.850199578634552,1.8892678368741183,0.4106747937560042,2.0168598490144407,10.035122949531962,-13.249690789763353
5.869092257003293,1.989619066369438,0.4308433922461486,1.8843629411168072,9.762766870803986,-13.533902610348463
5.888988447666987,2.087246735077478,0.44968702165731667,1.7490239150133227,9.502308673690202,-13.830189278044283
5.909860915017762,2.18226982181438,0.46717726080744987,1.6107220222328797,9.255439493833741,-14.135617503745381
5.931683613235906,2.2748242167527173,0.48328448102977867,1.4693658471954258,9.023807057220074,-14.447307221539095
5.954431855403433,2.365062287324918,0.4979781395017329,1.324892774980035,8.808955637852993,-14.762410444544885
5.978082478276682,2.453151843703448,0.5112270672515332,1.177268670534586,8.612247783491982,-15.078061253636927
6.002613996713716,2.5392743215383677,0.522999753956879,1.0264880579982167,8.434764542689292,-15.39129049613674
6.0280067399291,2.6236219669652607,0.5332646345368612,0.8725751530368493,8.277179071157049,-15.698896460795353
6.054242959598752,2.7063937576768313,0.5419903860672297,0.7155861884288958,8.139596375115865,-15.997260207884798
6.08130689717552,2.78778972142799,0.5491462479515187,0.5556135863500478,8.021349596239192,-16.282091413683073
6.1091847943898,2.868003217390382,0.5547023838150191,0.392792672213217,7.920740834091323,-16.548087786691546
6.137864826563704,2.9472106257312953,0.5586303105371513,0.22731179434630155,7.834712483526916,-16.788488960011552
6.1673369328210175,3.0255577505665645,0.5609034284806143,0.05942690474618603,7.758434360468998,-16.99450556899031
6.197592510326683,3.1031420941712544,0.5614976975280761,-0.11051815094371706,7.684794229930405,-17.154608431608867
6.2286239312683955,3.1799900364705587,0.5603925160186389,-0.28206423525980573,7.603787738124945,-17.253675596249167
6.260423831633101,3.256027913851808,0.5575718736660409,-0.4546009912222974,7.501823022383454,-17.27202330605426
6.292984110771619,3.3310461440756427,0.5530258637538179,-0.62732122428284,7.360992521675801,-17.18440057985541
6.326294572212375,3.404656069292401,0.5467526515109895,-0.7991652300813941,7.1584287293006,-16.959118627748104
6.360341132905299,3.4762403565854068,0.5387609992101756,-0.9687564163588751,6.8659601626947415,-16.557627105900764
6.3951035364711535,3.5448999582123544,0.5290734350465869,-1.1343326874178827,6.450419177516936,-15.935039322926043
6.430552536053277,3.609404149987524,0.517730108172408,-1.293683080647143,5.875102221010164,-15.042315589092848
6.466646577553152,3.6681551721976255,0.5047932773659366,-1.4441062365380715,5.102977608719183,-13.830940532239051
6.503328129275128,3.719184948284817,0.49035221500055587,-1.582415641860462,4.102139995618078,-12.26078332882504
6.540519978757977,3.760206348240998,0.47452805858195124,-1.7050234751487123,2.8535318795175897,-10.311137542300926
6.578122042240387,3.7887416670361738,0.4574778238304641,-1.8081348505717216,1.3599430675746744,-7.993493813856466
6.6160094589107485,3.8023410977119205,0.4393964753247469,-1.8880697887102862,-0.34611336423846006,-5.3625912160779015
6.6540328698878675,3.798879964069536,0.42051577743764407,-1.9416957008710651,-2.1992043051522887,-2.5206666248269594
6.692021669528563,3.7768879210180133,0.4010988204289334,-1.9669023671193346,-4.1057780748754436,0.38981335493904734
6.729790548738743,3.735830140269259,0.3814297967577401,-1.9630042335699442,-5.9578171146418555,3.206110813606636
6.767148850141435,3.6762519691228404,0.36179975442204065,-1.9309431254338778,-7.652142364871121,5.773243314815651
6.803911369832663,3.599730545474129,0.3424903231677019,-1.8732106922857212,-9.108937741592857,7.970842985467186
6.839908675287405,3.5086411680582006,0.3237582162448447,-1.7935022624310495,-10.283133573042143,9.729715723933577
6.874995086967987,3.4058098323277792,0.3058231936205342,-1.6962051051917137,-11.165816230956676,11.034014117856392
6.909053185291264,3.2941516700182123,0.28886114256861706,-1.58586496401315,-11.777324721781847,11.911374749796195
6.9419947019914465,3.176378422800394,0.27300249292848555,-1.466751216515188,-12.156332783996998,12.41717075289559
6.973758486219451,3.054815094960424,0.25833498076333367,-1.342579508986232,-12.349125544459046,12.618934814155539
7.004306637169055,2.9313238395158336,0.24490918567347134,-1.2163901608446765,-12.401544393624572,12.584544681727804
7.033619875564213,2.807308395579588,0.23274528406502457,-1.0905447140273985,-12.354214042068676,12.375101748641859
7.061692959520009,2.6837662551589014,0.22183983692475057,-0.9667936965409799,-12.240514713785755,12.04177112020905
7.088530622071598,2.561361108021044,0.21217189995934077,-0.8463759853388894,-12.086376193970674,11.625279762743432
7.1141442331518085,2.440497346081337,0.20370814010595187,-0.730123187711455,-11.911051090504152,11.15686937305581
7.1385492066126215,2.3213868351762956,0.19640690822883733,-0.6185544939808969,-11.72827413386926,10.659848581675812
7.161763074964385,2.204104093837603,0.19022136328902836,-0.5119560081641388,-11.547459853063144,10.1512369082399
7.183804115902761,2.0886294953069715,0.18510180320738698,-0.41044363908173975,-11.374769990059665,9.643249018795016
7.2046904108558305,1.9748817954063749,0.18099736681656958,-0.31401114889378956,-11.213991487138628,9.144526087687632
7.224439228809894,1.8627418805349887,0.1778572553276317,-0.22256588801691324,-11.067223587037232,8.661105708543545
7.243066647615244,1.7520696446646165,0.17563159644746257,-0.13595483093147778,-10.93539792213727,8.19715997524302
7.26058734406189,1.6427156654432438,0.17427204813814778,-0.05398323117904759,-10.818663008449999,7.755543685547392
7.277014500716323,1.5345290353587437,0.1737322158263573,0.02357220567642633,-10.716663516639043,7.338194261175669
7.29235979106991,1.4273624001923533,0.17396793788312157,0.09695414828818302,-10.628740250728335,6.94641940434688
7.3066334150718335,1.32107499768507,0.1749374793660034,0.16641834233165181,-10.554071553259519,6.581101562502666
7.319844165048684,1.2155342821524748,0.1766016627893199,0.23222935795667848,-10.491772043223598,6.24284169971524
7.331999507870209,1.1106165617202388,0.1789239563688867,0.2946577749538309,-10.44096058888116,5.932059321653978
7.343105673487411,1.0062069558314273,0.181870534118425,0.35397836817037065,-10.400806269633163,5.649061285785116
7.353167743045725,0.9021988931350956,0.1854103178001287,0.4104689810282218,-10.370558689321877,5.394088539398339
7.362189731977076,0.7984933062418769,0.18951500761041093,0.4644098664222052,-10.349567224162882,5.167347382336914
7.370174665039495,0.694997634000248,0.19415910627463298,0.5160833402455743,-10.337292481474984,4.96902996316329
7.377124641379497,0.5916247091854983,0.19931993967708872,0.5657736398772073,-10.333312290407143,4.799327325011257
7.383040888471352,0.4882915862814268,0.2049776760758608,0.6137669131273199,-10.337323846800553,4.658437289216385
7.387923804334166,0.38491834781342127,0.211115345207134,0.6603512860194838,-10.349143116703235,4.546568698186211
7.3917729878123,0.2814269166463889,0.21771885806732882,0.7058169730013459,-10.36870220994908,4.4639429544948745
7.394587256978764,0.17773989454689812,0.2247770277973423,0.7504564025462946,-10.396045122877801,4.410793329231033
7.396364655924233,0.0737794433181201,0.23228159182280525,0.794564335838605,-10.431321983189893,4.387362120037332
7.397102450357415,-0.030533776513778824,0.2402272351811913,0.8384379570389783,-10.474781681436172,4.39389537682441
7.396797112592277,-0.13528159332814055,0.24861161475158108,0.8823769108072224,-10.526762517032566,4.4306345435857954
7.3954442966589955,-0.24054921849846622,0.2574353838596533,0.9266832562430803,-10.587680196719516,4.497803951405939
7.393038804474011,-0.3464260204656614,0.26670221642208414,0.9716612957571398,-10.658012172983966,4.595592601403326
7.389574544269355,-0.45300614219550106,0.27641882937965556,1.017617221771173,-10.738276868161996,4.724128052324613
7.385044482847399,-0.5603889108771211,0.2865950015973673,1.064858502294419,-10.82900576003498,4.883439423216893
7.379440593738628,-0.6686789684774709,0.2972435866203115,1.113692896526588,-10.93070556298591,5.073405474824335
7.372753804053853,-0.77798602410733,0.30838051558557733,1.1644269512748313,-11.043806774391687,5.293682372307381
7.36497394381278,-0.8884240918512468,0.32002478509832566,1.2173637749979052,-11.168593613699196,5.5436039792436125
7.356089702894267,-1.0001100279882387,0.3321984228483047,1.2727998147903412,-11.305108810141338,5.822045317605328
7.346088602614385,-1.113161116089652,0.3449264209962081,1.3310202679663945,-11.453024765252138,6.12723711253502
7.334956991453488,-1.2276913637421734,0.35823662367587206,1.3922926390917447,-11.611470359237721,6.4565161731876435
7.322680077816067,-1.3438060673345507,0.3721595500667895,1.456857800823621,-11.778800247658111,6.805992978436242
7.309242017142721,-1.4615940698111318,0.3867281280750257,1.5249177306079835,-11.952291324849803,7.170114841974719
7.29462607644461,-1.5811169830596299,0.40197730538110554,1.5966188790277307,-12.127749997484916,7.541101693271194
7.278814906614014,-1.702394483034479,0.4179434941713829,1.6720298959604427,-12.299015694733873,7.908234227721605
7.261790961783669,-1.8253846399818179,0.4346637931309873,1.7511122382376587,-12.457353579304268,8.25698513974824
7.243537115383851,-1.9499581757748605,0.45217491551336386,1.8336820896351411,-12.590747464808619,8.568010114187635
7.2240375336261025,-2.075865650422947,0.4705117364097153,1.9193621907770175,-12.683139444494266,8.816066100720366
7.203278877121873,-2.2026970448678895,0.48970535831748546,2.007522851784221,-12.713724444746369,8.969012562770319
7.181251906673194,-2.3298342893153534,0.5097805868353277,2.0972129774119246,-12.656503773079494,8.987188149741245
7.15795356378004,-2.456399327046148,0.5307527166094469,2.187084858909337,-12.4804317259171,8.82364058786158
7.133389570509579,-2.5812036443053192,0.5526235651985403,2.275321264787953,-12.150631182865196,8.425889943319035
7.107577534066526,-2.702709956133971,0.5753767778464198,2.359580164221143,-11.631241912376153,7.740031282004673
7.080550434505186,-2.819022375257733,0.5989725794886313,2.43698047704119,-10.890371303358126,6.717850865013776
7.052360210752608,-2.927926088291314,0.6233423842590432,2.5041589856913276,-9.907167624149194,5.326993414908325
7.023080949869695,-3.026997764532806,0.6483839741159565,2.5574289198404108,-8.680110363616196,3.5629045669929296
6.992810972224367,-3.113798868168968,0.6739582633143606,2.59305796551034,-7.234351033495685,1.459478408129739
6.961672983542678,-3.186142378503925,0.699888842969464,2.6076527495916375,-5.624948898598971,-0.906076745835623
6.929811559757638,-3.2423918674899146,0.7259653704653803,2.5985919821332812,-3.93310424736292,-3.418299378923253
6.897387641082739,-3.281722909963544,0.7519512902867131,2.5644089883440486,-2.2546496263013585,-5.939574800714454
6.864570411983103,-3.3042694062265574,0.7775953801701536,2.505013240336904,-0.6834916861715572,-8.333531479051482
6.831527717920838,-3.311104323088273,0.8026455125735227,2.421677925546389,0.7046175066550457,-10.488160411967849
6.798416674689955,-3.3040581480217224,0.8268622918289865,2.3167963214267107,1.862633420568183,-12.331074577242756
6.7653760932097375,-3.2854318138160403,0.8500302550432536,2.1934855756542833,2.7745705430561776,-13.833260977125708
6.732521775071577,-3.2576861083854785,0.8719651107997964,2.055152965883026,3.4507538193972445,-15.002785282693997
6.699944913987722,-3.223178570191506,0.8925166404586267,1.9051251130560862,3.9192950483840936,-15.873071829180802
6.667713128285807,-3.183985619707665,0.9115678915891875,1.7463943947642782,4.217215885070702,-16.49056088200328
6.63587327208873,-3.141813460856958,0.9290318355368303,1.5814887859442455,4.383381783624965,-16.904808936895
6.60445513748016,-3.0979796430207083,0.9448467233962727,1.4124406965752954,4.453955956080892,-17.16206509658291
6.573475341049953,-3.053440083459899,0.9589711303620256,1.2408200456094662,4.460110205697502,-17.30198831005913
6.542940940215354,-3.008838981402924,0.9713793308181203,1.0678001625088749,4.427338957111537,-17.356612458723745
6.512852550401325,-2.964565591831809,0.982057332443209,0.8942340379216374,4.375719056525021,-17.35065096063976
6.483206894483007,-2.9208084012665587,0.9909996728224254,0.7207275283152397,4.320618231956463,-17.302449771847414
6.453998810470341,-2.8776022189469943,0.9982069481055778,0.5477030305967655,4.273537518779966,-17.22514863794429
6.4252227882808715,-2.834866843759195,1.0036839784115454,0.37545154421732263,4.242917314054152,-17.127810252867167
6.39687411984328,-2.792437670618653,1.0074384938537186,0.20417344168865095,4.234831785431798,-17.01640909038918
6.368949743137093,-2.750089352764335,1.0094802282706052,0.03400935078475917,4.253551070663552,-16.894648001036618
6.341448849609449,-2.7075538420576994,1.009820321778453,-0.13493712922560702,4.301978220226988,-16.764609245501443
6.314373311188872,-2.6645340598554297,1.0084709504861968,-0.30258322168062146,4.3819791908296235,-16.627262694588094
6.287727970590318,-2.6207142679471334,1.0054451182693906,-0.4688558486265024,4.494626928180663,-16.482857915111843
6.2615208279108465,-2.575767998665327,1.0007565597831256,-0.6336844277776208,4.640379245140323,-16.331225132691
6.235763147924193,-2.5293642062139234,0.9944197155053494,-0.7969966791045308,4.81920731999892,-16.17200613621894
6.210469505862054,-2.481172133013934,0.986449748714304,-0.9587167404667202,5.030688469547706,-16.00483184641414
6.185657784531915,-2.430865248318457,0.9768625813096368,-1.1187650589308615,5.274073947746508,-15.829459311585621
6.161349132048731,-2.378124508840992,0.9656749307203282,-1.2770596520467177,5.548340070438965,-15.645877601830396
6.137567886960321,-2.3226411081366023,0.952904334199861,-1.4335184280650217,5.852228981869325,-15.454389483924231
6.114341475878955,-2.264118818317909,0.9385691499192108,-1.588062322904264,6.1842837997005615,-15.255673802762894
6.091700287695776,-2.2022759803209033,0.9226885266901682,-1.740619060931893,6.542881621018163,-15.050832066023732
6.0696775278925665,-2.136847164110722,0.9052823360808493,-1.8911273815921303,6.926266864084368,-14.841421718691727
6.048309056251459,-2.067584495469878,0.886371062264928,-2.0395415987790475,7.332586592156269,-14.629477904534697
6.02763321129676,-1.9942586295483153,0.8659756462771375,-2.1858363778243945,7.759928761761223,-14.417525055372536
6.007690625001278,-1.9166593419307032,0.8441172824988936,-2.33001162837812,8.206363714074586,-14.208579348069096
5.988524031581971,-1.8345957047899573,0.8208171662151125,-2.4720974218588108,8.669988646611573,-14.006142850207024
5.970178074534071,-1.7478958183238416,0.7960961919965244,-2.612158850360881,9.148974226977963,-13.814189963859603
5.952699116350833,-1.656406076054062,0.7699746034929156,-2.750300749999477,9.641611899926893,-13.637146490010908
5.9361350555902925,-1.559989957054793,0.7424715959929208,-2.886672214899586,10.146359740020612,-13.479861173972653
5.920535156019745,-1.458526359654587,0.7136048738439249,-3.0214708266393124,10.661883838703663,-13.347568824923133
5.905949892423199,-1.3519075212675504,0.6833901655775317,-3.1549465148885436,11.187091073823954,-13.245842853493441
5.892430817210523,-1.2400366105293108,0.6518407004286463,-3.287404943423478,11.72114752278757,-13.180533090331275
5.88003045110523,-1.1228251353014351,0.6189666509944115,-3.4192102743267907,12.263474495615093,-13.157681676005456
5.868802199752216,-1.0001903903452842,0.5847745482511436,-3.5507870910868453,12.813710808697738,-13.183405125995177
5.858800295848764,-0.8720532822583068,0.5492666773402751,-3.682621142346797,13.371624951657484,-13.26372361671415
5.850079763026181,-0.738337032741732,0.5124404659168071,-3.8152583785139385,13.936953446085681,-13.404308027204259
5.842696392698763,-0.5989674982808753,0.4742878821316677,-3.949301458785981,14.50913089447675,-13.610099803145285
5.836706717715955,-0.45387618933610774,0.4347948675438079,-4.085402456817434,15.08686159772718,-13.884736308536691
5.832167955822594,-0.30300757335883594,0.3939408429756336,-4.224249819902801,15.6674606086333,-14.229682665140375
5.8291378800890055,-0.14633296727250292,0.35169834477660555,-4.366546646554205,16.245862389798614,-14.642928066417946
5.827674550416281,0.01612565662548321,0.3080328783110635,-4.512975927218385,16.813158164152433,-15.117050117385395
5.827835806982535,0.18425723826700754,0.26290311903887964,-4.664146428392239,17.354483684839767,-15.636391151349567
5.829678379365205,0.3578020751154052,0.21626165475495726,-4.820510339905734,17.846054292242147,-16.173047756336377
5.833256400116359,0.5362626180378267,0.16805655135589992,-4.982240817469098,18.251175681965474,-16.68140539684853
5.838619026296738,0.7187743748574815,0.11823414318120895,-5.149054871437583,18.515236621047983,-17.091176933625626
5.8458067700453125,0.9039267410679613,0.06674359446683312,-5.319966640773839,18.560181044940926,-17.29955819838464
5.854846037455992,1.0895285515173705,0.013543928059094726,-5.4929622227576855,18.280016077055194,-17.16455182879338
5.865741322971166,1.2723287122879223,-0.04138569416848213,-5.66460774104562,17.540785257766395,-16.50408521933026
5.878464610094046,1.4477365648655862,-0.09803177157893833,-5.829648593238923,16.19096452533558,-15.109067646468578
5.892941975742701,1.609646210118942,-0.15632825751132756,-5.980739269703609,14.089951177139604,-12.780999368190749
5.909038437843891,1.750545721890338,-0.21613565020836364,-6.108549263385516,11.159351698736248,-9.40085271885222
5.926543895062794,1.8621392388777005,-0.2772211428422188,-6.202557790574038,7.448855445327649,-5.018378295993799
5.945165287451571,1.936627793330977,-0.3392467207479592,-6.252741573533976,3.185971970565027,0.07984423357423387
5.964531565384881,1.9684875130366273,-0.40177413648329896,-6.251943131198233,-1.2358809471916974,5.385637899821066
5.984216440515247,1.9561287035647104,-0.4642935677952813,-6.198086752200023,-5.3540325432872535,10.29911170051177
6.003777727550895,1.9025883781318378,-0.5262744353172816,-6.095095635194905,-8.779784708698362,14.320867345488061
6.022803611332213,1.8147905310448542,-0.5872253916692306,-5.9518869617400245,-11.30569680333801,17.194285338927333
6.040951516642662,1.701733563011474,-0.6467442612866309,-5.779944108350751,-12.921779037480407,18.9240591272364
6.057968852272777,1.5725157726366699,-0.7045437023701384,-5.590703517078387,-13.755867243151839,19.693394637521966
6.073694009999143,1.4349571002051515,-0.7604507375409223,-5.393769570703167,-13.992833161203077,19.75479192332024
6.088043581001195,1.2950287685931208,-0.814388433247954,-5.196221651469965,-13.814194450721248,19.35014257650088
6.100993868687126,1.1568868240859083,-0.8663506497626536,-5.002720225704956,-13.36868962217566,18.67327769189248
6.112562736927985,1.0231999278641517,-0.9163778520197032,-4.815987448786031,-12.765672804645353,17.863067698678663
6.122794736206626,0.8955431998176981,-0.9645377265075635,-4.6373567717992445,-12.079874285717215,17.011248799913183
6.131750168204803,0.774744456960526,-1.010911294225556,-4.467244283800112,-11.359623716167008,16.174325165373148
6.1394976127744085,0.6611482197988559,-1.0555837370635572,-4.305501032146381,-10.634692178726324,15.384521857338953
6.146109094972397,0.5548012980115926,-1.098638747385021,-4.151655813572992,-9.922470701306565,14.658226704611176
