th1 (rad),w1 (rad/s),th2 (rad),w2 (rad/s),a1 (rad/s^2),a2 (rad/s^2)
5.490865670275699,3.10195825518275,5.881906953856406,-0.9887770071069049,12.380673616681726,-11.28574721527239
5.521885252827527,3.225764991349567,5.872019183785337,-1.1016344792596287,12.178242927248313,-11.091852827749776
5.554142902741023,3.34754742062205,5.861002838992741,-1.2125530075371265,11.821040990392728,-10.63825210442026
5.587618376947243,3.4657578305259773,5.84887730891737,-1.3189355285813291,11.270959090290221,-9.86734273434711
5.622275955252503,3.5784674214288796,5.835687953631557,-1.4176089559248002,10.492376937079868,-8.725916906478071
5.6580606294667914,3.683391190799678,5.821511864072309,-1.504868124989581,9.459049950013995,-7.175337500663072
5.694894541374788,3.7779816902998182,5.806463182822413,-1.5766214999962118,8.162687211456948,-5.204152418291942
5.732674358277786,3.8596085624143877,5.790696967822451,-1.6286630241791313,6.62132233436553,-2.840397423743084
5.771270443901931,3.925821785758043,5.77441033758066,-1.6570669984165622,4.884344926387307,-0.1590571773981222
5.810528661759511,3.974665235021916,5.757839667596494,-1.6586575701905435,3.030832922313519,2.7201850743938842
5.85027531410973,4.004973564245051,5.741253091894589,-1.6314557194466046,1.1595183164498177,5.647364434370947
5.890325049752181,4.01656874740955,5.724938534700123,-1.5749820751028951,-0.6278433825581551,8.466340576288177
5.930490737226276,4.010290313583968,5.709188713949094,-1.4903186693400134,-2.2445496501324955,11.041231123632954
5.970593640362116,3.9878448170826433,5.694285527255694,-1.379906358103684,-3.632371605357107,13.276371022618756
6.010472088532943,3.9515211010290723,5.680486463674657,-1.2471426478774963,-4.7665184764256034,15.124219276916497
6.0499872995432336,3.903855916264816,5.668015037195882,-1.0959004551083313,-5.652284451728023,16.5812518723518
6.089025858705882,3.847333071747536,5.657056032644799,-0.9300879363848134,-6.316525987048885,17.676233057407785
6.127499189423357,3.784167811877047,5.647755153280951,-0.7533256058107355,-6.797847603284737,18.45638474089579
6.1653408675421275,3.7161893358441995,5.640221897222843,-0.5687617584017776,-7.138291125797071,18.97549703714402
6.202502760900569,3.644806424586229,5.634534279638825,-0.3790067880303374,-7.377694939041598,19.285728365439965
6.238950825146431,3.5710294751958127,5.630744211758522,-0.18614950437593772,-7.5506521466259215,19.433071110653394
6.274661119898389,3.4955229537295534,5.628882716714762,0.008181206730596219,-7.68541291521915,19.455602016209514
6.309616349435685,3.4186688245773618,5.628964528782068,0.20273722689269136,-7.803986692238979,19.3834826134174
6.343803037681458,3.340628957654972,5.630991901050995,0.3965720530268654,-7.922849022472782,19.239867827432185
6.377209327258008,3.261400467430244,5.634957621581263,0.5889707313011873,-8.05386179761536,19.042160225188624
6.40982333193231,3.1808618494540903,5.640847328894274,0.7793923335530735,-8.205187947039654,18.803287493836567
6.441631950426851,3.098809969983694,5.6486412522298055,0.9674252084914392,-8.38209909014559,18.532846933697346
6.472620050126688,3.014988979082238,5.65831550431472,1.1527536778284126,-8.587644069541712,18.238060467663228
6.50276993991751,2.929112538386821,5.669843041093004,1.335134282505045,-8.82318204264494,17.92453633645367
6.532061065301378,2.8408807179603714,5.683194383918054,1.5143796458695817,-9.08879906537177,17.596857347931394
6.560469872480982,2.749992727306654,5.69833818037675,1.6903482193488957,-9.383631162146445,17.25902325306947
6.587969799754049,2.656156415685189,5.7152416625702385,1.8629384518795904,-9.70611550093714,16.914774638824305
6.614531363910901,2.559095260675818,5.733871047089035,2.0320861982678333,-10.054187709628486,16.5678222440803
6.640122316517659,2.4585533835795332,5.754191909071713,2.197764420708636,-10.425439227814802,16.222001174831707
6.664707850353454,2.354298991301385,5.776169553278799,2.359984432456953,-10.817244626525534,15.88136518141926
6.688250840266468,2.2461265450361294,5.799769397603368,2.518798084271146,-11.226865302756417,15.550232324527363
6.710712105716829,2.133857892008565,5.82495737844608,2.6743004075164194,-11.651532875952697,15.233189998040466
6.732050684636914,2.0173425632490383,5.851700382521244,2.826632307496824,-12.088512869620196,14.935064217943891
6.752224110269405,1.8964574345528362,5.879966705596212,2.975982949676263,-12.53514668050308,14.66085505874049
6.771188684614933,1.7711059677478054,5.909726535092974,3.122591500263668,-12.988867205559535,14.415636796616957
6.7888997442924115,1.64121729569221,5.940952450095611,3.266747868229838,-13.447180557140856,14.204417323095145
6.805311917249334,1.5067454901208015,5.973619928777909,3.4087920414607895,-13.907602745061869,14.031946283597064
6.820379372150542,1.3676694626701829,6.007707849192517,3.5491115042967603,-14.367535685432205,13.902454663063361
6.8340560667772445,1.2239941058158608,6.043198964235485,3.688136050927394,-14.82406102171738,13.819299625123948
6.846296007835403,1.075753495598687,6.080080324744759,3.8263290471786333,-15.273622660873757,13.784476784479127
6.85705354279139,0.9230172689899494,6.118343615216545,3.9641738150234245,-15.71155950028024,13.79794749126388
6.8662837154812895,0.765901673987147,6.1579853533667785,4.102153289936063,-16.131439034463003,13.856711671206776
6.873942732221161,0.604587283642517,6.199006886266139,4.240720406648131,-16.524132319162607,13.953539762089296
6.879988605057585,0.4393459604508909,6.24141409033262,4.380255804269024,-16.876566093196924,14.075266869712383
6.884382064662094,0.2705802995189217,6.285216648375311,4.521008472966147,-17.17009944945896,14.200562901787109
6.887087867657283,0.09887930502433212,6.330426733104972,4.663014101984018,-17.37852107470629,14.297152503348658
6.888076660707527,-0.07490590572273076,6.377056874124812,4.805985627017504,-17.46578479364516,14.318617938383872
6.887327601650299,-0.24956375365918235,6.425116730394987,4.949171806401343,-17.383850074089885,14.20125236551934
6.884831964113707,-0.42340225440008117,6.4746084484590005,5.091184330056536,-17.0714321995782,13.862028703971967
6.8805979415697065,-0.5941165763958631,6.525520291759566,5.2298046170962555,-16.455116914009416,13.199648310125998
6.8746567758057475,-0.7586677455359573,6.577818337930529,5.361801100197516,-15.455021656106565,12.10165789828186
6.867070098350388,-0.9132179620970229,6.631436348932504,5.482817679180335,-13.997494556793113,10.461100544967687
6.8579379187294185,-1.053192907664954,6.686264525724307,5.587428684630011,-12.03621587313732,8.204699765515363
6.847405989652769,-1.1735550663963272,6.742138812570607,5.669475682285165,-9.57928173832535,5.329466062807779
6.835670438988806,-1.2693478837795806,6.798833569393459,5.722770342913242,-6.713404301230115,1.9358202380037421
6.82297696015101,-1.3364819267918817,6.856061272822592,5.74212854529328,-3.610708359644072,-1.7624521392119012
6.809612140883091,-1.3725890103883225,6.913482558275525,5.724504023901161,-0.505688599845642,-5.468349336340304
6.795886250779208,-1.3776458963867788,6.970727598514536,5.669820530537757,2.3560356426668485,-8.869730310789889
6.782109791815341,-1.3540855399601104,7.027425803819914,5.581123227429859,4.776800099668882,-11.71773684074649
6.76856893641574,-1.3063175389634216,7.0832370360942125,5.4639458590223935,6.646509800232487,-13.8787560087925
6.755505761026106,-1.2398524409610967,7.137876494684437,5.325158298934468,7.948149109987236,-15.340538076680442
6.743107236616495,-1.1603709498612242,7.191128077673781,5.171752918167664,8.73525055275988,-16.1811454725048
6.731503527117883,-1.0730184443336255,7.242845606855457,5.009941463442616,9.098829280989285,-16.524572475268297
6.720773342674547,-0.9820301515237326,7.292945021489883,4.844695738689933,9.138817414089125,-16.50312480405365
6.71095304115931,-0.8906419773828413,7.341391978876783,4.6796644906493965,8.946267091984925,-16.23461030042292
6.702046621385481,-0.8011793064629921,7.388188623783277,4.517318387645167,8.59561197412746,-15.813027320828716
6.694034828320851,-0.7152231867217175,7.433361807659729,4.35918811443688,8.143530626237684,-15.307902370295277
6.686882596453634,-0.6337878804593406,7.476953688804098,4.206109090733928,7.631086105599976,-14.767755347582469
6.68054471764904,-0.5574770194033409,7.519014779711437,4.058431537258103,7.086939366638863,-14.22476773364526
6.674969947455007,-0.48660762573695227,7.559599095084018,3.91618385992165,6.530494062298516,-13.699183228733354
6.670103871197638,-0.4213026851139671,7.598760933683235,3.7791920276343167,5.974521601956495,-13.202896701586498
6.665890844346498,-0.3615574690944022,7.636552853959579,3.6471630606184515,5.42717808557252,-12.74216028884123
6.662275269655554,-0.30728568823867697,7.673024484565763,3.5197414577300394,4.893479303930639,-12.31952772662875
6.659202412773167,-0.2583508951993706,7.708221899143064,3.396546180463752,4.376345668746981,-11.935207031298813
6.656618903821173,-0.2145874385119008,7.742187360947701,3.277194110150764,3.87732648827767,-11.587979774523097
6.654473029436055,-0.1758141736291241,7.774959302049209,3.161314312405533,3.3970939060824605,-11.275814058961801
6.652714887699764,-0.1418432345682995,7.806572445173264,3.048556171815915,2.935775240629951,-10.996266031596493
6.651296455354081,-0.112485482162,7.837058006891422,2.93859351149995,2.4931737209920373,-10.746737752822574
6.650171600532461,-0.08755374495207963,7.866443942006422,2.831126133971724,2.068913007106047,-10.524638661406062
6.64929606308294,-0.06686461488101916,7.894755203346139,2.7258797473576637,1.662530124664992,-10.327482987114879
6.64862741693413,-0.050239313634369245,7.922014000819716,2.6226049174865147,1.2735337742371486,-10.152945014326088
6.648125023797786,-0.03750397589199776,7.948240049994581,2.5210754673432536,0.9014396110152525,-9.998886905192103
6.6477499840388665,-0.028489579781845235,7.973450804668014,2.4210865982913328,0.5457903855188628,-9.86336889693069
6.647465088241048,-0.023031675926656607,7.997661670650927,2.322452909322026,0.2061662923051721,-9.744648385660934
6.647234771481781,-0.020970013003604886,8.020886199744147,2.2250064254654167,-0.11781086485500726,-9.641172193701282
6.647025071351745,-0.02214812165215496,8.043136263998802,2.128594703528404,-0.4264772691445959,-9.551564837170242
6.646803590135224,-0.026412894343600918,8.064422211034087,2.0330790551567017,-0.7201288348080073,-9.47461462565961
6.646539461191788,-0.03361418269168099,8.084753001585653,1.9383329089001056,-0.9990240370841378,-9.409258772636294
6.64620331936487,-0.043604423062522366,8.104136330674654,1.8442403211737426,-1.2633871415056617,-9.354568264134066
6.645767275134245,-0.056238294477578984,8.122578733886392,1.7506946385324018,-1.513411401851903,-9.309732950350536
6.6452048921894695,-0.07137240849609801,8.140085680271717,1.6575973090288965,-1.7492619697829395,-9.274047140441215
6.6444911681045085,-0.0888650281939274,8.156661653362006,1.5648568376244842,-1.9710783767264901,-9.246895861948536
6.643602517822569,-0.1085758119611923,8.17231022173825,1.472387879004999,-2.1789765275456427,-9.22774187076048
6.642516759702957,-0.13036557723664874,8.187034100528301,1.3801104602973941,-2.373050197935697,-9.21611345047846
6.641213103930591,-0.1540960792160057,8.200835205131275,1.2879493257926096,-2.553372061658224,-9.21159301175232
6.639672143138431,-0.17962979983258795,8.213714698389202,1.1958333956750864,-2.719994295327078,-9.2138064859947
6.637875845140105,-0.20682974278585872,8.225673032345952,1.1036953308151394,-2.872948821466324,-9.222413499620146
6.635807547712246,-0.23555923100052195,8.236709985654104,1.011471195818938,-3.0122472577111354,-9.237098311754877
6.633451955402241,-0.2656817035776333,8.246824697612293,0.9191002127013892,-3.137880643233702,-9.257561498405856
6.630795138366465,-0.29706051000997036,8.256015699739308,0.8265245977173307,-3.24981901408229,-9.283512368190433
6.627824533266366,-0.32955870015079325,8.26428094571648,0.7336894740354263,-3.3480108980487904,-9.314662098165003
6.624528946264857,-0.36303880913128117,8.271617840456836,0.6405428530537762,-3.432382797564601,-9.350717582580238
6.620898558173544,-0.3973626371069272,8.278023268987374,0.5470356772279739,-3.502838726391392,-9.39137599223078
6.616924931802475,-0.43239102437084115,8.283493625759654,0.4531219173056661,-3.559259862792674,-9.43632004725951
6.612601021558767,-0.4679836229987679,8.28802484493271,0.358758716833071,-3.6015043785968266,-9.485214011677382
6.607921185328779,-0.5039986667847361,8.291612432101042,0.26390657671629714,-3.6294075001563755,-9.537700423351014
6.602881198660932,-0.5402927417862999,8.294251497868204,0.168529572482787,-3.6427818536641077,-9.593397578679701
6.5974782712430695,-0.5767205603229411,8.295936793593032,0.07259559669598999,-3.641418143540354,-9.651897796510832
6.59171106563984,-0.6131347417583446,8.296662749559992,-0.023923381269118346,-3.625086208546634,-9.712766490893884
6.585579718222257,-0.6493856038438109,8.296423515747302,-0.12105104617805719,-3.5935364957602793,-9.7755420868947
6.579085862183819,-0.6853209688014137,8.295213005285522,-0.21880646704700418,-3.546501987381833,-9.839736817709959
6.572232652495805,-0.720785988675232,8.293024940615052,-0.3172038352241038,-3.483700609336199,-9.904838444543202
6.565024792609052,-0.755622994768594,8.28985290226281,-0.4162522196695358,-3.4048381435439032,-9.970312942917692
6.5574685626613665,-0.789671376204033,8.285690380066114,-0.5159553490987128,-3.309611657341693,-10.03560820008304
6.549571848899326,-0.82276749277745,8.280530826575127,-0.6163114310995432,-3.1977134535778173,-10.100158767690779
6.541344173971551,-0.8547446273132282,8.274367712264132,-0.717313018776451,-3.0688355331551453,-10.163391711737553
6.532796727698419,-0.8854329826447797,8.267194582076367,-0.8189469358938266,-2.9226745480174285,-10.224733597685
6.523942397871972,-0.914659728124954,8.259005112717428,-0.9211942718706766,-2.758937206569931,-10.283618642469937
6.514795800590722,-0.9422491001906533,8.249793169998721,-1.024030458295376,-2.5773460751371493,-10.339498056669173
6.5053733095888155,-0.9680225609420249,8.239552865415767,-1.127425438862068,-2.377645698190201,-10.391850589298572
6.495693083979395,-0.9917990179239269,8.228278611027147,-1.2313439447550536,-2.159608936709458,-10.44019427461789
6.4857750938001555,-1.0133951072910214,8.215965171579596,-1.3357458875012325,-1.9230433982738988,-10.484099365018578
6.475641142727246,-1.0326255412737604,8.202607712704584,-1.4405868811514182,-1.6677978045069075,-10.523202416888351
6.465314887314508,-1.0493035193188294,8.18820184389307,-1.5458189053203018,-1.3937681117318366,-10.557221477769723
6.45482185212132,-1.0632412004361478,8.172743654839868,-1.651391120097999,-1.1009031696482963,-10.585972303893193
6.444189440116959,-1.0742502321326308,8.156229743638889,-1.757250843136931,-0.7892096712711524,-10.609385518276406
6.433446937795632,-1.0821423288453424,8.13865723520752,-1.863344698319695,-0.45875611621848295,-10.627524602348972
6.422625514507179,-1.0867298900075273,8.120023788224323,-1.9696199443431848,-0.10967547982597076,-10.64060460011947
6.411758215607104,-1.087826644805787,8.10032758878089,-2.0760259903443794,0.2578337461870365,-10.649011405195791
6.400879949159045,-1.0852483073439165,8.079567328877447,-2.1825161043963375,0.6435084982218521,-10.653321499737647
6.3900274660856065,-1.078813222361698,8.057742167833483,-2.289049319393714,1.0470244438061957,-10.65432202311732
6.37923933386199,-1.068342977923636,8.034851674639546,-2.395592539624887,1.4680020256477315,-10.653031069248623
6.368555904082753,-1.0536629576671586,8.010895749243296,-2.5021228503173734,1.9060156295946793,-10.6507181476983
6.3580192745060815,-1.0346028013712119,7.985874520740123,-2.6086300317943563,2.3606062493553197,-10.648924796969752
6.347673246492369,-1.0109967388776586,7.95978822042218,-2.7151192797640538,2.8312979991696934,-10.649485410207925
6.337563279103592,-0.9826837588859617,7.932637027624539,-2.821614133866133,3.3176187909645574,-10.654548424290686
6.327736441514732,-0.9495075709763161,7.904420886285878,-2.92815961810904,3.8191254431939177,-10.666598131235014
6.318241365804969,-0.911316316544377,7.875139290104787,-3.03482559942139,4.3354334220128115,-10.688477491551476
6.309128202639525,-0.8679619823242488,7.844791034110573,-3.141710374336905,4.866251327139833,-10.723412453734335
6.300448582816283,-0.8192994690528504,7.813373930367204,-3.248944498874248,5.411420116475409,-10.775038396896319
6.292255588125754,-0.7651852678880964,7.780884485378461,-3.356694882843211,5.970956900302174,-10.847429388752296
6.284603735446873,-0.7054756988850747,7.747317536550029,-3.465169176730734,6.5451029012849355,-10.945130946685932
6.2775489784580225,-0.6400246698722253,7.712665844782721,-3.574620486197593,7.134374824994547,-11.073196837815937
6.2711487317593,-0.5686809216222798,7.6769196399207456,-3.6853524545757526,7.739618340434085,-11.237230045898546
6.265461922543078,-0.49128473821793894,7.640066115374988,-3.797724755034738,8.362061503137278,-11.443427192741902
6.260549075160898,-0.40766412318656614,7.602088867824641,-3.912159026962157,9.003364554101504,-11.69862414450521
6.256472433929033,-0.3176304776455511,7.562967277555019,-4.029145268407209,9.665660251083777,-12.01033779473277
6.253296129152577,-0.2209738751347133,7.522675824870947,-4.149248646354537,10.351575171888214,-12.386794338416529
6.25108639040123,-0.11745812341583116,7.481183338407401,-4.273116589738702,11.064216356912675,-12.836926495671658
6.249911809167072,-0.0068159598467043975,7.438452172510014,-4.4014858546954185,11.807097746506434,-13.37030908577078
6.249843649568605,0.11125501761835994,7.39443731396306,-4.535188945553126,12.583964725378053,-13.996980801365382
6.250956199744789,0.23709466487214048,7.349085424507528,-4.67515875356678,13.398448895330738,-14.727064690853243
6.25332714639351,0.37107915382544787,7.302333836971861,-4.822429400475313,14.253442990433669,-15.570042355578757
6.257037937931765,0.5136135837297846,7.254109542967107,-4.9781298240311,15.150018625975411,-16.533444443797688
6.262174073769063,0.6651137699895388,7.2043282447267964,-5.143464268469077,16.085604698817644,-17.620574468813096
6.268825211468958,0.8259698169777152,7.152893602042106,-5.319670013157208,17.05098660467118,-18.826661847545186
6.277084909638735,0.996479683024427,7.099696901910534,-5.50793663163266,18.02546552664382,-20.132525888456772
6.28704970646898,1.1767343382908653,7.044617535594207,-5.709261890517228,18.969251031660367,-21.49444498561477
6.2988170498518885,1.3664268486074689,6.9875249166890345,-5.924206340373376,19.811961355817406,-22.82861087890397
6.312481318337963,1.5645464621656429,6.9282828532853005,-6.152492449162415,20.436334024233542,-23.988791737827164
6.32812678295962,1.7689098024079783,6.866757928793676,-6.392380366540687,20.65780903172626,-24.737868060152366
6.345815880983699,1.975487892725241,6.802834125128269,-6.639759047142211,20.205359087764197,-24.720263260468066
6.365570759910952,2.177541483602883,6.736436534656847,-6.886961679746891,18.7193133437079,-23.456484250548197
6.38734617474698,2.3647346170399617,6.667566917859379,-7.121526522252373,15.797961654181256,-20.403173819888885
6.41099352091738,2.522714233581774,6.596351652636855,-7.325558260451262,11.133953827454386,-15.135235321180428
6.436220663253198,2.6340537718563177,6.523096070032342,-7.476910613663066,4.746647699024284,-7.659387396944565
6.462561200971761,2.6815202488465606,6.4483269638957115,-7.553504487632512,-2.7999491088951225,1.290971800241953
6.489376403460227,2.6535207577576094,6.372791919019386,-7.540594769630093,-10.428181647847278,10.299455283531943
6.5159116110378035,2.5492389412791367,6.297385971323085,-7.437600216794773,-16.955379898155524,17.821826859731306
6.541404000450595,2.3796851422975815,6.223009969155138,-7.2593819481974595,-21.626021365545306,22.901170900177743
6.565200851873571,2.1634249286421285,6.1504161496731635,-7.030370239195682,-24.334441777814998,25.45444607603503
