th1 (rad),w1 (rad/s),th2 (rad),w2 (rad/s)
2.290027011606383,-2.4061575528187014,4.253825245528298,-0.9737797024325332
2.265965436078196,-2.4738852239936517,4.244087448503973,-0.9653235294887171
2.2412265838382592,-2.544191809512217,4.234434213209086,-0.9619207281728889
2.2157846657431373,-2.617156888545135,4.224815005927358,-0.9638553162473057
2.189613096857686,-2.6928693771383365,4.215176452764885,-0.9714254568036653
2.1626844030863026,-2.7714269497581903,4.205462198196848,-0.9849436158236963
2.1349701335887206,-2.8529352358440887,4.195612762038611,-1.0047365194067925
2.1064407812302797,-2.937506752205817,4.185565396844543,-1.0311448487072934
2.0770657137082216,-3.025259527843171,4.17525394835747,-1.0645226015077545
2.0468131184297897,-3.116315373905451,4.164608722342393,-1.1052360404576098
2.015649964690735,-3.2107977484762316,4.1535563619378175,-1.1536621399348261
1.9835419872059727,-3.3088291642225993,4.142019740538469,-1.2101864370664188
1.9504536955637468,-3.4105280873872807,4.129917876167805,-1.2752001887468454
1.916348414689874,-3.5160052799649093,4.117165874280336,-1.3490967368626767
1.8811883618902248,-3.6253595441459576,4.103674906911709,-1.4322669899661469
1.8449347664487652,-3.7386728402573066,4.089352237012047,-1.5250939431448143
1.8075480380461921,-3.8560047674814144,4.074101297580599,-1.6279461807134756
1.7689879903713779,-3.9773864214472483,4.057821835773464,-1.7411703404244072
1.7292141261569054,-4.102813674866411,4.04041013236922,-1.8650825646058216
1.6881859894082414,-4.232239966672154,4.021759306723162,-1.999959023711232
1.64586358974152,-4.3655687306944895,4.00175971648605,-2.1460256707123833
1.602207902434575,-4.5026456447354395,3.980299459778926,-2.3034474684097384
1.5571814459872206,-4.6432509316077795,3.9572649850948287,-2.4723174216947768
1.5107489366711429,-4.787091990424102,3.932541810877881,-2.652645836169613
1.4628780167669018,-4.933796672968657,3.9060153525161847,-2.844350303794734
1.4135400500372153,-5.082907539183567,3.877571849478237,-3.0472469736244516
1.3627109746453796,-5.2338774202558875,3.8470993797419926,-3.2610436880921787
1.3103722004428207,-5.386066580958534,3.814488942861071,-3.4853355398033
1.2565115346332354,-5.538741700422011,3.779635587463038,-3.719603319721514
1.2011241176290153,-5.691076781627064,3.742439554265823,-3.9632151789671766
1.1442133498127447,-5.842155958601103,3.7028074024761515,-4.215431614055414
1.0857917902267336,-5.990978005951233,3.6606530863355973,-4.4754136187019835
1.0258820101672212,-6.1364621825543875,3.6158989501485777,-4.742233542780654
0.9645173883416773,-6.277454878621345,3.568476614720771,-5.014887887178251
0.9017428395554639,-6.412736403798851,3.5183277358489886,-5.292310974355563
0.8376154755174754,-6.5410271741389465,3.4654046261054328,-5.573388202698362
0.7722052037760859,-6.660992545919726,3.4096707440784493,-5.85696745084397
0.7055952783168886,-6.771245618820233,3.3511010695700096,-6.1418671738267605
0.6378828221286863,-6.870347499899967,3.289682397831742,-6.426879847255701
0.5691793471296867,-6.956804789652302,3.225413599359185,-6.710769683567174
0.4996112992331636,-7.02906442616232,3.158305902523513,-6.992263975759219
0.4293206549715404,-7.08550650558645,3.088383262765921,-7.27003802649868
0.3584655899156759,-7.124436286554503,3.015682882500934,-7.542694400048899
0.28722122705013087,-7.144077275107208,2.940255938500445,-7.808738192602608
0.2157804542990588,-7.142568051022856,2.862168556574419,-8.066551141620797
0.14435477378883022,-7.1179662797009655,2.7815030451582112,-8.314368645291315
0.07317511099182056,-7.068264049127032,2.698359358705298,-8.550265044017172
0.0024924705005502368,-6.9914191019503305,2.612856708265126,-8.772153649479865
-0.06742172051895307,-6.885406441832935,2.5251351717703274,-8.97780871002492
-0.13627578493728243,-6.7482938587998955,2.4353570846700783,-9.164916382473363
-0.2037587235252814,-6.578342808722139,2.3437079208453446,-9.331160382710355
-0.2695421516125028,-6.374132569844896,2.2503963170182413,-9.474344898099494
-0.33328347731095176,-6.1347007301698735,2.1556528680372464,-9.592552384499397
-0.3946304846126505,-5.8596873389491595,2.0597273441922526,-9.684327330385814
-0.4532273580021421,-5.549464566392231,1.9628840708883943,-9.748869912220064
-0.5087220036660645,-5.2052300454920575,1.8653953717661937,-9.786217346375006
-0.5607743041209851,-4.829041947804718,1.7675331983024436,-9.797387727189633
-0.6090647235990323,-4.423778502356108,1.6695593210305473,-9.7844630571455
-0.6533025086225934,-3.993014124814907,1.5717146904590922,-9.750595794670186
-0.6932326498707425,-3.5408169738361535,1.4742087325123903,-9.699935648183862
-0.7286408196091041,-3.0714855727505297,1.3772093760305517,-9.637487898549047
-0.7593556753366094,-2.5892516229863167,1.2808344970450611,-9.568927655947407
-0.7852481915664726,-2.097979590375439,1.185145220485587,-9.500402925670695
-0.8062279874702271,-1.600890197010312,1.09014119122888,-9.43836152309541
-0.8222368894403301,-1.1003258028481278,0.995757575997926,-9.389433207592004
-0.8332401474688114,-0.5975634698882092,0.901863243922006,-9.360391093528932
-0.8392157821676934,-0.09266930695727527,0.8082593329867167,-9.358208315083028
-0.8401424752372662,0.4156219735363055,0.7146772498358864,-9.39021937857061
-0.8359862555019031,0.9300236331908545,0.6207750560501804,-9.464391235436882
-0.8266860191699945,1.454829686923719,0.5261311436958115,-9.589704388501024
-0.8121377223007573,1.996070833339886,0.43023409981080124,-9.77663081661867
-0.7921770139673584,2.5616604420633635,0.33246779164461454,-10.037650594625642
-0.7665604095467248,3.1613893208405788,0.23209128569835813,-10.387614388925467
-0.734946516338319,3.806344303728125,0.12821514180910346,-10.843384717033274
-0.6968830733010377,4.506603569776431,0.019781294638770708,-11.421207146108193
-0.6518170376032734,5.264350435112739,-0.09443077682231123,-12.127895001827081
-0.599173533252146,6.056269035564447,-0.21570972684058204,-12.93730427007342
-0.5386108428965015,6.797115712043682,-0.3450827695413162,-13.740597115873987
-0.4706396857760647,7.29694108107686,-0.4824887407000561,-14.286795150078532
-0.39767027496529606,7.309856064905692,-0.6253566922008414,-14.247929750385936
-0.3245717143162391,6.781086793082723,-0.7678359897047008,-13.554825994129251
-0.25676084638541186,5.965883304626006,-0.9033842496459933,-12.553120477470783
-0.19710201333915178,5.135198334062721,-1.028915454420701,-11.598721602486853
-0.14575002999852457,4.395495705190502,-1.1449026704455696,-10.821627534470117
-0.10179507294661955,3.7555298935344252,-1.2531189457902707,-10.223663791358055
-0.06423977401127529,3.1966381644916946,-1.3553555837038513,-9.774130244654952
-0.03227339236635834,2.6980552766924437,-1.4530968861504008,-9.442548253152982
-0.005292839599433899,2.242682609382754,-1.5475223686819306,-9.205210557244145
0.01713398649439364,1.8174039668379993,-1.639574474254372,-9.04481416974246
0.035308026162773634,1.412305331989859,-1.7300226159517966,-8.948898208019573
0.049431079482672224,1.0198966422851317,-1.8195115980319922,-8.908424434768259
0.05963004590552354,0.6345455138325191,-1.908595842379675,-8.9166934066391
0.06597550104384872,0.2521195993373801,-1.997762776446066,-8.968536875221911
0.06849669703722253,-0.13020309523737167,-2.087448145198285,-9.059697348154483
0.06719466608484881,-0.5139937811259312,-2.17804511867983,-9.186323682301799
0.062054728273589495,-0.8995328465642389,-2.269908355502848,-9.344535334942483
0.053059399807947105,-1.285697772227008,-2.363353708852273,-9.530029899356494
0.04020242208567702,-1.6698099446665626,-2.458654007845838,-9.737729341397804
0.023504322639011397,-2.047480745506451,-2.556031301259816,-9.961481312529958
0.0030295151839468855,-2.412510888876892,-2.6556461143851156,-10.193852778560117
-0.021095593704822033,-2.7569103994744775,-2.7575846421707166,-10.42607073272148
-0.04866469769956681,-3.071112408582259,-2.8618453494979312,-10.648172195992098
-0.0793758217853894,-3.344442286672024,-2.968327071457852,-10.849413969924802
-0.11282024465210964,-3.5658659703220756,-3.0768212111571,-11.018954457319122
-0.1484789043553304,-3.724976849238585,-3.187010755730291,-11.146756694456265
-0.18572867284771624,-3.813102474183768,-3.2984783226748537,-11.224589311776443
-0.22385969758955393,-3.824347953916812,-3.410724215792618,-11.24694879771714
-0.26210317712872205,-3.7563728596422306,-3.5231937037697896,-11.211720034998784
-0.2996669057251444,-3.6107388766259003,-3.6353109041197773,-11.1204419441324
-0.3357742944914034,-3.392756071603231,-3.7465153235611015,-10.978133816761654
-0.3697018552074357,-3.110864626480086,-3.856296661728718,-10.79273197879129
-0.40081050147223657,-2.7756805328931167,-3.9642239815166307,-10.57425640870453
-0.4285673068011677,-2.3988845834898873,-4.069966545603676,-10.333860034212375
-0.4525561526360666,-1.9921376908962247,-4.1733051459457995,-10.082911204675254
-0.4724775295450288,-1.566169428454617,-4.274134257992552,-9.832230355020837
-0.488139223829575,-1.130126427576503,-4.37245656154276,-9.59155558513866
-0.49944048810534003,-0.6912019045164299,-4.468372117394147,-9.369260969890316
-0.5063525071505043,-0.254513860299926,-4.56206472709305,-9.172308065304161
-0.5088976457535035,0.17683300435919208,-4.653787807746092,-9.006383785750725
-0.5071293157099116,0.6015770386638628,-4.743851645603599,-8.876168872214505
-0.501113545323273,1.0200904296482627,-4.832613334325744,-8.785687235980488
-0.4909126410267904,1.434186038236042,-4.9204702066855495,-8.738701531427768
-0.47657078064443,1.8469795744304605,-5.007857221999827,-8.739138620405546
-0.45810098490012535,2.2628335394631764,-5.095248608203883,-8.791546114460921
-0.4354726495054936,2.6874004110758705,-5.183164069348492,-8.901595358655522
-0.4085986453947349,3.1277751325588854,-5.272180022935047,-9.076653908097159
-0.37732089406914604,3.592753144411268,-5.362946562016019,-9.32644314251505
-0.34139336262503334,4.093148708413424,-5.456210993441169,-9.66374800143917
-0.3004618755408991,4.642001728652157,-5.552848473455561,-10.10497980463264
-0.25404185825437753,5.254133776748682,-5.6538982715018875,-10.669896364742229
-0.2015005204868907,5.943495773646551,-5.7605972351493095,-11.378386647928385
-0.1420655627504252,6.714136155045804,-5.874381101628593,-12.238602704834154
-0.07492420119996716,7.535192871822291,-5.996767128676935,-13.213115984643611
0.0004277275182557466,8.286808158137024,-6.128898288523371,-14.144612462323579
0.08329580909962599,8.702455272966464,-6.270344413146606,-14.675650379623958
0.1703203618292906,8.483689955327396,-6.417100916942846,-14.40537287795066
0.25515726138256456,7.68253515975221,-6.561154645722352,-13.412320275451686
0.3319826129800867,6.69292829099963,-6.695277848476869,-12.233193958105788
0.398911895890083,5.781485187100732,-6.817609788057927,-11.219985486185607
0.45672674776109035,5.005351648791634,-6.929809642919784,-10.439537685113681
0.5067802642490067,4.344927882402298,-7.034205019770921,-9.859242885803969
0.5502295430730296,3.7697377082688215,-7.132797448628961,-9.43564998628825
0.5879269201557178,3.2541940825164737,-7.227153948491843,-9.134306020575783
0.6204688609808825,2.779017107470925,-7.318497008697601,-8.930638804477315
0.6482590320555918,2.329920941051239,-7.4078033967423735,-8.807526231428106
0.6715582414661042,1.8962524932448699,-7.495878659056655,-8.75298030456794
0.6905207663985529,1.4700306039445505,-7.5834084621023345,-8.758415838578141
0.7052210724379984,1.0453655122487864,-7.670992620488116,-8.817390375910099
0.7156747275604862,0.61817456041728,-7.759166524247217,-8.924644925466884
0.7218564731646591,0.1861237649332516,-7.848412973501886,-9.075315741137624
0.7237177108139916,-0.25125892528328025,-7.939166130913263,-9.26423676415722
0.7212051215611588,-0.692350507326111,-8.031808498554835,-9.485299232893706
0.7142816164878977,-1.1331462775482566,-8.126661490883771,-9.730883123305047
0.7029501537124151,-1.5670156429617097,-8.223970322116822,-9.991427126343275
0.687279997282798,-1.984632946718469,-8.323884593380255,-10.255254154520934
0.6674336678156133,-2.374240590161975,-8.426437134925465,-10.508799225675318
0.6436912619139935,-2.7223846797189646,-8.531525127182217,-10.737364875325158
0.6164674151168038,-3.01517404747648,-8.638898775935468,-10.926426033170953
0.586315674642039,-3.239946375984017,-8.748163036267178,-11.063322634727374
0.5539162108821989,-3.38702893101882,-8.858796262614451,-11.13897646731438
0.5200459215720107,-3.4511578222872785,-8.970186027287594,-11.149164596417487
0.4855343433491379,-3.43216603861618,-9.08167767325177,-11.094972425059575
0.4512126829629761,-3.334774431265547,-9.192627397502365,-10.982320770804133
0.41786493865032065,-3.1676115352694705,-9.302450605210407,-10.820772744830528
0.38618882329762594,-2.9417960596220967,-9.410658332658711,-10.622012887002109
0.35677086270140496,-2.669458602795637,-9.516878461528732,-10.398387550823285
0.3300762766734486,-2.3624848632100823,-9.620862337036964,-10.161759752215032
0.30645142804134773,-2.031617272404698,-9.722479934559114,-9.922768550561889
0.2861352553173008,-1.6859280307439253,-9.821707620064734,-9.690464555909047
0.2692759750098615,-1.33260290668832,-9.918612265623825,-9.472236646118764
0.2559499459429783,-0.9769475169200217,-10.013334632085012,-9.273934731663791
0.2461804707737781,-0.6225295206501125,-10.10607397940165,-9.100107153947112
0.239955175567277,-0.2713857558597026,-10.197075050941121,-8.95429300982726
0.23724131800867998,0.07575738129767934,-10.286617981039393,-8.839331040818744
0.23799889182165676,0.419284476860158,-10.375011291447581,-8.757664514870438
0.24219173659025833,0.7605331574947416,-10.462587936596286,-8.711635160561443
0.24979706816520575,1.101689063052977,-10.5497042882019,-8.703769167671942
0.26081395879573555,1.4457396862673346,-10.63674197987862,-8.737065303161508
0.2752713556584089,1.7964901393762478,-10.724112632910234,-8.815299791752077
0.2932362570521714,2.158641622401665,-10.812265630827754,-8.943364251063214
0.314822673276188,2.5379280476869783,-10.901699273338387,-9.127648557241534
0.3402019537530578,2.9412897800840754,-10.992975758910802,-9.376460510954836
0.36961485155389856,3.377015923674682,-11.08674036402035,-9.700412700347004
0.40338501079064537,3.854658333186377,-11.18374449102382,-10.1125367189385
0.44193159412250915,4.3841888056323635,-11.284869858213204,-10.627436606046844
0.48577348217883276,4.973052101430434,-11.391144224273672,-11.257670862525579
0.5355040031931371,5.61793796379099,-11.503720932898927,-12.00301238195956
0.5916833828310469,6.2850821385349045,-11.623751056718524,-12.823981496407917
0.654534204216396,6.873553147551581,-11.751990871682603,-13.591677491488275
0.7232697356919118,7.184980585417096,-11.887907646597485,-14.045609228371305
0.7951195415460828,7.005597852199446,-12.028363738881199,-13.90478776942444
0.8651755200680773,6.344622469248579,-12.167411616575443,-13.190956443136251
0.9286217447605631,5.463651445921529,-12.299321181006805,-12.261128984991752
0.9832582592197784,4.588945277334142,-12.421932470856722,-11.413427813362896
1.0291477119931198,3.7987739003872436,-12.53606674899035,-10.742785577218031
1.0671354509969924,3.0943808926533913,-12.64349460476253,-10.24314492125734
1.0980792599235263,2.456781499406902,-12.745926053975104,-9.884633410850297
1.1226470749175954,1.8663089798573331,-12.844772388083607,-9.638713801418069
1.1413101647161688,1.3069829631927345,-12.941159526097788,-9.482962147705681
1.1543799943480961,0.7666685775446832,-13.035989147574846,-9.400491214641294
1.162046680123543,0.23640773916349578,-13.129994059721259,-9.378469938543073
1.1644107575151779,-0.2902183772386042,-13.22377875910669,-9.406795905707785
1.161508573742792,-0.8175383106801702,-13.317846718163768,-9.477078878031302
1.1533331906359903,-1.3480684273828363,-13.41261750694408,-9.58189536780312
1.1398525063621618,-1.8826730703055903,-13.508436460622113,-9.71425530288202
1.121025775659106,-2.4206617595407764,-13.605579013650933,-9.867241239065399
1.0968191580636981,-2.9598746657598682,-13.704251426041587,-10.033801897922267
1.0672204114060995,-3.496802495580945,-13.80458944502081,-10.206695643646878
1.03225238645029,-4.026778850720619,-13.906656401457278,-10.378583001733706
0.9919845979430838,-4.544269231145405,-14.010442231474615,-10.542259581441153
0.9465419056316298,-5.043259742074518,-14.115864827289027,-10.691003029567263
0.8961093082108846,-5.517722028554608,-14.2227748575847,-10.818984438714956
0.8409320879253386,-5.9621047215388225,-14.33096470197185,-10.921674009341086
0.7813110407099504,-6.371784166720586,-14.44018144206526,-10.996162345045377
0.7175931990427445,-6.743406141121019,-14.550143065515714,-11.041329625546863
0.6501591376315343,-7.075068375229219,-14.660556361771183,-11.057825238795958
0.5794084538792421,-7.366326251076571,-14.771134614159143,-11.0478620112008
0.5057451913684764,-7.6180402585391676,-14.881613234271152,-11.014868368168353
0.42956478878308474,-7.832111788959855,-14.991761917952836,-10.963066074416489
0.3512436708934862,-8.01116611221216,-15.101392578697,-10.897044958635435
0.2711320097713646,-8.158237393551032,-15.210363028283355,-10.821391966539585
0.18954963583585427,-8.276495532566631,-15.31857694794875,-10.740408306242188
0.10678468051018795,-8.369035713417901,-15.425981031011172,-10.657924413516689
0.023094323376008946,-8.43873482220847,-15.53256027514634,-10.577204167942957
-0.06129302484607575,-8.488167412507297,-15.63833231682577,-10.500919453758723
-0.1461746989711487,-8.519568089524803,-15.743341511363356,-10.431172930469893
-0.23137037986639675,-8.53482583503183,-15.847653240668055,-10.36954846458834
-0.31671863821671503,-8.535497208172085,-15.951348725313938,-10.317172683118539
-0.4020736102984359,-8.522828038873758,-16.054520452145123,-10.274775748083448
-0.4873018906871735,-8.497776167342813,-16.157268209625958,-10.242743676696723
-0.5722796523606016,-8.461030432867018,-16.259695646392924,-10.22115791188809
-0.6568899566892719,-8.413023280753988,-16.361907225511803,-10.20982034042015
-0.7410201894968117,-8.353936047229745,-16.464005428916003,-10.208263717084932
-0.8245595499691092,-8.283697308060741,-16.566088066086852,-10.21574871184484
-0.9073965230497166,-8.201975778604531,-16.6682455532053,-10.231249783487147
-0.9894162808357619,-8.108170263614769,-16.77055805104017,-10.253432999610103
-1.0704979834719097,-8.00140017369569,-16.87309238103627,-10.280629923181806
-1.1505119852088665,-7.880501196107552,-16.975898680268088,-10.310812862655402
-1.229316997169942,-7.744031794448364,-17.079006808894643,-10.34157814033911
-1.3067573151144256,-7.590297166672669,-17.182422590298035,-10.370145451982479
-1.3826602867811524,-7.417397823833829,-17.28612404481786,-10.393382578944891
-1.4568342650194908,-7.223309618117794,-17.39005787060731,-10.407865178466704
-1.5290673612006687,-7.006000284956455,-17.49413652239198,-10.409980430891233
-1.5991273640502333,-6.76358381185815,-17.598236326700892,-10.396080193139612
-1.6667632021688148,-6.494507891820871,-17.70219712863229,-10.362683385283743
-1.7317082810870235,-6.197761631069588,-17.805823962485125,-10.306718565259054
-1.7936858973977194,-5.873081747508484,-17.908891148137716,-10.225786965079802
-1.8524167148728043,-5.521127946443719,-18.011149017788515,-10.118415874412003
-1.9076279943372416,-5.143594916666503,-18.112333176532637,-9.984265419881714
-1.9590639435039066,-4.7432321238433275,-18.212175830731454,-9.8242518993017
-2.00649626474234,-4.323754370261576,-18.310418349724472,-9.640559955944378
-2.0497338084449557,-3.889644325652839,-18.406823949283915,-9.436533336026006
-2.088630251701484,-3.445868519308945,-18.501189282644173,-9.216455861793115
-2.123088936894573,-2.997544787054732,-18.593353841262104,-8.98525452706431
-2.1530643847651203,-2.5496069335929867,-18.683206386532746,-8.748169420195712
-2.17856045410105,-2.106509425615537,-18.770688080734704,-8.510437245148697
-2.1996255483572056,-1.672002984177973,-18.85579245318619,-8.277027079138279
-2.216345578198985,-1.2489953708538746,-18.938562723977572,-8.052452377265546
