th1 (rad),w1 (rad/s),th2 (rad),w2 (rad/s),a1 (rad/s^2),a2 (rad/s^2)
2.6741746458697553,-2.136861795807618,3.813131651669953,2.9057841953874703,-1.0846767496077754,2.404468417188128
2.652806027911679,-2.147708563303696,3.8421894936238274,2.9298288795593517,-1.0713822119035743,2.4354234461942412
2.631328942278642,-2.158422385422732,3.871487782419421,2.954183114021294,-1.0604706418581538,2.4723874711835214
2.6097447184244147,-2.1690270918413135,3.901029613559634,2.9789069887331294,-1.0521057574106611,2.5155993631549602
2.5880544475060017,-2.17954814941542,3.930818683446965,3.004062982364679,-1.0464209727771872,2.5652198955114582
2.5662589660118473,-2.190012359143192,3.960859313270612,3.029715181319794,-1.0435377220519904,2.621343348675059
2.5443588424204155,-2.200447736363712,3.99115646508381,3.0559286148065445,-1.043583157282487,2.684004056545241
2.5223543650567786,-2.210883567936537,4.021715751231875,3.082768655371997,-1.0467079136296924,2.753177702700891
2.500245529377413,-2.2213506470728337,4.052543437785595,3.1103004323990056,-1.0531047657274901,2.8287770354204778
2.478032022906685,-2.2318816947301086,4.083646442109585,3.13858820275321,-1.0630291360921327,2.9106414618177983
2.4557132059593836,-2.24251198609103,4.115032324137117,3.1676946173713882,-1.0768225719229116,2.9985197100982797
2.4332880860984734,-2.2532802118102593,4.146709270310831,3.1976798144723713,-1.094940489882529,3.0920444205612125
2.4107552839803708,-2.2642296167090845,4.178686068455555,3.228600258677983,-1.1179857022987036,3.1906971479309307
2.38811298781328,-2.2754094737320716,4.210972071042335,3.2605072301572924,-1.1467494759098569,3.2937618456535422
2.3653588930759595,-2.2868769684911703,4.243577143343908,3.2934448486138277,-1.1822621129784032,3.4002644911764923
2.342490123391048,-2.2986995896209543,4.276511591830046,3.3274474935255927,-1.2258552344882496,3.5088961688439713
2.3195031274948383,-2.3109581419658367,4.309786066765302,3.362536455214032,-1.2792379915416232,3.617916782998837
2.29639354607518,-2.323750521881253,4.343411431317442,3.3987156230440205,-1.344589166819372,3.725036856524964
2.2731560408563674,-2.3371964135494467,4.377398587547882,3.43596599160927,-1.4246662730143187,3.827275964050419
2.2497840767208728,-2.35144307627959,4.4117582474639745,3.4742387512497745,-1.5229308617008843,3.920798873076269
2.226269645958077,-2.366672384896599,4.446500634976473,3.5134467399805374,-1.6436856433716729,4.0007353667445
2.202602922109111,-2.383109241330316,4.481635102376278,3.553454093647982,-1.7922127161368537,4.060998357748324
2.178771829695808,-2.4010313684916844,4.517169643312758,3.5940640772254655,-1.974891944993336,4.094129054511237
2.154761516010891,-2.420780287941618,4.553110284085013,3.635005367770578,-2.1992629381655955,4.091219594073949
2.1305537131314747,-2.442772917323274,4.589460337762718,3.6759175637113177,-2.4739721517811315,4.041994178621514
2.106125983958242,-2.467512638841085,4.626219513399831,3.716337505497533,-2.8085190679222016,3.9351686119775593
2.0814508575698314,-2.495597829520307,4.663382888454806,3.7556891916173085,-3.212686699743859,3.7592491173889955
2.0564948792746285,-2.527724696517746,4.700939780370979,3.7932816827911986,-3.695523858941672,3.503958035943401
2.031217632309451,-2.5646799351071623,4.738872597198891,3.8283212631506327,-4.263762900225109,3.162454315309167
2.0055708329583792,-2.6073175641094135,4.777155809830397,3.8599458063037244,-4.919642435199392,2.734401143244958
1.979497657317285,-2.6565139884614073,4.815755267893434,3.887289817736174,-5.658298454780253,2.2296668589244164
1.952932517432671,-2.71309697300921,4.854628166070795,3.909586486325418,-6.465203401127869,1.6720067699030117
1.925801547702579,-2.7777490070204887,4.89372403093405,3.9263065540244484,-7.314510851771426,1.1015432469186943
1.8980240576323741,-2.850894115538203,4.932987096474294,3.9373219864936355,-8.169421884815177,0.5744896831213191
1.869515116476992,-2.9325883343863546,4.9723603163392305,3.943066883324849,-8.985543139322578,0.15874770006693253
1.8401892331331284,-3.02244376577958,5.011790985172479,3.944654360325518,-9.71742673261769,-0.07492683246170917
1.8099647954753326,-3.1196180331057572,5.051237528775735,3.943905092000901,-10.327168275796572,-0.06466951012224627
1.778768615144275,-3.222889715863723,5.090676579695744,3.9432583968996786,-10.792684340992658,0.2311236453057347
1.7465397179856377,-3.3308165592736496,5.1301091636647405,3.945569633352736,-11.112934185939213,0.8266375116769984
1.7132315523929011,-3.4419459011330416,5.1695648599982675,3.953836008469506,-11.308337128951635,1.708203775793136
1.6788120933815707,-3.555029272422558,5.209103220082962,3.970918046227437,-11.416529567881087,2.840500426329442
1.6432618006573452,-3.669194568101369,5.248812400545237,3.9993230504907316,-11.485327740396512,4.176885378031957
1.6065698549763314,-3.7840478455053344,5.288805631050145,4.041091904271051,-11.565420119783548,5.670410688599078
1.568729376521278,-3.8997020467031698,5.329216550092855,4.097796011157041,-11.704804245843334,7.282738883613114
1.5297323560542462,-4.0167500891616035,5.370194510204426,4.170623399993173,-11.945880034250075,8.989715744166341
1.4895648551626302,-4.136208889504104,5.411900744204358,4.260520557434837,-12.325101038261838,10.783796606993604
1.4482027662675891,-4.259459899886722,5.4545059497787065,4.368358523504773,-12.874535988880941,12.674353271917235
1.405608167268722,-4.388205259775532,5.498189535013754,4.495102056223945,-13.624608361306354,14.687091380416232
1.3617261146709667,-4.524451343388596,5.543140555575993,4.641972970028107,-14.607479099920946,16.863635285321365
1.3164816012370808,-4.6705261343878055,5.589560285276274,4.81060932288132,-15.860828990509294,19.26205636170919
1.2697763398932027,-4.829134424292898,5.637666378505087,5.003229886498413,-17.43206880825288,21.95889664487667
1.2214849956502738,-5.003455112375427,5.687698677370071,5.22281885294718,-19.383213280441602,25.053126587554942
1.1714504445265195,-5.197287245179843,5.739926865899543,5.473350118822729,-21.796781125113903,28.672439734632757
1.119477572074721,-5.415255056430982,5.79466036708777,5.760074516169057,-24.78307153851707,32.98219559749122
1.065325021510411,-5.663085771816153,5.852261112249461,6.08989647214397,-28.488805439013397,38.1968257071961
1.0086941637922495,-5.947973826206287,5.9131600769709,6.47186472921593,-33.105750321906214,44.591664106333845
0.9492144255301866,-6.279031329425349,5.97787872426306,6.917781370279269,-38.87366933986887,52.50728161907526
0.8864241122359331,-6.6677680228240375,6.047056537965853,7.442854186470022,-46.059372192265315,62.32097681039292
0.8197464320076927,-7.128361744746691,6.121485079830553,8.066063954573952,-54.85799120257711,74.31037743845297
0.7484628145602258,-7.676941656772462,6.2021457193762926,8.809167728958482,-65.06625473107135,88.19935164889364
0.6716933979925012,-8.327604204083176,6.290237396665877,9.691161245447418,-75.1498536169869,101.85705220939998
0.5884173559516694,-9.079102740253045,6.3871490091203516,10.709731767541419,-80.01400418808666,108.17950241958923
0.497626328549139,-9.879242782133911,6.494246326795766,11.791526791737311,-67.73788734339612,90.5098727328622
0.3988339007277999,-10.556621655567872,6.612161594713139,12.696625519065934,-23.351342617625072,27.907018452945856
0.2932676841721212,-10.790135081744122,6.739127849903798,12.975695703595393,43.331529051658705,-65.93079929536849
0.18536633335467995,-10.356819791227535,6.868884806939752,12.316387710641708,85.9402025025824,-126.36565365059248
0.0817981354424046,-9.49741776620171,6.992048684046169,11.052731174135783,87.85540053855216,-130.4479812392444
-0.013176042219612508,-8.61886376081619,7.102575995787526,9.748251361743339,72.61568509500863,-110.97561001730729
-0.0993646798277744,-7.892706909866104,7.200058509404959,8.638495261570267,56.51889859908123,-90.49822184033513
-0.17829174892643546,-7.327517923875291,7.286443462020662,7.733513043166916,43.53318966626932,-74.46015721206275
-0.2515669281651884,-6.892186027212598,7.363778592452331,6.988911471046288,33.58502942281487,-62.74074984641172
-0.3204887884373144,-6.556335732984449,7.433667707162794,6.361503972582171,25.92680401365576,-54.30240648524971
-0.38605214576715885,-6.297067692847891,7.497282746888615,5.8184799077296745,19.902270468344206,-48.23500260547856
-0.44902282269563776,-6.09804498816445,7.555467545965912,5.336129881674889,15.040733258521591,-43.87712643900729
-0.5100032725772823,-5.947637655579234,7.608828844782661,4.897358617284817,11.022985359554825,-40.762498015459556
-0.5694796491330746,-5.8374078019836855,7.657802430955509,4.489733637130221,7.638517062077749,-38.554846490915835
-0.6278537271529114,-5.761022631362908,7.702699767326811,4.1041851722210625,4.754077903832815,-36.99838619603762
-0.6854639534665405,-5.7134818523245805,7.743741619049022,3.734201310260686,2.2930977517429616,-35.88352630216751
-0.7425987719897863,-5.690550874807151,7.781083632151629,3.375366047239011,0.22235493391094097,-35.02396390070904
-0.7995042807378578,-5.688327325468042,7.814837292624019,3.0251264082319205,-1.4574621199349682,-34.24249269730326
-0.8563875539925383,-5.702901946667391,7.845088556706338,2.6827014812588876,-2.720012122152096,-33.364444132422676
-0.9134165734592122,-5.730102067888913,7.871915571518928,2.349057039934661,-3.5224789467423507,-32.21871355521806
-0.9707175941381013,-5.765326857356336,7.895406141918274,2.0268699043824805,-3.81701763786395,-30.64648539636081
-1.0283708627116648,-5.803497033734976,7.915674840962099,1.7204050504188724,-3.564689912504843,-28.516873000359563
-1.0864058330490145,-5.839143932860024,7.932878891466288,1.4352363204152767,-2.7505930113003205,-25.746818035353552
-1.1447972723776147,-5.866649862973027,7.947231254670441,1.1777681400617412,-1.3973378265246008,-22.320371467352885
-1.203463771007345,-5.880623241238273,7.959008936071058,0.9545644253882124,0.4268234709960581,-18.301081938897998
-1.2622700034197278,-5.876355006528312,7.96855458032494,0.7715536059992324,2.608361463384759,-13.831891947766328
-1.321033553485011,-5.850271391894465,7.976270116384932,0.6332346865215691,4.998351971590314,-9.12010561271164
-1.3795362674039557,-5.800287872178561,7.982602463250148,0.5420336303944527,7.430006839036755,-4.409629318147362
-1.4375391461257414,-5.725987803788194,7.988022799554093,0.4979373372129791,9.7396478974574,0.05325609503268847
-1.4947990241636233,-5.628591324813621,7.993002172926223,0.498469898163306,11.786200930206315,4.052670360561782
-1.5510849374117595,-5.510729315511558,7.997986871907856,0.5389966017689238,13.465295472177587,7.427716539037235
-1.606192230566875,-5.3760763607897815,8.003376837925545,0.6132737671592962,14.71605142573742,10.085189465858548
-1.6599529941747728,-5.2289158465324075,8.009509575597137,0.7141256618178816,15.520659175343571,12.000146876364102
-1.7122421526400968,-5.073709254778972,8.016650832215316,0.8341271305815227,15.898297218974008,13.20670762133219
-1.7629792451878865,-4.914726282589232,8.02499210352113,0.9661942067948446,15.895615838743426,13.782815166652393
-1.8121265080137787,-4.755770124201797,8.034654045589079,1.1040223584613684,15.57605849190496,13.832891890907897
-1.8596842092557968,-4.600009539282747,8.045694269173692,1.2423512773704475,15.009892366098365,13.471633129442608
-1.9056843046486243,-4.449910615621763,8.058117781947397,1.3770676086648737,14.266179665181602,12.811050492987844
-1.950183410804842,-4.307248818969947,8.071888458034046,1.5051781135947522,13.407232570567325,11.951656161372792
-1.9932558989945415,-4.1731764932642745,8.086940239169992,1.62469467520848,12.485514014463629,10.977678529543777
-2.0349876639271844,-4.048321353119638,8.103187185922078,1.7344714605039178,11.542565490486506,9.955568143358281
-2.0754708774583808,-3.932895698214773,8.120531900527117,1.8340271419375005,10.609377325506538,8.934799385835191
-2.1147998344405283,-3.8268019249597076,8.138872171946492,1.9233751357958524,9.707621762948943,7.9500062455031575
-2.1530678536901253,-3.729725707330218,8.15810592330445,2.002875198250884,8.851274925170626,7.023683210512648
-2.1903651107634277,-3.641212958078512,8.178134675286959,2.0731120303560107,8.04829529388916,6.168924580608551
-2.2267772403442128,-3.5607300051396202,8.19886579559052,2.1348012761620963,7.302159746944095,5.3918963571373535
-2.262384540395609,-3.4877084076701794,8.22021380835214,2.18872023973347,6.613162126448448,4.693902562651979
-2.297261624472311,-3.4215767864056947,8.242101010749474,2.2356592653599896,5.979449298860744,4.073017896276909
-2.331477392336368,-3.3617822934170873,8.264457603403073,2.2763894443227586,5.3978104037933266,3.525320670122417
-2.365095215270539,-3.307804189379154,8.287221497846302,2.3116426510239827,4.864254409348416,3.0457879338390597
-2.3981732571643306,-3.25916164528567,8.310337924356542,2.3421005303623734,4.374416893103988,2.6289214477368614
-2.4307648736171874,-3.21541747635463,8.333758929660165,2.368389744839742,3.9238351566891456,2.269168448498528
-2.4629190483807335,-3.1761791247877387,8.357442827108562,2.391081429324727,3.5081254408571776,1.9611914123114964
-2.494680839628611,-3.1410978703791668,8.381353641401809,2.410693343447842,3.1230896102792913,1.7000300551983125
-2.5260918183324024,-3.109866974276374,8.405460574836287,2.427693643999825,2.764772548384578,1.4811885768615751
-2.557190488075166,-3.082219248792528,8.429737511276285,2.442505529768441,2.429486237239575,1.3006724661595088
-2.588012680563091,-3.0579243864201326,8.454162566573968,2.455512254430036,2.1138122707037663,1.1549922157657742
-2.6185919244272924,-3.036786263713095,8.478717689118268,2.4670621765876937,1.8145913220178227,1.0411458956145467
-2.6489597870644235,-3.018640350492917,8.503388310884144,2.477473635543839,1.5289057310267642,0.9565884370494099
-2.6791461905693525,-3.003351293182649,8.528163047239582,2.487039519914333,1.2540597417412,0.8991923837114852
-2.709179703501179,-2.990810695765237,8.553033442438725,2.496031443751448,0.9875608708538732,0.8672024938398126
-2.739087810458831,-2.9809350870566984,8.57799375687624,2.504703468689846,0.7271053111888782,0.8591846932936841
-2.7688971613293982,-2.9736640339448095,8.603040791563137,2.513295315622783,0.4705700880577128,0.8739682827801447
-2.798633801668846,-2.9689583330642324,8.628173744719364,2.522034998450584,0.2160148319110184,0.9105788409099755
-2.8283233849994884,-2.966798184745122,8.65339409470387,2.531140786859684,-0.03830353774363584,0.9681578232205268
-2.8579913668469397,-2.9671812201225585,8.678705502572466,2.540822365091889,-0.293899251271803,1.045863373624042
-2.887663179048165,-2.9701202126352766,8.704113726223385,2.5512809988281293,-0.5520044475297387,1.1427453506592158
-2.917364381174518,-2.975640257110574,8.729626536211667,2.5627084523347214,-0.8134885832983194,1.2575861582503922
-2.9471207837456235,-2.983775142943557,8.755253620735013,2.5752843139172255,-1.0787441933729673,1.3886979890061408
-2.976958535175059,-2.9945625848772868,8.781006463874185,2.589171293807287,-1.3475327801377135,1.5336671841064071
-3.006904161023832,-3.008037912678664,8.806898176812258,2.604507965648351,-1.618786207151349,1.6890387137660359
-3.036984540150619,-3.0242257747501777,8.832943256468742,2.621398352786011,-1.890363351337158,1.8499400736569989
-3.0672267978981207,-3.043129408263549,8.859157239996602,2.639897753522581,-2.158770745976874,2.0096567407705166
-3.0976580919807564,-3.064717115723318,8.885556217531828,2.6599943209302865,-2.418871774909678,2.1591939270206315
-3.1283052631379897,-3.0889058334724147,8.912156160741132,2.681586260200493,-2.663633775635953,2.2868947076440516
-3.159194321472714,-3.1155421712287743,8.938972023343137,2.7044552072769337,-2.8839966842845937,2.378233394349899
-3.190349743185002,-3.14438213807162,8.966016575415907,2.7282375412204325,-3.0689866789097486,2.415959681198442
-3.221793564565718,-3.1750720048607177,8.99329895082811,2.752397138032417,-3.2062311269114874,2.380815837154273
-3.253544284614325,-3.2071343161298325,9.020822922208435,2.7762052964039596,-3.283032027645944,2.2530505955131512
-3.2856156277756234,-3.2399646364062917,9.048584975172474,2.7987358023590914,-3.2880876245790605,2.01485769853712
-3.3180152741396864,-3.2728455126520823,9.076572333196065,2.8188843793444627,-3.2137816762391394,1.6536256414129489
-3.3507437292662074,-3.304983329414474,9.10476117698951,2.835420635758592,-3.058686970753517,1.1654977986754722
-3.3837935625603524,-3.3355701991220092,9.133115383347095,2.847075613745347,-2.829629801147048,0.558315959464803
-3.4171492645515724,-3.3638664971334795,9.161586139484548,2.8526587733399946,-2.5425012917561483,-0.14720954257181773
-3.450787929522907,-3.389291510051041,9.190112727217947,2.8511866779142765,-2.2211710318780167,-0.9190220399800488
-3.4846808446234174,-3.4115032203698212,9.21862459399709,2.841996457514476,-1.8944234930813426,-1.718053288161683
-3.5187958768271157,-3.4304474553006346,9.247044558572235,2.8248159246328592,-1.5916022563823744,-2.5044075288679655
-3.553100351380122,-3.4463634778644585,9.275292717818562,2.7997718493441797,-1.3382047534355792,-3.243638216189385
-3.5875639861587665,-3.4597455253988145,9.303290436312004,2.767335467182286,-1.1526774196778635,-3.9113447953601646
-3.6221614414127545,-3.471272299595593,9.330963790983827,2.728222019228684,-1.0451150424176074,-4.4950848031107125
-3.6568741644087104,-3.481723450019769,9.358246011176114,2.683271171197577,-1.0178104429166948,-4.993666876536561
-3.691691398908908,-3.491901554448936,9.385078722888089,2.6333345024322115,-1.067040607137631,-5.414684614096367
-3.7266104144533974,-3.5025719605203123,9.41141206791241,2.5791876562912477,-1.1853092580648212,-5.771390525405567
-3.7616361340586004,-3.5144250531009606,9.437203944475323,2.521473751037192,-1.3634244961889168,-6.079789223427278
-3.79678038458961,-3.52805929806285,9.462418681985694,2.460675858802919,-1.592079458756682,-6.356422557166555
-3.8320609775702383,-3.5439800926504166,9.487025440573724,2.3971116332312534,-1.8628609262759768,-6.616956791223399
-3.8675007784967423,-3.5626087019131765,9.510996556906036,2.3309420653190194,-2.168765994838485,-6.875461881934531
-3.903126865515874,-3.5842963618615613,9.534305977559226,2.262187446499674,-2.504365208201819,-7.144189189250867
-3.9389698291344897,-3.6093400139435796,9.556927852024224,2.1907455546071652,-2.86574722473921,-7.433657200615364
-3.9750632292739256,-3.637997486190972,9.578835307570294,2.1164089826010115,-3.2503498043877976,-7.752896347989754
-4.011443204135835,-3.6705009842348497,9.599999397396305,2.038880019121114,-3.6567469398939147,-8.109752301021688
-4.048148213978184,-3.707068453633789,9.620388197587516,1.957782496110897,-4.084432690547506,-8.511187504610074
-4.085218898514522,-3.747912780539264,9.639966022548625,1.8726706210647963,-4.533621457611342,-8.963549208617913
-4.122698026319914,-3.7932489951153774,9.658692728759274,1.7830351289786173,-5.005071202869235,-9.472789941936082
-4.160630516271068,-3.8432997071440695,9.67652308004906,1.6883072295592565,-5.499928458171214,-10.044636065882797
-4.199063513342509,-3.8982989917257815,9.693406152344652,1.5878608689004285,-6.019589963530555,-10.684704408309946
-4.238046503259767,-3.958494891361087,9.709284761033656,1.481013824817329,-6.565573924060245,-11.398568119825615
-4.277631452173378,-4.02415063060169,9.724094899281829,1.3670281436190728,-7.139393208396404,-12.191772239886854
-4.317872958479395,-4.095544562685654,9.73776518071802,1.2451104212202042,-7.7424227430802235,-13.069797935160727
-4.3588284041062515,-4.172968790116456,9.750216284930222,1.114412441868597,-8.375753600667215,-14.037972565340286
-4.400558092007416,-4.256726326123128,9.761360409348908,0.9740327162151942,-9.040026749659042,-15.101321053213338
-4.443125355268648,-4.347126593619718,9.77110073651106,0.8230195056830608,-9.735240191283065,-16.264352832984287
-4.4865966212048445,-4.444478995532549,9.779330931567891,0.660375977353218,-10.460524418299496,-17.53077828703066
-4.53104141116017,-4.549084239715544,9.785934691341422,0.4850681944829114,-11.213883042694832,-18.9031494861495
