th1 (rad),w1 (rad/s),th2 (rad),w2 (rad/s)
0.9370355023373026,2.359334774854776,3.331183981423135,-2.9737683578741345
0.9606288500858503,2.282710638582439,3.3014462978443935,-3.0493367843125783
0.9834559564716747,2.2107408277621436,3.270952930001268,-3.121247464873179
1.005563364749296,2.1434132758764726,3.239740455352536,-3.1896826876953583
1.026997497508061,2.080649012868329,3.2078436284755822,-3.2549274230636973
1.0478039876367442,2.022326048419654,3.1752943542449454,-3.317335435077789
1.0680272481209407,1.968298247675726,3.1421209998941677,-3.377303320365044
1.087710230597698,1.9184098009636659,3.108347966690517,-3.4352514281372724
1.1068943286073347,1.872506010290012,3.0739954524091444,-3.4916104772379852
1.1256193887102348,1.8304411160155143,3.0390793476367643,-3.5468127208487763
1.14392379987039,1.792083820806463,3.0036112204282768,-3.6012866355991813
1.1618446380784546,1.7573210712868537,2.967598354072285,-3.6554542736387834
1.1794178487913232,1.7260605532527948,2.931043811335897,-3.7097305800733604
1.1966784543238511,1.6982322560460796,2.893946505535163,-3.764524125576326
1.213660776884312,1.6737893709095057,2.8563012642794,-3.8202388262308675
1.230398670593407,1.6527087075535474,2.8180988760170913,-3.8772763165106143
1.2469257576689423,1.6349907406020359,2.7793261128519853,-3.9360387060295476
1.2632756650749626,1.620659329003294,2.7399657257916896,-3.9969314859350367
1.2794822583649956,1.6097610813086813,2.6999964109323393,-4.060366355100306
1.2955798691780824,1.6023642607197586,2.6593927473813364,-4.126763705742892
1.31160351178528,1.598557026663016,2.6181251103239074,-4.196554435320031
1.32758908205191,1.5984446821028842,2.5761595659707073,-4.2701806241416955
1.343573528872939,1.6021454215315747,2.5334577597292904,-4.3480944171219384
1.3595949830882545,1.6097838319578022,2.4899768155580713,-4.430754146093089
1.3756928214078326,1.6214810603824044,2.44566927409714,-4.518616288893842
1.3919076320116566,1.6373400925039205,2.4004831112082017,-4.612121236122831
1.4082810329366957,1.6574239535172242,2.3543618988469732,-4.711669974725154
1.424855272471868,1.6817238194754238,2.3072451990997216,-4.817587661069107
1.4416725106666222,1.710113038005822,2.2590693224890304,-4.930068662923793
1.4587736410466803,1.7422820367400327,2.2097686358597923,-5.049096169594791
1.4761964614140806,1.777648436345174,2.159277674163844,-5.174328411984122
1.4939729457775324,1.8152372646500037,2.107534390044003,-5.304944078061895
1.5121253184240324,1.8535297088385942,2.0544849492633843,-5.439443981908095
1.5306606155124183,1.8902882180438658,2.0000905094443033,-5.575418374102648
1.549563497692857,1.9223847710663688,1.9443363257032769,-5.709314702341959
1.5687873454035206,1.9456904024007318,1.8872431786798574,-5.836282893474893
1.588244249427528,1.9551233015809815,1.8288803497451085,-5.950228602091781
1.6077954824433378,1.944978646385801,1.7693780637241907,-6.044240380124191
1.627245268907196,1.9096311472940477,1.7089356599229488,-6.111513372781107
1.6463415803801364,1.8445630259253227,1.6478205261951377,-6.146704369610176
1.6647872106393897,1.7474406944713994,1.586353482499036,-6.147341904252193
1.6822616175841036,1.6187877606360184,1.524880063456514,-6.114680077918486
1.6984494951904638,1.4618875452087101,1.4637332626773292,-6.053508555028002
1.713068370642551,1.2819251152648896,1.4031981771270492,-5.970949276291495
1.7258876217951997,1.0847738433695984,1.3434886843641343,-5.874803452593835
1.7367353602288957,0.8759292159731125,1.284740649838196,-5.772131385526222
1.7454946523886268,0.6598791523725551,1.2270193359829338,-5.668444216385392
1.7520934439123523,0.4399170294295481,1.1703348938190798,-5.567498455835668
1.7564926142066477,0.21824658785739115,1.1146599092607232,-5.471476266201857
1.7586750800852216,-0.0037859565372368176,1.0599451465987046,-5.3813236422310196
1.7586372205198493,-0.2254432564556972,1.0061319101763944,-5.297097682011077
1.7563827879552922,-0.44638424603791915,0.9531609333562836,-5.218255346115112
1.7519189454949131,-0.6665022739878029,0.9009783798951325,-5.143867823424936
1.745253922755035,-0.885810308516656,0.8495397016608831,-5.072768717730808
1.7363958196698683,-1.104363500998037,0.7988120144835751,-5.0036516140572225
1.725352184659888,-1.3222091703081877,0.7487754983430028,-4.935132171922725
1.7121300929568062,-1.5393561319365707,0.6994241766237755,-4.865786871301081
1.6967365316374405,-1.755757487429829,0.6507663079107647,-4.794177244312046
1.6791789567631423,-1.9713028575860645,0.6028245354676443,-4.718865680556586
1.6594659281872817,-2.1858174395463434,0.5556358786620784,-4.638426838904591
1.6376077537918183,-2.3990662367526596,0.5092516102730325,-4.551457233130915
1.6136170914242918,-2.6107624448398163,0.4637370379417233,-4.45658452982165
1.5875094669758936,-2.820579365834425,0.4191711926435068,-4.352477367706518
1.5593036733175494,-3.0281654394702424,0.3756464189664416,-4.237855975633382
1.529022018922847,-3.233162077794503,0.33326785921010776,-4.111503462521307
1.496690398144902,-3.435224007380274,0.29215282458489467,-3.9722773341188233
1.4623381580710992,-3.6340417926928157,0.25243005124370643,-3.819120535342859
1.425997740144171,-3.829366158624744,0.21423884589027783,-3.6510711146477233
1.3877040785579235,-4.021033669859082,0.17772813474380061,-3.4672694594666664
1.3474937418593327,-4.208993275906383,0.14305544014913396,-3.266961967364558
1.3054038091002689,-4.393333205465895,0.11038582047548838,-3.049500009265611
1.26147047704561,-4.574307697801443,0.07989082038283227,-2.814333126820413
1.2157274000675955,-4.7523630872540545,0.051747489114628134,-2.5609956103091225
1.1682037691950549,-4.928162787735556,0.026137533011536908,-2.2890859642136534
1.1189221413176993,-5.102610706257498,0.0032466733694003734,-1.9982393494081343
1.0678960342551242,-5.276872448955175,-0.01673572012468097,-1.6880940125134734
1.0151273097655724,-5.452393186821261,-0.0336166602498157,-1.358254197779404
0.9606033778973598,-5.630909892047912,-0.047199202227609746,-1.0082545053104703
0.9042942789768807,-5.814453250426708,-0.057281747280714446,-0.6375348929305391
0.8461497464726137,-6.005329853624843,-0.06365709621001983,-0.24544294274897316
0.7860964479363652,-6.206066443397379,-0.06611152563750956,0.16870684306569056
0.7240357835023914,-6.419281918958455,-0.06442445720685266,0.60546380318239
0.6598429643128069,-6.647424707036097,-0.058369819175028766,1.0648692356369536
0.5933687172424459,-6.892266864733265,-0.047721126818659226,1.5457245964275739
0.5244460485951132,-7.1539793431397785,-0.03226388085438349,2.0442503830028658
0.45290625516371547,-7.429544608167591,-0.011821377024354832,2.5517960059442935
0.37861080908203953,-7.710288174102752,0.013696583035088104,3.0513100337893753
0.301507927341012,-7.978707527066575,0.04420968337298185,3.5128664478246634
0.22172085207034625,-8.206064393452252,0.07933834785122848,3.8904019978034983
0.13966020813582375,-8.354554316645412,0.11824236782926346,4.12517833333326
0.05611466496936962,-8.38885416112849,0.15949415116259608,4.1628577470369885
-0.027773876641915288,-8.29524556904449,0.20112272863296596,3.981563080559571
-0.11072633233236018,-8.093110081048694,0.24093835943856168,3.608987924998769
-0.1916574331428471,-7.824675317670261,0.27702823868854937,3.107980425906128
-0.2699041863195497,-7.5326417165029795,0.3081080429476106,2.544071676047683
-0.3452306034845795,-7.24603436692752,0.33354875970808745,1.9642959421711335
-0.4176909471538547,-6.979136007614628,0.3531917191297988,1.3948240558597411
-0.48748230723000097,-6.736241056084564,0.3671399596883962,0.847314420576942
-0.5548447177908467,-6.5163370763759545,0.37561310389416563,0.3254811231722522
-0.6200080885546062,-6.316082794485215,0.37886791512588813,-0.17062004199090658
-0.6831689164994583,-6.131374551510982,0.3771617147059791,-0.6422848336215871
-0.7444826620145681,-5.958080579043239,0.3707388663697632,-1.091057101645358
-0.8040634678050005,-5.792351201485605,0.3598282953533096,-1.5182617676421195
-0.8619869798198565,-5.630731142475001,0.3446456776768884,-1.9248517884514003
-0.9182942912446065,-5.4701866974878355,0.32539715979237444,-2.31140289413067
-0.9729961582194848,-5.308100317994078,0.3022831308510677,-2.6781740788739485
-1.0260771613994255,-5.142255325402474,0.27550139006232827,-3.0251940238765784
-1.0774997146534502,-4.970819268209647,0.24524944982356248,-3.352354044898732
-1.1272079073355465,-4.7923279365572675,0.21172590937457517,-3.659497850786975
-1.1751311867011192,-4.605669301986958,0.17513093086670542,-3.94650299365842
-1.2211878797209887,-4.410065734096225,0.1356659009301212,-4.213351147370504
-1.265288537061951,-4.205052825375799,0.09353238945641618,-4.460185592900997
-1.307339065315709,-3.990453565092616,0.04893053352740621,-4.687355130794409
-1.3472436009666353,-3.7663471975006666,0.002056982219462114,-4.895444343475868
-1.384907072941642,-3.533032738326151,-0.04689746121529657,-5.085290782068282
-1.4202374003249034,-3.2909877182546103,-0.09775036903597939,-5.257990258078074
-1.4531472775074494,-3.040823215638785,-0.15033027161676013,-5.414891948074584
-1.4835555096638373,-2.7832365987429766,-0.20447919109750598,-5.557585425675135
-1.511387875651267,-2.5189636088269243,-0.26005504535425733,-5.6878819771791855
-1.5365775117395364,-2.2487314916973307,-0.3169338651260492,-5.807792598368121
-1.5590648266565097,-1.973214866487209,-0.37501179110973043,-5.919504877565832
-1.5787969753213817,-1.692995976816083,-0.4342068398853888,-6.025360505947922
-1.5957269350895427,-1.408531009283776,-0.494460444944868,-6.127834358190112
-1.6098122451823804,-1.1201244461320436,-0.5557387885267692,-6.229514837475809
-1.621013489643701,-0.8279141761415588,-0.6180339369015273,-6.3330832571388145
-1.6292926314051166,-0.5318716695786797,-0.6813647694729155,-6.441287038441228
-1.6346113481009035,-0.23182445627914045,-0.7457776398573277,-6.55689676438272
-1.6369295926636949,0.0724867926065626,-0.811346607501155,-6.6826295750567475
-1.6362047247376292,0.38129604112885923,-0.8781729032517225,-6.821009510830455
-1.6323917643263406,0.6946114829381458,-0.946382998360027,-6.974117541633207
-1.6254456494969591,1.011877065320728,-1.016124173776359,-7.143159750956599
-1.6153268788437518,1.3314290088506517,-1.0875557712859252,-7.327756716850951
-1.6020125887552452,1.6496794915116073,-1.1608333384544347,-7.524852494785756
-1.5855157938401292,1.9600187299932332,-1.2360818634022923,-7.727217800410364
-1.565915606540197,2.2516326240646474,-1.313354041406396,-7.921799672053869
-1.5433992802995504,2.508885029204875,-1.3925720381269346,-8.088789324311284
-1.5183104300075017,2.7125220488124127,-1.4734599313700474,-8.203124664571233
-1.4911852095193776,2.8440156953282436,-1.5554911780157596,-8.240248849914417
-1.4627450525660952,2.892586570461454,-1.6378936665149038,-8.185533054880848
-1.4338191868614807,2.8610063743093455,-1.7197489970637123,-8.042076561184922
-1.4052091231183872,2.765243506214509,-1.8001697626755615,-7.830200062002084
-1.3775566880562422,2.6277623579698086,-1.8784717632955823,-7.5784482098588155
-1.3512790644765442,2.469738740239581,-1.9542562453941705,-7.313280472230751
-1.3265816770741483,2.3067872887729726,-2.027389050116478,-7.0535918280127055
-1.3035138041864185,2.14850466229188,-2.097924968396605,-6.810338693597146
-1.2820287575634997,1.9998727098283626,-2.1660283553325765,-6.588561124823307
-1.2620300304652161,1.862916293781114,-2.2319139665808096,-6.389648962022999
-1.2434008675274049,1.7379750513258674,-2.2958104562010395,-6.213030710693573
-1.2260211170141462,1.6245195468040359,-2.357940763307975,-6.057226658075426
-1.209775921546106,1.521626153759263,-2.4185130298887296,-5.920439968451006
-1.1945596600085133,1.4282355436918688,-2.47771742957324,-5.800862251095375
-1.1802773045715946,1.3432849242012617,-2.5357260520841938,-5.696817190631332
-1.166844455329582,1.2657701930849312,-2.5926942239905073,-5.606817422274225
-1.1541867533987327,1.1947706452062212,-2.6487623982132495,-5.529577263762162
-1.1422390469466706,1.1294544962122997,-2.704058170850871,-5.4640044374037275
-1.1309445019845477,1.0690752108377286,-2.7586982152249084,-5.409182912821574
-1.1202537498761704,1.012964005913103,-2.812790044353124,-5.364352974906192
-1.1101241098170394,0.960521374957424,-2.866433574102186,-5.328891381637421
-1.100518896067465,0.9112091311395785,-2.9197224879185604,-5.302292754736059
-1.0914068047560692,0.8645437674806078,-2.972745415465921,-5.284152434940878
-1.0827613670812632,0.8200915988063255,-3.0255869398153297,-5.274150544802677
-1.0745604510932,0.7774660209658697,-3.0783284452633564,-5.272036723715475
-1.0667857908835414,0.7363272127613134,-3.131048812500511,-5.277614817834764
-1.0594225187559283,0.696384666734417,-3.1838249606788587,-5.290726660843728
-1.0524586720885842,0.6574030369003613,-3.236732227287296,-5.311233941602413
-1.0458846417195806,0.6192119109859844,-3.2898445667033203,-5.33899701583273
-1.0396925226097207,0.5817202236737004,-3.3432345368616474,-5.373849397435629
-1.0338753203729836,0.5449360833775438,-3.3969730308360035,-5.415566604547948
-1.0284259595392082,0.5089927202340541,-3.451128696881483,-5.463828117964163
-1.0233360323368677,0.47418097168086526,-3.5057669780611245,-5.518171569412339
-1.018594222620059,0.44098805128483043,-3.5609486937552477,-5.577939113881572
-1.0141843421072108,0.41014109751726624,-3.6167280848940635,-5.642217518087305
-1.010082931132038,0.3826519570853959,-3.6731502600749364,-5.709776109112933
-1.006256411561184,0.35985667750432954,-3.730248021166066,-5.779010585500234
-1.0026578447861407,0.34343936631283095,-3.788038127021068,-5.8479057029015
-0.9992234511230125,0.3354260420885049,-3.846517184050083,-5.914035243348964
-0.9958691907021274,0.33813131512744127,-3.905657536483573,-5.974621605307687
-0.992487877550853,0.35404162637759967,-3.9654037525366497,-6.0266766661254545
-0.988947461287077,0.3856262918463383,-4.025670519197904,-6.0672364015293505
-0.9850911983686136,0.43508372901076064,-4.086342883213198,-6.093681415809134
-0.9807403610785059,0.5040535625465309,-4.147279697371289,-6.104105710839368
-0.9756998254530406,0.5933489169711421,-4.208320754479683,-6.097665464521121
-0.9697663362833292,0.7027755029248568,-4.269297409124894,-6.074823201984662
-0.9627385812540806,0.8310942606756229,-4.33004564114474,-6.037414546035272
-0.9544276386473244,0.9761504403405132,-4.390419786605093,-5.988507341733783
-0.9446661342439192,1.1351455834688158,-4.45030486002243,-5.932081798305182
-0.9333146784092311,1.3049900010772044,-4.509625678005482,-5.872609842252327
-0.9202647783984591,1.4826585700576702,-4.568351776428005,-5.814631080142316
-0.9054381926978824,1.665485148735307,-4.626498087229429,-5.76240761253865
-0.8887833412105294,1.8513604543434468,-4.684122163354815,-5.719703300175589
-0.870269736667095,2.0388297554786443,-4.741319196356571,-5.689693992795147
-0.8498814391123085,2.227109155796429,-4.798216136284522,-5.674987599270387
-0.8276103475543443,2.4160491483845172,-4.8549660122772265,-5.6777210382876175
-0.8034498560704991,2.6060739508352584,-4.911743222660102,-5.6997020577740685
-0.7773891165621465,2.798119543294485,-4.968740243237843,-5.742571925427841
-0.7494079211292016,2.9935864142299025,-5.026165962492121,-5.807975089965216
-0.7194720569869026,3.1943172314772577,-5.084245713391773,-5.897731163133156
-0.68752888467213,3.402605958529219,-5.143223025023105,-6.014011913059402
-0.6535028250868379,3.6212433289224695,-5.203363144153699,-6.159531445923521
-0.6172903917976131,3.8536035650833322,-5.264958458612934,-6.337761794480804
-0.5787543561467798,4.103777872287491,-5.3283360765577426,-6.5531887857673485
-0.5377165774239049,4.376759819766281,-5.393867964415416,-6.811623063984675
-0.4939489792262421,4.678682233834253,-5.461984195055263,-7.120573827398769
-0.44716215688789956,5.017084531839855,-5.5331899333292505,-7.489664815462535
-0.396991311569501,5.4011272611067085,-5.608086581483875,-7.930987450454411
-0.34298003895843393,5.841499235048979,-5.687396455988419,-8.459051013322425
-0.2845650466079441,6.349312194136157,-5.771986966121643,-9.089367506350177
-0.22107192466658254,6.932158324173128,-5.862880641185145,-9.833152584738096
-0.15175034142485128,7.583056629324082,-5.961212167032525,-10.682199062550325
-0.07591977513161045,8.254542024868943,-6.068034157658029,-11.573077868609367
0.006625645117078985,8.81497730040219,-6.183764936344122,-12.326401840606021
0.09477541812110088,9.03396577125276,-6.307028954750183,-12.62617691602639
0.18511507583362846,8.732753644478958,-6.433290723910447,-12.2281637830629
0.27244261227841804,8.030058438202605,-6.555572361741076,-11.299045581679989
0.35274319666044407,7.223847285074884,-6.668562817557876,-10.249004589552802
0.4249816695111929,6.493154474344523,-6.771052863453404,-9.320501503493304
0.4899132142546382,5.878012336211688,-6.864257878488337,-8.564810040620635
0.5486933376167551,5.365577983981393,-6.9499059788945425,-7.962181709419541
0.602349117456569,4.93364220531893,-7.029527795988738,-7.481380991254432
0.6516855395097584,4.5626560623043355,-7.104341605901282,-7.095691946228905
0.6973121001328018,4.23748550632255,-7.175298525363571,-6.784981034571697
0.7396869551960272,3.9467461781585538,-7.243148335709288,-6.5345820149568805
0.7791544169776128,3.6818505959601704,-7.308494155858856,-6.333864996587306
0.8159729229372145,3.4362328603855135,-7.371832805824729,-6.175082954874651
0.8503352515410696,3.2047951517312256,-7.433583635373475,-6.052528735040177
0.8823832030583818,2.9835341186437385,-7.494108922723877,-5.961926634455064
0.9122185442448192,2.769301093218336,-7.553728189068427,-5.899981457720399
0.9399115551770025,2.5596615387146118,-7.612728003645631,-5.864026350410836
0.9655081705641486,2.352829919973224,-7.67136826714974,-5.851728620425437
0.9890364697638808,2.1476628634664454,-7.729885553353994,-5.8608275595881825
1.0105130983985453,1.9436955835575485,-7.788493828949876,-5.888891496455022
1.029950054234121,1.7412041761311539,-7.847382743914426,-5.933094916746921
1.0473620959954324,1.5412699933448475,-7.906713693081895,-5.990031572238555
1.062774795928881,1.3458134838697347,-7.966614008804281,-6.055595177855334
1.0762329307675782,1.1575572655030455,-8.027169960582833,-6.124971570987502
1.0878085034226086,0.9798779999785563,-8.088419676292709,-6.192787568629341
1.0976072834223942,0.8165212766364119,-8.150347551979003,-6.253443175815097
1.1057724961887583,0.6711875013651143,-8.212881983737153,-6.3016104690069845
1.1124843712024095,0.5470446519466647,-8.275898088427223,-6.33282193590559
1.117954817721876,0.4462676839588368,-8.339226307786278,-6.344017303340053
1.1224174945614644,0.3697192039152231,-8.40266648081968,-6.333903157806656
1.1261146866006166,0.3168555620023923,-8.466005512397746,-6.3030232675766324
1.1292832422206405,0.28587490738186766,-8.529035745073513,-6.253526656887482
1.1321419912944592,0.2740504465589692,-8.591571011642387,-6.188713281856075
1.134882495760049,0.27814762115163105,-8.653458144460947,-6.112489993695404
1.1376639719715653,0.29482308211145564,-8.714583044397902,-6.028865578897398
1.14061220279268,0.3209358848612315,-8.774871700186875,-5.9415686121867495
1.1438215616412923,0.35374436492521033,-8.834287386308743,-5.853815950567704
1.1473590052905445,0.39099657283590766,-8.89282554581442,-5.7682168570971815
1.1512689710189035,0.4309403410619331,-8.950507714385392,-5.686776513361026
1.1555783744295227,0.4722829672433954,-9.007375479519002,-5.610959571329504
1.1603012041019567,0.5141259797741013,-9.063485075232297,-5.541781451190719
1.1654424638996976,0.5558929334490793,-9.118902889744204,-5.479905337457016
1.1710013932341885,0.5972610052853053,-9.173701943118774,-5.425732168163155
1.1769740032870415,0.6381017069419025,-9.227959264800406,-5.379477792144512
1.1833550203564605,0.6784324721407917,-9.28175404272185,-5.341235825422387
1.1901393450778683,0.7183788544548615,-9.335166400976075,-5.311027122771066
1.197323133622417,0.7581461033018706,-9.388276672203785,-5.288837848950817
1.2049045946554358,0.7979985611515992,-9.441165050693293,-5.2746484242884
