th1 (rad),w1 (rad/s),th2 (rad),w2 (rad/s)
3.5137580965375057,2.0877670500851835,1.5777327565886523,0.42881410380557
3.5346357670383575,2.1139867009822035,1.582020897626708,0.3808939099093543
3.5557756340481794,2.1422814406114106,1.5858298367258017,0.3349141988333197
3.5771984484542934,2.172675283090133,1.5891789787141348,0.2910234582691785
3.5989252012851947,2.2052020097533713,1.5920892132968265,0.2493764162241286
3.6209772213827285,2.2399057926604167,1.5945829774590679,0.21013487663391836
3.6433762793093325,2.2768418120978025,1.5966843262254071,0.17346858626216607
3.6661446974303105,2.3160768597980668,1.5984190120880288,0.13955612103649104
3.689305466028291,2.357689916147179,1.5998145732983937,0.1085857740727056
3.712882365189763,2.401772685233715,1.6009004310391208,0.08075642019426492
3.7369000920421,2.448430065989321,1.6017079952410636,0.05627832242291014
3.761384392701993,2.497780530647359,1.6022707784652928,0.03537383430541328
3.786362198008467,2.549956373051188,1.6026245168083468,0.01827793761535107
3.811861761738979,2.605103778716525,1.6028072961845004,0.005238537467586141
3.837912799526144,2.66338265575234,1.6028596815591762,-0.0034835842461501867
3.8645466260836674,2.724966150584143,1.6028248457167147,-0.0076152813401598315
3.891796287589509,2.7900397548233693,1.602748692903313,-0.006872175386081661
3.9196966851377426,2.8587998896953764,1.6026799711494522,-0.0009605946266321936
3.9482846840346966,2.931451832581039,1.6026703652031857,0.010419455553179049
3.977599202360507,3.0082068272859472,1.6027745597587175,0.027570025906101102
4.007681270633366,3.0892781970845125,1.6030502600177785,0.050789355219058516
4.038574052604211,3.1748762596697846,1.603558153569969,0.08036405829451151
4.070322815200909,3.2652018291792917,1.604361794152914,0.11655899837263489
4.102974833492702,3.360438086979182,1.6055273841366404,0.15960445887628352
4.136579214362494,3.4607406156876905,1.6071234287254033,0.20968024125966725
4.1711866205193715,3.5662254270159597,1.609220231138,0.26689636512396153
4.206848874789531,3.6769548812002903,1.6118891947892395,0.33127014764769186
4.243618423601534,3.7929215018381206,1.6152018962657164,0.40269960652317915
4.281547638619915,3.9140298411156356,1.6192288923309481,0.48093337738947955
4.320687937031071,4.04007674962805,1.624038226104843,0.5655376721060127
4.361088704527352,4.170730649410497,1.629693602825903,0.6558612284745327
4.402796011021457,4.30551068755567,1.6362522151106484,0.7509997025889903
4.445851117897014,4.443766940503942,1.6437622121365383,0.8497615025992398
4.490288787302053,4.5846631161268965,1.6522598271625306,0.9506376098907344
4.5361354184633225,4.7271634262750375,1.661766203261438,1.05177841738241
4.583407052726073,4.870025440773316,1.6722839874352622,1.150980963516093
4.632107307133806,5.011800757934733,1.683793797070423,1.2456900872341161
4.682225314713153,5.15084522702659,1.6962506979427643,1.3330169245056955
4.733733766983419,5.285340247448537,1.7095808671878212,1.4097777898613357
4.7865871694579045,5.413326378471755,1.7236786450864345,1.4725558443979079
4.840720433242622,5.532750155178048,1.7384042035304137,1.5177870650107905
4.896047934794403,5.641524628893913,1.7535820741805217,1.54187090037795
4.952463181083342,5.737603687084994,1.769000783184301,1.541304575933356
5.009839217954192,5.819069537333505,1.7844138289436347,1.512838167297259
5.068029913327527,5.884231678233443,1.7995422106166072,1.4536451224962765
5.1268722301098615,5.931734036739067,1.81407866184157,1.3614997381155471
5.186189570477252,5.9606646414025395,1.8276936592227255,1.2349492397503874
5.245796216891277,5.970659388540349,1.8400431516202294,1.0734640302727496
5.30550281077668,5.961988684941285,1.8507777919229569,0.877546332765513
5.365122697626093,5.935613956250639,1.859553255250612,0.6487763458207035
5.4244788371886,5.893201355679097,1.866041018708819,0.389777769259565
5.483410850745391,5.837083458649364,1.8699387964014147,0.10409223253680261
5.541781685331884,5.770166495001449,1.8709797187267827,-0.20403550616897148
5.599483350281899,5.695789763823542,1.868939363665093,-0.5299448782351848
5.656441247920134,5.617553125363114,1.8636399148827412,-0.8688890556975113
5.712616779173765,5.539135163623234,1.854951024325766,-1.2163683434205306
5.7680081308099975,5.464126614105272,1.8427873408915607,-1.5684292412175127
5.82264939695105,5.395900348407984,1.8271030484793855,-1.9218997191045417
5.8766084004351296,5.337531833791648,1.80788405128834,-2.274545780282346
5.929983718773046,5.291775032235799,1.7851385934855166,-2.6251504192478534
5.982901469095404,5.2610908211070875,1.7588870892930382,-2.9735295089301728
6.035512377306476,5.247720031009245,1.7291517942037364,-3.320507538918703
6.087989577616568,5.253791682854609,1.6959467188145494,-3.667879169463156
6.140527494445115,5.281458474317901,1.6592679271199178,-4.018381561294843
6.193342079188294,5.3330549390094815,1.6190841115069694,-4.375699309232193
6.246672628578389,5.411277730737335,1.5753271184146476,-4.744520131126226
6.300785405885762,5.5193907996896705,1.5278819171033853,-5.130655700109249
6.355979313882658,5.6614587666168115,1.4765753601022928,-5.541236527702818
6.412593901548826,5.84260510295857,1.4211629948252646,-5.984976769005387
6.471019952578412,6.069266642114552,1.3613132271352109,-6.47246861059057
6.531712618999557,6.349344051746363,1.2965885410293052,-7.01636668288232
6.595206059517021,6.691957694104637,1.226424874200482,-7.631060812948958
6.662125636458067,7.106037461816479,1.1501142660709924,-8.330769427336092
6.733186011076232,7.595835804731841,1.0668065717976316,-9.123399973616166
6.80914436912355,8.149157288828842,0.97557257206147,-9.99431260163401
6.890635942011839,8.711650335400282,0.8756294460451299,-10.870672722421618
6.977752445365842,9.1486963426621,0.7669227188209138,-11.568453018102343
7.069239408792463,9.24765314322513,0.6512381886398904,-11.795663135487002
7.161715940224714,8.873677741531466,0.5332815572850204,-11.36954156541737
7.250452717640028,8.162850577215861,0.4195861416308467,-10.483991020963279
7.332081223412187,7.379431339434753,0.3147462314212139,-9.508123183251922
7.405875536806534,6.672725283107268,0.21966499958869468,-8.648971130295736
7.472602789637607,6.074357315953751,0.13317528828573733,-7.950179708703918
7.533346362797144,5.571566389829866,0.053673491198698145,-7.39454540294811
7.5890620266954425,5.14363049883167,-0.02027196283078296,-6.954407029267971
7.64049833168376,4.772208172732206,-0.08981603312346267,-6.605765454294853
7.688220413411082,4.442932383256492,-0.1558736876664112,-6.330357942021834
7.732649737243647,4.144852700333355,-0.21917726708662955,-6.114810045871829
7.77409826424698,3.8695914836835446,-0.28032536754534787,-5.94941599380657
7.812794179083816,3.610644290316712,-0.3398195274834136,-5.827120089608001
7.848900621986982,3.3628758587170826,-0.3980907283794936,-5.74275431197209
7.882529380574153,3.1221802064929953,-0.45551827149921453,-5.692475554802501
7.913751182639083,2.885266687983596,-0.5124430270472395,-5.673337286684358
7.942603849518919,2.649543088837456,-0.5691763999140831,-5.682943204780066
7.969099280407294,2.41307634072909,-0.6260058319618838,-5.7191447061582945
7.9932300438145845,2.174617490439184,-0.6831972790234667,-5.77975649800085
8.014976218718976,1.9336792121059723,-0.7409948440034753,-5.862276634635511
8.034313010840036,1.6906508808574907,-0.7996176103498304,-5.9636108525738125
8.05121951964861,1.4469276880887787,-0.8592537188755685,-6.079818025705811
8.065688796529498,1.2050170816193302,-0.9200518991326265,-6.205913985355986
8.077738967345692,0.9685709343605052,-0.9821110389861863,-6.335791577997424
8.087424676689297,0.7422821153314657,-1.0454689547661606,-6.462327345044827
8.094847497842611,0.5315903172795409,-1.110092228216609,-6.577736430118482
8.100163401015406,0.3421751300574012,-1.1758695925177938,-6.674194177482044
8.10358515231598,0.17927715562154903,-1.2426115342926143,-6.744663467075704
8.105377923872195,0.04696475015140042,-1.3100581689633712,-6.783772695779324
8.10584757137371,-0.0524808690147221,-1.3778958959211645,-6.7885261746062575
8.105322762683564,-0.11889472401630495,-1.445781157667227,-6.758643899324545
8.1041338154434,-0.15418210432372198,-1.5133675966604725,-6.696432715370224
8.102591994400164,-0.16192755588632693,-1.5803319238141746,-6.60624186139961
8.100972718841302,-0.14679032299408695,-1.6463943424281708,-6.493677594792531
8.099504815611361,-0.1138557124748826,-1.7113311183760962,-6.364790039012514
8.098366258486612,-0.06808236475048517,-1.7749790187662213,-6.225400553931965
8.097685434839107,-0.013919403169367274,-1.837233024305541,-6.080651821917659
8.097546240807414,0.04489747773065808,-1.8980395425247176,-5.934782601262373
8.09799521558472,0.10540353597729364,-1.9573873685373413,-5.791080433886106
8.099049250944494,0.16536397672964018,-2.0152981728762023,-5.651950049941046
8.10070289071179,0.22317932897902026,-2.071817673375613,-5.5190414726312245
8.10293468400158,0.27777089286563406,-2.127008088101925,-5.393397167619451
8.105712392930236,0.3284675629704799,-2.1809420597781193,-5.275593410209861
8.10899706855994,0.37490525931166213,-2.233697993880218,-5.1658634484850765
8.112746121153057,0.4169433249348602,-2.2853566283650686,-5.064198241070069
8.116915554402405,0.4545981835383099,-2.335998610775769,-4.970425229470729
8.121461536237788,0.48799250082430573,-2.385702863070476,-4.884267840084796
8.126341461246032,0.5173173091720907,-2.434545541471324,-4.805389156266267
8.131514634337753,0.5428044762834581,-2.482599433033987,-4.733423145843106
8.136942679100589,0.5647071591720865,-2.5299336644924177,-4.667996410987325
8.14258975069231,0.5832862705050158,-2.576613628602291,-4.608742894284746
8.14842261339736,0.5988013810621529,-2.6227010575451386,-4.555313454105229
8.154410627207982,0.6115048374413852,-2.668254192086191,-4.5073817686407605
8.160525675582395,0.621638169763406,-2.7133280097725985,-4.46464765692805
8.166742057280029,0.6294300990329614,-2.757974486341879,-4.426838613458956
8.173036358270359,0.6350956346635943,-2.8022428724764685,-4.393710129471123
8.179387314616994,0.6388358886130974,-2.84617997377118,-4.365045205595023
8.185775673503125,0.6408383326758803,-2.8898304258271303,-4.340653334844181
8.192184056829884,0.6412772976537812,-2.9332369591755723,-4.32036914138447
8.198596829806421,0.6403145638245891,-2.9764406505894168,-4.304050790501165
8.204999975444666,0.6380999263634552,-3.0194811584944286,-4.291578231908861
8.2113809747083,0.6347716409213369,-3.062396940813517,-4.282851296744247
8.217728691117513,0.6304566661940685,-3.1052254537809594,-4.277787634176691
8.224033257779453,0.6252706240185886,-3.148003330122726,-4.2763204434429944
8.23028596401964,0.6193173947499424,-3.1907665345571563,-4.278395928894957
8.23647913796714,0.61268825751214,-3.233550493846106,-4.283970377638466
8.24260602054226,0.6054604723926236,-3.2763901976224905,-4.293006730515756
8.248660625266186,0.5976951859757452,-3.319320264927648,-4.305470487346449
8.254637577125944,0.5894345245765344,-3.3623749698011127,-4.321324757475714
8.26053192237171,0.5806977240366574,-3.40558821737587,-4.340524239499082
8.266338899612077,0.571476135691019,-3.4489934597708607,-4.363007894872398
8.272053660968988,0.5617269525657793,-3.4926235387195845,-4.3886900781111935
8.277670930494645,0.5513655293510784,-3.5365104395006965,-4.417449915875491
8.283184585788156,0.5402562405122104,-3.5806849386594513,-4.449118809706984
8.288587148193278,0.5282019550049596,-3.625176126756521,-4.483466101642019
8.293869167743328,0.5149324302504101,-3.670010787772941,-4.520183224422335
8.299018492045832,0.5000922700982829,-3.7152126200171645,-4.558867096588459
8.304019414746815,0.48322957082062684,-3.760801290983049,-4.599004144909517
8.308851710455022,0.46378698886291075,-3.806791332432144,-4.639957135690398
8.313489580343651,0.4410976434881597,-3.853190903789048,-4.680957894487015
8.317900556778532,0.4143888684098708,-3.9000004827339185,-4.7211097955937955
8.32204444546263,0.38279708769720966,-3.9472115806898564,-4.759404261169196
8.325872416339603,0.3453966504410164,-3.9948056233015485,-4.794754941688816
8.329326382844012,0.3012439442298534,-4.042753172718436,-4.826051258092276
8.33233882228631,0.24943533689341327,-4.091013685299359,-4.852229330041214
8.334833175655245,0.18917374646212032,-4.139535978599771,-4.872353372515402
8.336724913119866,0.1198348439908832,-4.188259512324925,-4.885695674538238
8.337923261559775,0.041021530950607094,-4.237116469070307,-4.891800263453027
8.33833347686928,-0.04740414619449394,-4.286034471704838,-4.890516232913845
8.337859435407335,-0.1453185180587352,-4.334939634033976,-4.8819921708912455
8.336406250226748,-0.2523636651477312,-4.383759555742889,-4.8666318251493985
8.333882613575271,-0.3679983319434796,-4.432425873994383,-4.845020040398808
8.330202630255837,-0.4915615173484932,-4.480876074398371,-4.817833838280005
8.325287015082353,-0.6223368573539301,-4.529054412781171,-4.785754531007097
8.319063646508813,-0.7596081710454949,-4.576911958091243,-4.749393427017879
8.311467564798358,-0.9027006059533459,-4.6244058923614215,-4.709238060115401
8.302440558738825,-1.051005982616011,-4.671498272962576,-4.665620278762155
8.291930498912665,-1.2039940291906956,-4.718154475750198,-4.618703511249369
8.279890558620759,-1.361212830122623,-4.764341510862692,-4.568484528561321
8.266278430319533,-1.5222821965997657,-4.810026356148305,-4.51480471767797
8.251055608353536,-1.6868832603574888,-4.855174403325085,-4.457366594928238
8.234186775749961,-1.8547468409494485,-4.899748069274367,-4.395752417125475
8.215639307340467,-2.0256423474589496,-4.943705593445622,-4.329442874382152
8.195382883865877,-2.199368307900951,-4.987000022189443,-4.257834767599739
8.173389200786866,-2.375745123421296,-5.02957836986544,-4.180257228797099
8.149631749552654,-2.554610308436547,-5.071380942153412,-4.095986457849448
8.124085646468288,-2.735816265004989,-5.112340806731906,-4.004259180849694
8.096727483818238,-2.919230508210553,-5.152383398540403,-3.904285143265101
8.067535178736133,-3.104738172108796,-5.191426249973054,-3.7952589879755423
8.036487797015045,-3.2922465527726406,-5.229378839852809,-3.6763718773487373
8.00356533148732,-3.4816913617956335,-5.266142558626297,-3.5468232363000802
7.968748417869363,-3.6730442484903554,-5.301610790989297,-3.4058330545453908
7.9320179753844595,-3.86632097887665,-5.335669121534751,-3.252655329610257
7.893354765595693,-4.0615894052834935,-5.368195674830854,-3.0865935065354853
7.852738871542858,-4.2589759811091294,-5.39906160989621,-2.9070192422575096
7.810149111731767,-4.458669011280733,-5.428131802318784,-2.7133965853430437
7.765562421618959,-4.660915993596452,-5.4552657681722145,-2.5053148436738573
7.718953261682995,-4.86601117881334,-5.480318916608953,-2.282535184402274
7.670293149894862,-5.074267703946424,-5.503144268452975,-2.0450585785537445
7.619550472855398,-5.285966170945081,-5.523594854238513,-1.7932262659564209
7.566690811145947,-5.501268268146813,-5.541527116898077,-1.5278685286670741
7.511678128464479,-5.720080192539764,-5.556805802184748,-1.250522784133851
7.454477326539081,-5.9418472917408325,-5.569311030026086,-0.9637461427128433
7.395058853621673,-6.165261443881355,-5.578948491453215,-0.6715461632195545
7.333406239182859,-6.387872728512218,-5.58566395308541,-0.37993698688187033
7.269527511897738,-6.605628740732297,-5.589463322954229,-0.09757916819946438
7.203471224490414,-6.812434562691583,-5.590439114636224,0.16364257283773004
7.135346878863499,-6.999942571692883,-5.588802688907847,0.3884201119889249
7.06534745314657,-7.157911277577763,-5.584918487787958,0.5587054043129944
6.993768340370792,-7.275492126916111,-5.579331433744827,0.6558033221407104
6.921013419101631,-7.343505577466797,-5.57277340052342,0.6639554085648227
6.847578363326963,-7.357076078247443,-5.566133846437772,0.574471904492224
6.774007602544488,-7.31733015521476,-5.56038912739285,0.38847784468730434
6.700834300992341,-7.231041274595152,-5.5565043489459764,0.11657924655012125
6.628523888246389,-7.108331035946415,-5.555338556480475,-0.22445531820241404
6.557440577886925,-6.959741623805611,-5.557583109662499,-0.6160986146316374
6.487843161648868,-6.794053101129034,-5.563744095808815,-1.0415024955463832
6.419902630637578,-6.6173589221687,-5.574159120764278,-1.487138423658429
6.353729041415892,-6.433127685513949,-5.589030505000863,-1.9429726445695295
6.289397764560752,-6.2427419058664455,-5.608460231446558,-2.4018940870335728
6.226970345502087,-6.046133659224093,-5.632479172316893,-2.8589551802800464
6.166509008909846,-5.842335433171723,-5.661068724119693,-3.3107075361084766
6.108085654578129,-5.629897671776099,-5.694175799480778,-3.7547185503212113
6.051786677860368,-5.407184583783869,-5.73172298498399,-4.189260880128354
5.997714832022529,-5.172576513521962,-5.773615593785274,-4.613135835326771
5.94598906688731,-4.924605634992076,-5.819746952138542,-5.0255891613066765
5.8967430105373895,-4.662045320176946,-5.8700028437516085,-5.426284248542233
5.85012255733562,-4.383967763154095,-5.924265686237031,-5.81530525854581
5.806282879704079,-4.089781039013961,-5.9824187388224885,-6.193168215530374
5.76538506931394,-3.779256067417812,-6.044350420977792,-6.560821010250975
5.727592508639762,-3.4525559648052515,-6.109958631080302,-6.919613134259239
5.693066948991709,-3.110285184578157,-6.179154762422894,-7.2712121702942
5.661964097145928,-2.7535840925807844,-6.251866884125836,-7.617435513079615
5.6344282562201204,-2.3843066408153786,-6.328041239256632,-7.959951247835738
5.6105851898119665,-2.005333972283632,-6.40764075173499,-8.29978158259935
5.59053185008913,-1.621090443549325,-6.490638567560983,-8.636521014960866
5.5743209456536364,-1.2383248373907307,-6.577003777710591,-8.967179822851874
5.561937697279729,-0.8671581179961716,-6.66667557593911,-9.28463533350323
5.553266116099768,-0.5222012951135848,-6.759521929274142,-9.575926327133262
5.548044103148632,-0.223119499141324,-6.855281192545475,-9.821191948926158
5.5458129081572185,0.006581191602086589,-6.953493112034737,-9.994870301878779
5.545878720073239,0.14394617014485458,-7.0534418150535245,-10.071046247010829
5.5473181817746875,0.1740607836318523,-7.154152277523632,-10.032898390331512
5.549058789611006,0.09711816079155396,-7.254481261426948,-9.881650763709754
5.550029971218922,-0.07041647120774637,-7.353297769064046,-9.637873255313906
5.549325806506844,-0.3021741893281585,-7.449676501617184,-9.333161084853543
5.546304064613563,-0.5710049384245521,-7.54300811246572,-8.998617246002734
5.540594015229317,-0.8550921459303369,-7.632994284925747,-8.6575692890816
5.532043093770014,-1.1395656271599095,-7.719569977816563,-8.32415984205306
5.520647437498415,-1.4154014041878205,-7.802811576237094,-8.005255215137286
5.506493423456536,-1.6776032541603783,-7.882864128388467,-7.703045763164007
5.489717390914932,-1.9236520087977607,-7.9598945860201065,-7.417130768366641
5.470480870826955,-2.1524472312005285,-8.034065893703772,-7.145878148330296
5.44895639851495,-2.3636620372283113,-8.105524675187075,-6.887215595667851
5.425319778142667,-2.557376156014904,-8.174396831143754,-6.639054995391974
5.399746016582518,-2.7338781875228158,-8.240787381097674,-6.399501785870275
5.37240723470729,-2.893564882301965,-8.304782398956377,-6.166944902971177
5.34347158588427,-3.0368936417897427,-8.366451847986088,-5.940082842318238
5.313102649466373,-3.1643628015599328,-8.42585267640927,-5.717916678686464
5.2814590214507735,-3.2765053152673267,-8.483031843196136,-5.49972672341112
5.248693968298101,-3.3738879036148077,-8.538029110430246,-5.285041703084368
5.214955089261952,-3.4571114464674477,-8.59087952746109,-5.073605161096355
5.1803839747972775,-3.5268105296230066,-8.641615579072052,-4.865341587321527
5.145115869501048,-3.583651281272849,-8.690268994945267,-4.6603236470005776
5.109279356688319,-3.628327327965457,-8.736872231415273,-4.45874129815846
5.072996083408664,-3.661554081432615,-8.781459644396858,-4.2608732821878075
5.036380542594338,-3.6840617591082157,-8.824068377218735,-4.067061299034677
4.999539925003256,-3.6965876148323584,-8.864738990209082,-3.877687062952084
