th1 (rad),w1 (rad/s),th2 (rad),w2 (rad/s),a1 (rad/s^2),a2 (rad/s^2)
5.6580087568538735,2.97678338567396,6.155119074454018,-2.125064887277879,13.229763524342145,-14.602683596514694
5.687776590710613,3.1090810209173814,6.133868425581239,-2.2710917232430257,13.206746024568154,-14.626956985584238
5.7188674009197875,3.241148481163063,6.111157508348809,-2.417361293098868,12.980615697350368,-14.333122665825284
5.751278885731418,3.370954638136567,6.08698389541782,-2.560692519757121,12.477385819571776,-13.613894697841472
5.784988432112784,3.4957284963322848,6.061376970220249,-2.6968314667355355,11.619127130964284,-12.356870410775203
5.819945717076107,3.6119197676419277,6.034408655552894,-2.8204001708432878,10.338122868789629,-10.464821601489867
5.856064914752526,3.715300996329824,6.006204653844461,-2.9250483868581862,8.598473832973044,-7.886577501331
5.893217924715825,3.8012857346595545,5.976954169975879,-3.003914161871496,6.421188412577773,-4.652866714794528
5.93123078206242,3.8654976187853323,5.9469150283571635,-3.0504428290194414,3.9027718667231945,-0.9029453974743251
5.969885758250274,3.904525337452564,5.916410600066969,-3.0594722829941845,1.213915482401053,3.117021033984106
6.008931011624799,3.9166644922765745,5.885815877237028,-3.0283020726543435,-1.4298042712170411,7.0953747528186994
6.048097656547565,3.902366449564404,5.855532856510484,-2.9573483251261563,-3.818321239187199,10.726533184207945
6.087121321043209,3.864183237172532,5.825959373259223,-2.8500829932840768,-5.796964104792042,13.78217596110239
6.125763153414934,3.8062135961246115,5.797458543326382,-2.7122612336730527,-7.293496623640761,16.1503484618179
6.16382528937618,3.733278629888204,5.770335930989651,-2.5507577490548736,-8.314793467819932,17.831613104148513
6.201158075675062,3.650130695210005,5.744828353499102,-2.3724416180133883,-8.922599769287405,18.905382563566494
6.237659382627162,3.560904697517131,5.7211039373189685,-2.183387792377723,-9.204182966402339,19.488687632590686
6.273268429602333,3.4688628678531077,5.699270059395191,-1.9885009160518163,-9.24919743159157,19.703429062859914
6.307957058280865,3.376370893537192,5.679385050234673,-1.7914666254232172,-9.136362348715606,19.657323837921446
6.341720767216237,3.285007270050036,5.661470383980441,-1.5948933870440027,-8.92839433343177,19.436462182165332
6.374570839916737,3.195723326715718,5.64552145011,-1.4005287652223495,-8.672017706780505,19.10506335205766
6.406528073183894,3.109003149647913,5.6315161624577765,-1.2094781317017729,-8.40032047562551,18.708604445125616
6.437618104680373,3.024999944891658,5.619421381140759,-1.0223920872505168,-8.135745824535338,18.27791128355194
6.46786810412929,2.9436424866463047,5.609197460268254,-0.8396129744149974,-7.8928742734973145,17.833008829297135
6.497304528995754,2.8647137439113317,5.600801330524104,-0.661282886122026,-7.680689733154207,17.3862843151077
6.525951666434867,2.78790684657979,5.594188501662884,-0.487420042970949,-7.504295205824423,16.944901734241025
6.553830734900665,2.7128638945215457,5.589314301233174,-0.31797102562853874,-7.366154525579432,16.51256492111373
6.5809593738458805,2.6392023492657515,5.586134590976889,-0.15284537641740145,-7.266964691225504,16.090768769849564
6.607351397338538,2.5665327023534963,5.584606137212715,0.008062311281094192,-7.20625616102987,15.679670161145808
6.633016724362072,2.4944701407431977,5.584686760325526,0.16485901289255228,-7.1827998984870165,15.278685598702129
6.657961425769504,2.4226421417583275,5.586335350454451,0.3176458688795736,-7.1948805477786895,14.886896372553313
6.6821878471870875,2.3506933362805404,5.589511809143247,0.46651483260510673,-7.240478684346504,14.503319756277898
6.7056947805498925,2.2782885494370753,5.5941769574692986,0.6115480301678857,-7.317392409959221,14.12708751310294
6.728477666044263,2.205114625337483,5.600292437770977,0.7528189052989152,-7.423319258094131,13.757560369120071
6.750528812297638,2.1308814327565417,5.607820626823966,0.8903945089901159,-7.555912739324961,13.394398169662228
6.771837626625204,2.0553223053632923,5.616724571913868,1.024338490686738,-7.712823200704618,13.037599231680424
6.792390849678837,1.9781940733562462,5.626967956820735,1.1547144830035423,-7.891729436701595,12.68751816740792
6.812172790412399,1.8992767789892302,5.63851510165077,1.2815896646776215,-8.090365249551741,12.344868594483588
6.831165558202291,1.8183731264937129,5.651330998297547,1.4050383506224573,-8.306543609560714,12.010715236768906
6.849349289467228,1.7353076903981057,5.665381381803771,1.5251455029901464,-8.538179997243693,11.686458653999276
6.866702366371209,1.6499258904256688,5.680632836833673,1.6420100895301393,-8.78331577121678,11.37381500355638
6.883201625275466,1.562092732713501,5.697052937728974,1.7557482395657031,-9.040141896309402,11.074792684644548
6.898822552602601,1.471691313750407,5.714610420124631,1.8664961664121487,-9.307023014312302,10.791667338947944
6.913539465740105,1.378621083607284,5.7332753817887525,1.974412839801628,-9.582521594169354,10.52695640719783
6.927325676576178,1.2827958676655906,5.7530195101867685,2.0796824038736066,-9.865421720614464,10.283394211911073
6.940153635252834,1.184141650459446,5.773816334225504,2.1825163459927173,-10.154751937919634,10.06390830783869
6.951995051757429,1.0825941310802496,5.795641497685431,2.2831554290711042,-10.449806427680953,9.871597572678985
6.962820993068231,0.9780960668034401,5.8184730519761425,2.381871404797894,-10.750163632508714,9.709712158667447
6.972601953736265,0.8705944304783529,5.842291766024122,2.4789685263845684,-11.055701199340374,9.581634939186578
6.981307898041049,0.7600374184849492,5.867081451287968,2.5747848757764342,-11.366605751383732,9.490863394612374
6.988908272225898,0.6463713609711119,5.892829300045732,2.669693509722558,-11.68337542942859,9.440989890573386
6.995371985835609,0.529537606676826,5.919526235142958,2.764103408628292,-12.006812262065319,9.435676867442941
7.000667361902377,0.40946948405617284,5.947167269229241,2.8584601773027214,-12.338000073165356,9.478621373198
7.004762056742939,0.2860894833245193,5.975751871002268,2.9532463910347015,-12.678261587741035,9.573500325852699
7.007622951576184,0.15930686744710892,6.0052843349126155,3.0489813942932287,-13.02908533011672,9.723883439649981
7.009216020250655,0.02901601414594171,6.035774148855547,3.1462202286897285,-13.392008363081041,9.93309425062624
7.009506180392115,-0.10490406948486872,6.067236351142444,3.245551171195991,-13.768434260932152,10.203990237770567
7.008457139697266,-0.24258841209419024,6.099691862854404,3.347591073573697,-14.159356107301228,10.53861946022052
7.006031255576325,-0.38418197316720254,6.133167773590141,3.452977268175902,-14.564940742730183,10.937691941075043
7.002189435844652,-0.5298313805945044,6.167697546271899,3.5623541875866525,-14.983911924011997,11.399777679847011
6.996891122038707,-0.6796704998346244,6.203321088147765,3.6763519643851224,-15.41264596645774,11.920108754679116
6.9900944170403605,-0.8337969594992017,6.2400846077916166,3.7955530519319134,-15.84386508674487,12.488821971312955
6.981756447445369,-0.9922356103666504,6.278040138310936,3.9204412716450427,-16.264786982475268,13.088438792924261
6.9718340913417025,-1.1548834801914032,6.317244551027386,4.051325659574285,-16.654580588367935,13.690363169957852
6.960285256539788,-1.3214292860750825,6.357757807623129,4.1882292912738635,-16.981024888323212,14.250236958813709
6.947070963679037,-1.4912395349583145,6.399640100535867,4.330731660862001,-17.196444894322752,14.70223065950122
6.932158568329454,-1.663203983901542,6.442947417144487,4.477753967457013,-17.23343561152326,14.952944792857005
6.915526528490439,-1.8355383400167746,6.487724956819057,4.627283415385583,-17.001758648798507,14.876804866219308
6.897171145090271,-2.00555592650476,6.533997790972912,4.776051464047776,-16.389236621009047,14.316838420899144
6.877115585825223,-2.16944829271485,6.58175830561339,4.919219848256767,-15.271244443183724,13.09721472273624
6.855421102898075,-2.3221607371466875,6.630950504095958,5.05019199548413,-13.534281564728603,11.055220343063388
6.832199495526607,-2.4575035527939737,6.681452424050799,5.160744198914763,-11.116316125320095,8.096561582761602
6.807624459998667,-2.5686667140471746,6.733059866039946,5.2417098147423795,-8.056797947695681,4.264380708973107
6.781937792858195,-2.6492346935241313,6.78547696418737,5.2843536218321105,-4.533512837885697,-0.20942186294194895
6.755445445922954,-2.6945698219029883,6.8383205004056915,5.2822594032026915,-0.8540135205632992,-4.9151307992713935
6.728499747703924,-2.7031099571086212,6.8911430944377186,5.233108095209977,2.6147161588045136,-9.36106465394076
6.701468648132837,-2.676962795520576,6.943474175389818,5.13949744867057,5.552881186419822,-13.11921203423137
6.6746990201776315,-2.621433983656378,6.994869149876524,5.008305328328256,7.773349568047677,-15.941583493921861
6.648484680341068,-2.543700487975901,7.044952203159807,4.848889493389038,9.24337922380769,-17.788977979608198
6.623047675461309,-2.451266695737824,7.093441098093697,4.6709997135929555,10.047298970443226,-18.779173799810813
6.598535008503931,-2.350793706033392,7.140151095229626,4.483207975594848,10.326599548928481,-19.104935468073172
6.575027071443597,-2.2475277105441074,7.184983174985574,4.292158620914116,10.23004171963857,-18.966424120793867
6.552551794338156,-2.145227293347722,7.227904761194716,4.102494379706178,9.885757373954146,-18.53400326625222
6.531099521404679,-2.0463697196081805,7.268929704991778,3.9171543470436556,9.391974515665892,-17.93645116047893
6.510635824208597,-1.9524499744515216,7.308101248462214,3.7377898354388663,8.818385478650935,-17.263478294074847
6.4911113244640815,-1.8642661196650123,7.3454791468166025,3.5651550524981177,8.211695549339217,-16.57369356404939
6.472468663267431,-1.78214916417162,7.381130697341583,3.399418116857624,7.601737754719822,-15.903137936405882
6.454647171625715,-1.7061317866244219,7.415124878510159,3.240386737493565,7.0066628510398425,-15.272421660074214
6.437585853759471,-1.6360651581140235,7.447528745885095,3.0876625208928226,6.436854581499398,-14.69204652189343
6.421225202178331,-1.5716966122990295,7.4784053710940235,2.9407420556738884,5.897696042875349,-14.166124903781405
6.405508236055341,-1.512719651870276,7.507812791650762,2.7990808066360744,5.391446901294814,-13.694873916799455
6.390381039536638,-1.4588051828573279,7.535803599717123,2.6621320674680797,4.918483087302598,-13.27624066351822
6.375792987708064,-1.4096203519843018,7.562424920391804,2.5293696608328977,4.478098898311958,-12.906937319770327
6.361696784188221,-1.3648393630011821,7.5877186170001325,2.4003002876351944,4.069016666702971,-12.583086186264076
6.348048390558209,-1.3241491963341525,7.6117216198764845,2.2744694257725535,3.689704379175034,-12.300611817211648
6.334806898594867,-1.287252152542402,7.63446631413421,2.1514633076004372,3.338568725088757,-12.055471541700337
6.321934377069443,-1.2538664652915146,7.655980947210215,2.030908592183434,3.0140681523819373,-11.843784129014901
6.309395712416528,-1.2237257837676951,7.676290033132049,1.912470750893285,2.7147750601575638,-11.661895234106582
6.297158454578851,-1.1965780331661195,7.695414740640982,1.795851798552219,2.4394060214645803,-11.506404385981806
6.285192674247189,-1.1721839729514738,7.713373258626504,1.680787754692401,2.1868322218202056,-11.37416926669004
6.273470834517674,-1.1503156507332717,7.730181136173428,1.5670460620255007,1.9560779317053558,-11.262297211816461
6.2619676780103415,-1.130754871416218,7.745851596793683,1.454423089907336,1.7463119996543333,-11.168130128695385
6.250660129296179,-1.1132917514196747,7.760395827692756,1.3427417886203823,1.5568355221696764,-11.089226640388459
6.239527211781982,-1.097723396197978,7.77382324557896,1.2318495222164978,1.3870676668584754,-11.023343742741696
6.228549977820002,-1.0838527195293932,7.786141740801125,1.1216160847890808,1.236530867342873,-10.968419298583397
6.217711450624708,-1.0714874108559644,7.797357901649016,1.011931891803247,1.1048361241328664,-10.922556087510046
6.206996576516148,-1.0604390496146359,7.807477220567049,0.9027063309281464,0.9916688383706629,-10.884007753109513
6.1963921860200015,-1.0505223612309291,7.81650428387633,0.7938662533970513,0.896775412590007,-10.851166759173925
6.185886962407692,-1.041554607105029,7.8244429464103,0.685354585805312,0.8199507337383962,-10.822554329286055
6.1754714163366415,-1.033355099767645,7.831296492268353,0.5771290425124516,0.761026582273874,-10.796812265962277
6.1651378653389655,-1.0257448339449062,7.837067782693477,0.4691609198528288,0.7198609700124572,-10.772696504376146
6.154880416999516,-1.0185462242447816,7.841759391892006,0.36143395480906737,0.6963283874417574,-10.749072237518222
6.144694954757068,-1.011582940370364,7.845373731440096,0.25394323243388517,0.6903109312495711,-10.724910445482724
6.134579125353365,-1.0046798310578684,7.847913163764435,0.14669412797905793,0.7016902802489314,-10.699285665674527
6.124532327042786,-0.9976629282553791,7.849380105044226,0.03970127132231266,0.7303404898192651,-10.671374849446687
6.114555697760232,-0.9903595233571864,7.849777117757449,-0.06701247717215422,0.7761215796495315,-10.64045716168386
6.10465210252666,-0.982598307560691,7.849106992985727,-0.17341704878899283,0.8388738959144971,-10.605914591661154
6.094826119451053,-0.9742095686015461,7.847372822497838,-0.27947619470560436,0.9184132364587556,-10.567233255195383
6.085084023765037,-0.9650254362369585,7.8445780605507816,-0.3851485272575582,1.0145267358101757,-10.524005279086726
6.075433769402667,-0.9548801688788567,7.840726575278206,-0.49038858004842545,1.1269695157627155,-10.47593116879243
6.065884967713878,-0.9436104737212296,7.835822689477721,-0.5951478917363497,1.2554621167953153,-10.422822569041283
6.056448862976666,-0.9310558525532765,7.829871210560358,-0.6993761174267625,1.3996887356708136,-10.364605334715097
6.047138304451133,-0.9170589651965684,7.822877449386091,-0.8030221707739135,1.5592963050871576,-10.301322835982234
6.0379677147991675,-0.9014660021456968,7.814847227678352,-0.9060353991337358,1.733894462060641,-10.23313942772439
6.028953054777711,-0.8841270575250905,7.805786873687015,-1.0083667934109797,1.9230564625479831,-10.160344019282887
6.02011178420246,-0.8648964928996107,7.795703205752905,-1.1099702336038086,2.126321110313731,-10.083353687169923
6.011462819273464,-0.8436332817964733,7.784603503416867,-1.210803770475508,2.34319577780072,-10.002717281517652
6.003026486455499,-0.8202013240184661,7.772495465712112,-1.3108309432906844,2.573160605300066,-9.919118987694738
5.994824473215314,-0.7944697179654655,7.759387156279205,-1.4100221331676317,2.8156739715780716,-9.833381818839992
5.98687977603566,-0.7663129782496848,7.745286934947528,-1.5083559513560316,3.070179333889636,-9.74647103424109
5.979216646253163,-0.7356111849107885,7.730203375433968,-1.6058206616984425,3.3361135376963174,-9.65949750371764
5.971860534404056,-0.7022500495338253,7.714145168816984,-1.702415636735619,3.6129166962975763,-9.573721070567785
5.964838033908717,-0.6661208825708496,7.697121012449627,-1.7981528474412967,3.900043738098651,-9.4905540061627
5.958176825083009,-0.6271204451898631,7.679139483975214,-1.8930583875029237,4.196977714780676,-9.41156469863257
5.95190562063111,-0.5851506680420563,7.6602089001001845,-1.9871740344892495,4.503244957904263,-9.338481776654364
5.946054113950689,-0.5401182184630137,7.640337159755292,-2.080558852255793,4.818432165426549,-9.273198937071951
5.940652931766059,-0.49193389680874816,7.619531571232734,-2.1732908416265126,5.142205494380016,-9.217780821365894
5.9357335927979715,-0.440511841864948,7.597798662816469,-2.2654686498401717,5.474331732684245,-9.174470369589159
5.931328474379322,-0.38576852453810556,7.575143976318068,-2.3572133535360633,5.814701622585668,-9.145698169160829
5.927470789133941,-0.3276215083122489,7.551571842782708,-2.4486703352276717,6.1633554106421204,-9.134094406495484
5.924194574050818,-0.2659879542058277,7.527085139430431,-2.5400112792926266,6.5205107031373695,-9.142504116627885
5.92153469450876,-0.20078284717445402,7.501685026637505,-2.6314363204589055,6.886592707454936,-9.174006501646506
5.919526866037016,-0.13191692009990466,7.475370663432916,-2.7231763854753708,7.262266931226491,-9.231939140016236
5.918207696836017,-0.05929425078763975,7.448138899578161,-2.815495776875533,7.648474377239148,-9.31992791507524
5.917614754328141,0.017190492984751726,7.419983941809406,-2.9086950560262856,8.04646918760933,-9.441923418493637
5.917786659257988,0.09765518486084504,7.390896991249143,-3.0031142902112222,8.4578585128452,-9.602244378146308
5.918763211106596,0.18223376998929705,7.36086584834703,-3.0991367339926854,8.884644039688208,-9.805628228959751
5.920585548806489,0.27108021038617913,7.329874481007104,-3.197193016282283,9.329263990966936,-10.057288140342784
5.923296350910351,0.3643728502958485,7.297902550844281,-3.2977658976857107,9.794633323665865,-10.362974388310827
5.92694007941331,0.4623191835325071,7.264924891867424,-3.401395641568819,10.284177992784233,-10.729035507972258
5.931563271248635,0.5651609634603495,7.230910935451736,-3.5086859966485413,10.801856020959827,-11.162470512885674
5.937214880883238,0.6731795236699478,7.195824075485251,-3.620310701777398,11.352152906274863,-11.670956519078155
5.943946676119938,0.7867010527326964,7.159620968467477,-3.7370202669681793,11.94003029177345,-12.26282455120898
5.951813686647265,0.9061013556504309,7.122250765797795,-3.8596485124802693,12.570792664360143,-12.94693717253613
5.960874700203769,1.0318092822940323,7.0836542806729925,-3.9891178842056307,13.249813691758899,-13.732390062842907
5.9711927930267095,1.1643074192116214,7.043763101830936,-4.12644178483406,13.982026165008655,-14.627908100110766
5.982835867218825,1.304127680861708,7.002498683982595,-4.272720865835168,14.771018960479015,-15.640722998211665
5.9958771440274425,1.451837870466498,6.959771475324243,-4.429128095817284,15.617488718658677,-16.774586685026286
6.010395522732107,1.6080127576530847,6.91548019436607,-4.596873962667547,16.516647266785764,-18.02636956606777
6.0264756503086385,1.7731792303209424,6.869511454739395,-4.777137658328225,17.453973628482412,-19.38039366119643
6.044207442611848,1.9477189666057666,6.821740078156113,-4.9709415949401885,18.398426587959683,-20.79926086080916
6.063684632277905,2.1317032324853633,6.772030662206711,-5.17893420354828,19.291977079752353,-22.209557686908116
6.085001664602759,2.3246230032828867,6.720241320171228,-5.401029780417361,20.034358136010663,-23.480829784419353
6.108247894635587,2.524966584642993,6.666231022367055,-5.635838078261555,20.463014232637384,-24.39765641657564
6.133497560482017,2.729596726969367,6.609872641584439,-5.879814642427312,20.33198614249945,-24.62977439640954
6.160793527751711,2.9329165883943613,6.551074495160166,-6.126112386391407,19.302461373314614,-23.717600449309302
6.190122693635654,3.1259412021275073,6.489813371296252,-6.3632883908845,16.973286645873717,-21.112117799659323
6.22138210565693,3.2956740685862442,6.426180487387407,-6.574409568881093,12.993520977724435,-16.327458441318935
6.254338846342792,3.4256092783634884,6.360436391698596,-6.737684153294282,7.278863653678393,-9.23694083114394
6.288594939126427,3.498397914900272,6.293059550165653,-6.830053561605721,0.2536441899058842,-0.4050489171402814
6.323578918275429,3.500934356799331,6.224759014549596,-6.834104050777124,-7.103015268340726,8.849833559359196
6.358588261843423,3.429904204115924,6.156417974041824,-6.745605715183532,-13.593151820105192,16.917508248614574
6.3928873038845815,3.2939726859148717,6.088961916889989,-6.576430632697386,-18.348756323816417,22.64639553197173
6.42582703074373,3.1104851226767076,6.023197610563015,-6.349966677377669,-21.14521957755631,25.764678007361965
6.4569318819704975,2.8990329269011443,5.959697943789238,-6.0923198973040495,-22.283893304999875,26.709470671893786
6.485922211239509,2.6761939938511454,5.898774744816198,-5.825225190585112,-22.27243919261009,26.185146269197627
6.5126841511780205,2.4534696019250446,5.840522492910346,-5.5633737278931354,-21.58129906653093,24.832906099688742
