th1 (rad),w1 (rad/s),th2 (rad),w2 (rad/s),a1 (rad/s^2),a2 (rad/s^2)
2.8115477427339166,1.996529403609806,1.8880213689433347,0.5154494821080408,-1.7519604467458225,-5.0747074546322635
2.8315130367700148,1.9790097991423479,1.8931758637644152,0.4647024075617181,-1.5313049080731331,-5.231005263075062
2.851303134761438,1.9636967500616165,1.8978228878400323,0.4123923549309675,-1.3194760118034834,-5.372436704092308
2.8709401022620544,1.9505019899435816,1.9019468113893419,0.3586679878900444,-1.116460237743276,-5.499417683459422
2.8904451221614904,1.9393373875661488,1.9055334912682422,0.30367381105545016,-0.9222342427143414,-5.61235319676927
2.909838496037152,1.9301150451390054,1.9085702293787967,0.24755027908775745,-0.7367608135227915,-5.711641909970501
2.929139646488542,1.9227474370037776,1.9110457321696743,0.19043385998805246,-0.559985122837646,-5.797680612709638
2.9483671208585798,1.9171475857754012,1.9129500707695548,0.13245705386095608,-0.3918313240991038,-5.870868402651219
2.967538596716334,1.9132292725344102,1.9142746413081644,0.07374836983444388,-0.2321995228094978,-5.931610469143386
2.986670889441678,1.9109072773063152,1.9150121250065089,0.01443226514301002,-0.08096316060155336,-5.980321356668243
3.0057799622147408,1.9100976457002996,1.915156447657939,-0.04537094842367242,0.06203315512827719,-6.017427603052428
3.024880938671744,1.9107179772515823,1.9147027381737023,-0.1055452244541967,0.19697534968017233,-6.043369664619559
3.04398811844426,1.912687730748384,1.9136472859291602,-0.16597892110039228,0.3240810904884456,-6.058603060187362
3.063114995751744,1.9159285416532685,1.9119874967181563,-0.2265649517022659,0.44360050212809343,-6.063598687569482
3.0822742811682766,1.9203645466745494,1.9097218472011337,-0.2872009385779607,0.555816395180218,-6.058842289278915
3.101477926635022,1.9259227106263515,1.906849837815354,-0.34778936147074985,0.6610440322835011,-6.044833067482644
3.1207371537412856,1.9325331509491865,1.9033719442006465,-0.40823769214557626,0.759630470324682,-6.022081470831406
3.1400624852507772,1.9401294556524333,1.8992895672791907,-0.46845850685389034,0.8519535331454867,-5.99110619645192
3.1594637798073015,1.9486489909838882,1.8946049822106519,-0.5283695688184096,0.9384204836019815,-5.952430468060144
3.1789502697171406,1.958033195819908,1.8893212865224678,-0.587893873499011,1.019466476625541,-5.906577664888407
3.1985306016753396,1.9682278605861634,1.8834423477874778,-0.6469596501478951,1.0955528855596843,-5.854066385180827
3.218212880281201,1.9791833894417603,1.8769727512859988,-0.7055003139997034,1.1671656021141097,-5.7954050319240675
3.2380047141756187,1.9908550454629015,1.8699177481460019,-0.7634543643189441,1.234813415609343,-5.731086007058774
3.2579132646302478,2.003203179618995,1.8622832045028124,-0.8207652243895318,1.299026579798246,-5.661579593771009
3.2779452964264375,2.0161934454169774,1.854075552258917,-0.8773810203272419,1.3603556756339024,-5.587327594983108
3.2981072308806074,2.0297970021733165,1.8453017420556446,-0.9332542962770729,1.4193708762343158,-5.508736780490464
3.3184052009023404,2.0439907109356596,1.835969199092874,-0.9883416640819775,1.4766617163865514,-5.426172176176001
3.338845108011697,2.0587573280995253,1.8260857824520542,-1.0426033858437376,1.532837463672922,-5.3399502074015786
3.3594326812926925,2.0740857027362547,1.8156597485936168,-1.0960028879177535,1.5885281820753827,-5.250331686195982
3.380173538320055,2.0899709845570085,1.8046997197144392,-1.1485062047797132,1.6443865719754773,-5.157514609544531
3.4010732481656247,2.1064148502767632,1.7932146576666421,-1.2000813508751584,1.7010906628445521,-5.061626715419186
3.4221373966683926,2.123425756905209,1.7812138441578906,-1.2506976180293503,1.759347426311064,-4.962717725898503
3.4433716542374446,2.1410192311683196,1.7687068679775972,-1.3003247952883354,1.819897366939371,-4.860751194921307
3.464781846549128,2.159218204837713,1.7557036200247138,-1.3489323072375485,1.8835201345816284,-4.755595874587672
3.4863740285975053,2.1780534061835293,1.7422142969523384,-1.3964882659834252,1.9510411833743286,-4.647016522042908
3.5081545626593407,2.1975638180172727,1.7282494142925042,-1.4429584312038544,2.023339475055322,-4.534664093729697
3.5301302008395132,2.217797212767826,1.7138198299804657,-1.4883050721411513,2.101356183538917,-4.4180653219015795
3.5523081729671917,2.2388107746032153,1.6989367792590542,-1.5324857253601671,2.1861042969540114,-4.296611749073728
3.5746962807132237,2.2606718175727556,1.6836119220054524,-1.5754518428509043,2.278678923456966,-4.169548422372713
3.597302998888951,2.2834586068073253,1.6678574035769433,-1.6171473270746315,2.380267975656454,-4.035962639020329
3.6201375849570243,2.30726128656389,1.651685930306197,-1.6575069534648348,2.492162718889838,-3.894773409922448
3.6432101978226634,2.3321829137527885,1.6351108607715488,-1.6964546875640594,2.6157673992847785,-3.7447227014315394
3.666532026960191,2.3583405877456363,1.6181463138959082,-1.7339019145783747,2.752606791093848,-3.5843700654192894
3.6901154328376475,2.385866655656575,1.6008072947501244,-1.7697456152325677,2.9043299856003197,-3.4120930237866394
3.713974099394213,2.414909955512578,1.5831098385977986,-1.8038665454704341,3.0727080470064156,-3.2260965927772003
3.738123198949339,2.4456370359826423,1.5650711731430942,-1.836127511398206,3.2596222429683173,-3.0244366763863697
3.7625795693091657,2.4782332584123252,1.546709898029112,-1.8663718781620697,3.4670383828415092,-2.8050637820105067
3.787361901893289,2.5129036422407403,1.5280461792474913,-1.8944225159821748,3.696961349017884,-2.5658956435804057
3.8124909383156966,2.549873255730919,1.5091019540876696,-1.9200814724179789,3.9513622155919066,-2.3049298418066297
3.837989670873006,2.589386877886838,1.4899011393634898,-1.9431307708360452,4.232068532539085,-2.0204102253552723
3.8638835396518743,2.631707563212229,1.4704698316551292,-1.9633348730895979,4.540606686056178,-1.7110634758219874
3.8902006152839967,2.6771136300727907,1.4508364829242333,-1.9804455078478178,4.8779842472995885,-1.3764237803779866
3.9169717515847244,2.7258934725457866,1.4310320278457551,-1.9942097456515977,5.2444007738908,-1.0172630091500832
3.944230686310182,2.7783374802846947,1.4110899303892392,-2.0043823757430985,5.638878983669494,-0.636139075166307
3.972014061113029,2.8347262701213896,1.3910461066318083,-2.0107437664947616,6.058816446023667,-0.2380635454349409
4.000361323814243,2.895314434581626,1.3709386689668606,-2.013124401949111,6.499473173054819,0.1687322514906657
4.0293144681600594,2.9603091663121743,1.3508074249473694,-2.011437079434204,6.953434832334187,0.5719885909611733
4.058917559823181,3.029843514635516,1.3306930541530273,-2.005717193524592,7.410125554770811,0.9546721711183266
4.089215994969536,3.103944770183224,1.3106358822177815,-1.9961704718134088,7.855486108460846,1.294462040334416
4.120255442671368,3.1824996312678326,1.2906741774996473,-1.9832258514100647,8.271974558946418,1.5636963172177558
4.152080438984046,3.265219376857297,1.2708419189855467,-1.9675888882378871,8.639071779453115,1.730049126807881
4.1847326327526195,3.351610094651828,1.2511660301031677,-1.9502883969698084,8.93446039650318,1.7581909227786494
4.218248733699138,3.44095469861686,1.2316631461334697,-1.932706487742022,9.135968393084985,1.6125761465513762
4.252658280685306,3.53231438254771,1.2123360812560495,-1.9165807262765082,9.224213977667427,1.2612778618153755
4.287981424510783,3.6245565223243843,1.1931702739932843,-1.9039679476583544,9.185670786124945,0.6804676727622245
4.324226989734027,3.716413230185634,1.1741305945167009,-1.8971632709307322,9.015646843294013,-0.141201184610715
4.361391122035883,3.806569698618574,1.1551589618073936,-1.8985752827768394,8.720526447706288,-1.19927786166772
4.399456819022069,3.893774963095637,1.1361732089796253,-1.9105680613935165,8.318652295507736,-2.472213222295607
4.438394568653025,3.9769614860507145,1.1170675283656901,-1.9352901936164726,7.83946698236657,-3.9226813941873186
4.478164183513532,4.05535615587438,1.0977146264295254,-1.9745170075583458,7.320940214114711,-5.501532325077437
4.5187177450722755,4.128565558015527,1.077969456353942,-2.02953233080912,6.805747788607775,-7.153721002943788
4.56000340065243,4.196623035901605,1.0576741330458508,-2.1010695408385582,6.336980679991068,-8.82507180855113
4.601969631011446,4.259992842701516,1.0366634376374653,-2.1893202589240697,5.954238582421696,-10.468598149638684
4.6445695594384615,4.319535228525733,1.0147702350482246,-2.2940062404204564,5.690794682861819,-12.04933243214988
4.687764911723719,4.376443175354351,0.9918301726440201,-2.414499564741955,5.572194367944249,-13.54710816219054
4.731529343477263,4.432165119033793,0.9676851769966005,-2.5499706463638607,5.616299073303069,-14.957282038407323
4.775850994667601,4.488328109766823,0.9421854705329619,-2.699543466747934,5.83451751020151,-16.28981858730349
4.820734275765269,4.546673284868838,0.9151900358654825,-2.862441652620969,6.233834387464917,-17.567394214489614
4.866201008613958,4.609011628743487,0.8865656193392728,-3.038115594765865,6.819247939197831,-18.823212460190323
4.912291124901393,4.677204108135466,0.8561844633916141,-3.226347719367768,7.596321846567991,-20.0991189851852
4.959063165982748,4.753167326601146,0.8239209861979364,-3.4273389092196203,8.57369454157071,-21.444443751606745
5.006594839248759,4.838904272016853,0.7896475971057402,-3.6417833467356875,9.765529340873385,-22.91584692614856
5.054983881968928,4.936559565425587,0.7532297636383833,-3.870941815997173,11.194010096294074,-24.578345284199518
5.104349477623184,5.048499666388528,0.7145203454784116,-4.1167252688391685,12.892082436882731,-26.507660904858138
5.154834474287069,5.177420490757355,0.6733530927900199,-4.381801877887749,14.906710508491775,-28.794053955031632
5.206608679194643,5.3264875958422735,0.6295350740111424,-4.669742417438066,17.302955829400016,-31.547840878458242
5.2598735551530655,5.4995171541362735,0.5828376498367618,-4.9852208262226485,20.169145147817694,-34.90677169674347
5.314868726694428,5.70120860561445,0.5329854415745353,-5.334288543190083,23.623133436141778,-39.04512353320512
5.371880812750573,5.937439939975868,0.47964255614263446,-5.724739778522134,27.818769405054205,-44.18316819096598
5.431255212150331,6.2156276340264105,0.4223951583574131,-6.166571460431794,32.94898284105841,-50.59197793019849
5.493411488490596,6.545117462436995,0.3607294437530951,-6.6724912397337794,39.234303923131726,-58.57796942048184
5.558862663114965,6.937460501668312,0.2940045313557573,-7.258270933938598,46.86473816059781,-68.40245754663053
5.628237268131648,7.40610788327429,0.22142182201637134,-7.942295509404904,55.807757515874236,-80.01434956477448
5.70229834696439,7.9641854584330325,0.1419988669223223,-8.742439005052649,65.26272234675665,-92.28846919064335
5.7819402015487205,8.6168126819006,0.05457447687179581,-9.665323696959083,72.31137959536574,-101.13775000341414
5.868108328367726,9.339926477854256,-0.042078760097795015,-10.676701196993225,69.44140953973468,-96.04324353681444
5.961507593146269,10.034340573251603,-0.14884577206772726,-11.637133632361369,43.815885458165205,-59.025389243686746
6.061850998878785,10.472499427833254,-0.26521710839134094,-12.227387524798237,-9.610338664265868,16.98107553582902
6.166575993157117,10.376396041190596,-0.3874909836393233,-12.057576769439947,-63.40968477671112,93.61091011299095
6.270339953569024,9.742299193423484,-0.5080667513337228,-11.121467668310038,-83.54152961173806,123.37761836716115
6.367762945503259,8.906883897306104,-0.6192814280168232,-9.887691484638426,-76.40373103132673,115.27605493375599
6.45683178447632,8.142846586992837,-0.7181583428632075,-8.734930935300866,-61.79444560351603,96.85554768829674
6.538260250346248,7.524902130957677,-0.8055076522162161,-7.766375458417899,-48.34680669779136,80.09092483750827
6.613509271655825,7.0414340639797635,-0.8831714068003951,-6.965466210042816,-37.65574038588675,67.19340166138126
6.683923612295622,6.664876660120896,-0.9528260689008232,-6.293532193429003,-29.379350602667262,57.69620552105557
6.750572378896831,6.371083154094223,-1.0157613908351133,-5.716570138218447,-22.914380106311487,50.76955835212195
6.8142832104377735,6.141939353031108,-1.0729270922172978,-5.2088745546972275,-17.76269166405991,45.72277359609402
6.875702603968085,5.964312436390509,-1.12501583776427,-4.751646818736287,-13.566533041763043,42.04945165216995
6.93534572833199,5.828647105972879,-1.1725323059516328,-4.331152302214587,-10.080090243546136,39.385104344939286
6.993632199391719,5.727846203537418,-1.2158438289737787,-3.9373012587651943,-7.138527483855553,37.46137767282859
7.0509106614270936,5.656460928698862,-1.2552168415614307,-3.5626874820369085,-4.635000625539803,36.0713969142925
7.107475270714082,5.6101109224434635,-1.2908437163817998,-3.2019735128939835,-2.5050089736494985,35.04577133917272
7.163576379938517,5.585060832706969,-1.3228634515107396,-2.8515157995022564,-0.7157114495873973,34.23672949044252
7.219426988265587,5.577903718211095,-1.351378609505762,-2.5091485045978312,0.7419319834418587,33.50846202481142
7.275206025447698,5.585323038045514,-1.3764700945517403,-2.174063884349717,1.85982365675773,32.73259196156614
7.331059255828153,5.603921274613091,-1.3982107333952374,-1.8467379647340554,2.619332813784537,31.78821898252027
7.387098468574284,5.630114602750936,-1.4166781130425778,-1.5288557749088527,2.9984679828266674,30.56607395322291
7.443399614601794,5.6600992825792025,-1.4319666707916663,-1.2231950353766237,2.979660022782037,28.97597481976564
7.500000607427586,5.689895882807023,-1.4441986211454325,-0.9334352871789673,2.5575639480768326,26.956113211217374
7.556899566255656,5.715471522287792,-1.4535329740172223,-0.6638741550667935,1.7457386781077122,24.481992579207553
7.614054281478534,5.732928909068868,-1.4601717155678902,-0.4190542292747179,0.5808184506182655,21.572472245644313
7.671383570569223,5.738737093575051,-1.4643622578606372,-0.20332950681827477,-0.8769667878658558,18.290699659274374
7.7287709415049735,5.729967425696393,-1.46639555292882,-0.020422510225531043,-2.5473234397932427,14.73882910653148
7.786070615761937,5.704494191298461,-1.4665997780310753,0.12696578083978374,-4.336880136385397,11.047029813997348
7.843115557674921,5.6611253899346075,-1.4653301202226774,0.23743607897975721,-6.148168673546525,7.35878695339069
7.899726811574268,5.599643703199142,-1.46295575943288,0.3110239485136641,-7.888765293609676,3.815321560622094
7.955723248606259,5.520756050263045,-1.4598455199477434,0.34917716411988503,-9.478964897463355,0.5418601801986962
8.01093080910889,5.425966401288411,-1.4563537483065445,0.354595765921872,-10.856978034112505,-2.3623416820609373
8.065190473121774,5.317396620947286,-1.4528077906473258,0.3309723491012626,-11.981361909579656,-4.8294365777535315
8.118364439331247,5.1975830018514895,-1.4494980671563131,0.2826779833237273,-12.83096640280976,-6.824085826460938
8.170340269349762,5.069273337823392,-1.4466712873230758,0.2144371250591179,-13.402987906954118,-8.341062124638311
8.221033002727996,4.935243458753851,-1.4445269160724847,0.13102650381273478,-13.709806407426155,-9.400457549487188
8.270385437315534,4.798145394679589,-1.4432166510343574,0.03702192831786291,-13.775223442161248,-10.041597057693526
8.31836689126233,4.660393160257977,-1.4428464317511787,-0.06339404225907234,-13.630602385826732,-10.316604388370674
8.36497082286491,4.524087136399709,-1.4434803721737695,-0.1665600861427791,-13.311284899839697,-10.284349826924883
8.410211694228908,4.3909742874013125,-1.4451459730351972,-0.26940358441202794,-12.853535522017733,-10.005275366811532
8.45412143710292,4.262438932181135,-1.4478400088793175,-0.3694563380801433,-12.292154151756117,-9.537368546062766
8.496745826424732,4.139517390663574,-1.451534572260119,-0.46483002354077096,-11.65879672069906,-8.93336004254893
8.538141000331368,4.022929423456583,-1.4561828724955266,-0.5541636239662603,-10.980963295333106,-8.239066825283897
8.578370294565934,3.913119790503252,-1.461724508735189,-0.6365542922190992,-10.281555972553635,-7.492701220316159
8.617501492470966,3.810304230777716,-1.46809005165738,-0.7114813044222608,-9.578878573490453,-6.724916959348579
8.655604534778742,3.7145154450428115,-1.4752048647016027,-0.7787304740157466,-8.886943960210616,-5.959358069946188
8.69274968922917,3.6256460054407054,-1.4829921694417603,-0.8383240547152084,-8.215966746925288,-5.213502084823877
8.729006149283578,3.5434863379714523,-1.4913754099889123,-0.8904590755634472,-7.5729417426491406,-4.499631203784409
8.764441012663292,3.4677569205449608,-1.5002800007445467,-0.9354553876012912,-6.962234768011647,-3.825811683857616
8.799118581868742,3.398134572864844,-1.5096345546205596,-0.9737135044398674,-6.3861375161329486,-3.1968046435099
8.83309992759739,3.334273197703515,-1.5193716896649583,-1.0056815508749664,-5.8453590102890045,-2.6148663310704876
8.866442659574425,3.2758196076006247,-1.529428505173708,-1.0318302141856712,-5.339441901834225,-2.080421475217092
8.899200855650431,3.2224251885822826,-1.5397468073155647,-1.0526344289378422,-4.867102529056037,-1.5926102958435708
8.931425107536255,3.173754163291722,-1.550273151604943,-1.0685605318962779,-4.4265001474143,-1.1497197359629923
8.963162649169172,3.1294891618175793,-1.5609587569239058,-1.0800577292559077,-4.01544408349456,-0.7495143424400388
8.994457540787348,3.0893347209826336,-1.5717593342164649,-1.087552872680308,-3.631548747437508,-0.3894836676412265
9.025350887997174,3.0530192335082584,-1.5826348629432678,-1.0914477093567203,-3.272346273825958,-0.06702243397352012
9.055881080332256,3.020295770769999,-1.593549340036835,-1.0921179336964555,-2.935365652288615,0.22044202468458787
9.086084038039957,2.9909421142471126,-1.6044705193737996,-1.0899135134496096,-2.618185968401248,0.47536270546004966
9.115993459182429,2.9647602545631,-1.6153696545082956,-1.0851598863950092,-2.3184700618805505,0.7000161468767584
9.14564106172806,2.9415755539442947,-1.6262212533722458,-1.0781597249262416,-2.0339836701877365,0.8964678439294573
9.175056817267503,2.9212357172424173,-1.6370028506215082,-1.069195046486947,-1.76260403384242,1.066553586625291
9.204269174439927,2.903609676903993,-1.6476948010863777,-1.0585295106206942,-1.5023210200843287,1.2118719243829927
9.233305271208968,2.88858646670315,-1.6582800961925845,-1.0464107913768643,-1.2512330718101465,1.3337841568770474
9.262191135876,2.8760741359850486,-1.6687442041063532,-1.033072949808094,-1.0075396927687463,1.4334191975800925
9.29095187723585,2.865998739057361,-1.6790749336044342,-1.018738757832293,-0.769531715986691,1.5116813894704388
9.319611864626424,2.858303421897494,-1.689262321182757,-1.0036219439375886,-0.5355802477037931,1.5692599133032452
9.3481948988454,2.852947619420456,-1.699298540622133,-0.9879293448045562,-0.3041249129401161,1.6066388542258558
9.376724375039604,2.849906370291055,-1.7091778340701786,-0.9718629562622976,-0.07366183344055484,1.6241073143037472
9.405223438742514,2.8491697519566492,-1.7188964636328017,-0.9556218831192601,0.1572683701476163,1.621769203813482
9.43371513626208,2.8507424356581255,-1.7284526824639943,-0.9394041910811253,0.3900923532541653,1.5995525358100893
9.462222560618661,2.8546433591906673,-1.7378467243748055,-0.9234086657230244,0.6262154560277715,1.5572182060645903
9.490768994210567,2.860905513750945,-1.7470808110320357,-0.9078364836623785,0.8670326234605789,1.494368381426992
9.519378049348077,2.869575839985551,-1.7561591758686594,-0.8928927998481085,1.1139387034918946,1.41045476054275
9.548073807747933,2.88071522702047,-1.7650881038671404,-0.8787882522426811,1.3683379434644622,1.304787128650339
9.576880960018137,2.8943986064551144,-1.7738759863895672,-0.8657403809561777,1.6316524184925745,1.1765428219333338
9.605824946082688,2.9107151306400403,-1.782533390199129,-0.8539749527368443,1.9053289874592068,1.0247779693971957
9.634932097389088,2.929768420514632,-1.7910731397264974,-0.8437271730428724,2.1908441676244563,0.848441720214065
9.664229781594234,2.951676862190877,-1.799510411456926,-0.8352427558407317,2.4897060242807107,0.6463951291564187
