th1 (rad),w1 (rad/s),th2 (rad),w2 (rad/s),a1 (rad/s^2),a2 (rad/s^2)
6.1530365663613,-0.8293781508411647,2.879720399185488,2.376863074925938,0.6694882386581086,-1.9637745440662886
6.144742784852888,-0.8226832684545836,2.9034890299347476,2.357225329485275,0.8819686398707771,-1.5011772859438375
6.136515952168343,-0.8138635820558758,2.9270612832296004,2.3422135566258366,1.1050177746490577,-1.0287589640043162
6.128377316347784,-0.8028134043093853,2.9504834187958586,2.3319259669857937,1.334092301410159,-0.5516688836637128
6.1203491823046905,-0.7894724812952837,2.9738026784657166,2.3264092781491565,1.5645704876418478,-0.07517322195579153
6.112454457491737,-0.7738267764188652,2.997066771247208,2.3256575459295985,1.7918840549587691,0.3955307331676882
6.104716189727549,-0.7559079358692775,3.0203233467065043,2.3296128532612754,2.0116438398166196,0.8554914042569199
6.097157110368856,-0.7357914974711113,3.043619475239117,2.338167767303845,2.2197527334469123,1.3001612406980347
6.0897991953941455,-0.7135939701366422,3.0670011529121552,2.351169379710825,2.4125006228494503,1.7255287847428307
6.082663255692779,-0.6894689639081477,3.0905128467092635,2.368424667558253,2.586637635759273,2.12821907947569
6.075768566053697,-0.663602587550555,3.114197093384846,2.38970685835301,2.739423717470352,2.5055595916495235
6.069132540178192,-0.6362083503758514,3.138094161968376,2.414762454269505,2.868654263600787,2.855611376680063
6.062770456674433,-0.6075218077398435,3.1622417865110712,2.4433185680363056,2.97266305327714,3.1771675079126447
6.056695238597034,-0.5777951772070722,3.1866749721914345,2.475090243115432,3.0503049630467007,3.4697226530231995
6.050917286824963,-0.5472921275766052,3.2114258746225888,2.509787469645664,3.100921828364997,3.7334190022295113
6.045444365549197,-0.5162829092929552,3.2365237493190455,2.547121659667959,3.124295335547735,3.9689745011633186
6.040281536456267,-0.48503995593747784,3.2619949659157252,2.5868114046795925,3.120590989590065,4.177599543109747
6.035431136896892,-0.4538340460415772,3.2878630799625213,2.62858740011069,3.0902970587815735,4.360908006206846
6.0308927964364765,-0.42293107545376146,3.314148953963628,2.6721964801727585,3.03416201148294,4.520827887512176
6.026663485681939,-0.3925894553389321,3.3408709187653556,2.7174047590478803,2.953133408691301,4.659515907770212
6.02273759112855,-0.3630581212520191,3.3680449663558343,2.7639999181255823,2.8483005727619046,4.779279456888066
6.01910700991603,-0.33457511552440006,3.39568496553709,2.811792712694463,2.7208426849419975,4.882508225723888
6.015761258760786,-0.30736668867498007,3.4238028926640345,2.8606177949517018,2.571983326759982,4.971616908802435
6.012687591874036,-0.28164685540738027,3.4524090706135513,2.9103339640397263,2.4029519123704106,5.048999524274508
6.009871123319962,-0.25761733628367617,3.4815124102539485,2.960823959282471,2.2149519850153907,5.116995216514233
6.007294949957125,-0.23546781643352227,3.5111206498467733,3.0119939114476137,2.0091359813594227,5.17786489612508
6.00494027179279,-0.21537645661992805,3.5412405889612493,3.0637725604088644,1.786585801865993,5.23377772746259
6.002786507226591,-0.19751059860126813,3.571878314565338,3.1161103376834904,1.5482983546738442,5.286806278623308
6.000811401240578,-0.1820276150545297,3.603039417942173,3.1689784004697237,1.2951751504897027,5.338929079615107
5.998991125090033,-0.16907586354963267,3.6347292019468704,3.222367691265875,1.028015000244762,5.392039364700449
5.997300366454536,-0.15879571354718505,3.6669528788595294,3.2762880849128795,0.7475088887008051,5.447958878743203
5.995712409319064,-0.151320624660177,3.699715759708658,3.3307676737003113,0.45423615000519485,5.508455781559818
5.994199203072462,-0.14677826316012507,3.733023436445661,3.3858522315159094,0.14866114157975371,5.575265869545336
5.992731420440861,-0.14529165174432754,3.76688195876082,3.4416048902113627,-0.16887031067491656,5.6501165354891025
5.991278503923418,-0.14698035485107672,3.801298007662934,3.4981060555662538,-0.4981353489525945,5.734753095229755
5.989808700374907,-0.15196170834060266,3.8362790682185963,3.5554535865185515,-0.8390399903266973,5.830967317345901
5.988289083291502,-0.16035210824386964,3.8718336040837817,3.6137632596920106,-1.1916270414133914,5.9406281965234085
5.986685562209063,-0.17226837865800354,3.907971236680702,3.6731695416572445,-1.5560865246720745,6.065715212294873
5.984962878422483,-0.18782924390472427,3.9447029320972744,3.7338266937801934,-1.9327691046308926,6.208354514068843
5.983084585983436,-0.2071569349510332,3.982041199035076,3.795910238920882,-2.3222030055402794,6.37085867332533
5.981013016633925,-0.230378965006436,4.020000301424285,3.859618825654135,-2.725114932608591,6.555770847159976
5.978709226983861,-0.2576301143325219,4.058596489680826,3.9251765341257348,-3.1424555436982895,6.765914405376248
5.9761329258405365,-0.28905466976950484,4.097848255022083,3.9928356781794974,-3.57543006042227,7.004449284245252
5.9732423791428415,-0.3248089703737275,4.137776611803878,4.06288017102195,-4.025534644536047,7.274936535777159
5.9699942894391045,-0.365064316819088,4.178405413514098,4.135629536379722,-4.494599175140085,7.581412722232605
5.966343646270913,-0.41001030857048887,4.219761708877895,4.211443663602048,-4.9848370054282904,7.928475921448545
5.962243543185209,-0.45985867862477176,4.261876145513916,4.290728422816533,-5.4989020866215474,8.321385083062863
5.957644956398961,-0.5148476994909872,4.304783429742081,4.373942273647162,-6.0399534039293465,8.766174169575136
5.952496479404052,-0.5752472335302806,4.348522852478553,4.461604015342914,-6.6117257727323615,9.26978168029304
5.946744007068749,-0.6413644912576042,4.393138892631982,4.554301832145844,-7.21860434494949,9.840194350395343
5.940330362156173,-0.7135505347070991,4.438681910953441,4.6527037756497975,-7.865697077463724,10.486600268409338
5.933194856809102,-0.7922075054817364,4.485208948709938,4.757569778333891,-8.55889388590734,11.21954000928655
5.925272781754285,-0.8777964443408097,4.532784646493277,4.869765178426756,-9.304891470174743,12.051032269006612
5.916494817310877,-0.9708453590425572,4.581482298277544,4.990275501116822,-10.111145783793399,12.994628774609597
5.906786363720451,-1.0719568168804912,4.631385053288713,5.120221788862918,-10.985684537392652,14.06531472742125
5.896066795551646,-1.1818136622544178,4.682587271177342,5.260874936137131,-11.936660906168772,15.279103247926308
5.884248658929102,-1.3011802713161056,4.735196020538713,5.413665968616394,-12.971441396035654,16.652053922321358
5.8712368562159405,-1.4308946852764621,4.789332680224877,5.580186507839608,-14.09487028851949,18.19824112175653
5.856927909363176,-1.571843388161657,4.8451345453032735,5.762168919057173,-15.306100626559557,19.925851124445348
5.841209475481559,-1.7249043944272524,4.902756234493845,5.961427430301627,-16.592972161300253,21.830018544724425
5.823960431537286,-1.8908341160402549,4.9623705087968615,6.179727615748871,-17.92229478321919,23.880138272953268
5.805052090376884,-2.0700570638724467,5.02416778495435,6.418528998478404,-19.223580527901184,25.998220114373144
5.784351519738159,-2.2622928691514588,5.088353074939134,6.678511199622136,-20.36309541268976,28.023828908184047
5.761728591046644,-2.4659238232783562,5.155138186935355,6.958749488703976,-21.105884457476183,29.66204495731333
5.737069352813861,-2.676982667853118,5.224725681822395,7.255369938277109,-21.06931977972777,30.41871224409687
5.71029952613533,-2.8876758656503956,5.297279381205167,7.5595570607180775,-19.690336708070568,29.552556586677277
5.681422767478826,-3.0845792327311012,5.3728749518123475,7.85508262658485,-16.26819807225136,26.128302932641656
5.650576975151515,-3.2472612134536147,5.451425778078196,8.116365655911267,-10.190352522844696,19.318428959820057
5.618104363016979,-3.3491647386820618,5.532589434637309,8.309549945509467,-1.4060780192523725,9.043315481012707
5.584612715630159,-3.3632255188745854,5.615684934092403,8.399983100319593,9.076315533180187,-3.3569016497958346
5.550980460441413,-3.2724623635427834,5.699684765095599,8.366414083821635,19.279533758875615,-15.254078967084745
5.518255836805985,-3.079667025954027,5.783348905933815,8.213873294150787,27.24426467017126,-24.08049887812913
5.487459166546445,-2.8072243792523146,5.865487638875323,7.9730683053694955,32.10019421665832,-28.76689945643435
5.4593869227539225,-2.4862224370857313,5.945218321929018,7.685399310805152,34.18640959850084,-29.867535271842385
5.434524698383065,-2.1443583411007228,6.02207231503707,7.386723958086728,34.39940710018326,-28.64970875917572
5.413081114972058,-1.8003642700988902,6.095939554617937,7.100226870494971,33.590167308471294,-26.279322956679056
5.395077472271069,-1.4644625970141774,6.166941823322887,6.837433640928181,32.339642029072245,-23.534174530200307
5.380432846300927,-1.141066176723455,6.235316159732169,6.602091895626177,30.976520094525075,-20.84353042760616
5.3690221845336925,-0.8313009757782042,6.301337078688431,6.3936565913501155,29.660983112301917,-18.4100563434937
5.36070917477591,-0.534691144655185,6.365273644601932,6.209556027915179,28.456903107210927,-16.310708464285348
5.355362263329359,-0.2501221135830757,6.427369204881084,6.046448943272325,27.378125345037336,-14.55972620694891
5.352861042193528,0.023659139867297674,6.4878336943138075,5.900851681202836,26.41460701676669,-13.143208997019375
5.353097633592201,0.28780521003496456,6.546842211125836,5.769419591232642,25.546213713171262,-12.036647485359358
5.355975685692551,0.5432673471666771,6.604536407038162,5.649053116379048,24.7496848849167,-11.213192068952457
5.361408359164217,0.7907641960158441,6.661026938201952,5.536921195689524,24.002016637242978,-10.647157950498153
5.369316001124376,1.030784362388274,6.716396150158848,5.430449616184542,23.28203211257559,-10.315181346634645
5.3796238447482585,1.2636046835140298,6.770700646320693,5.327297802718196,22.57106525293529,-10.196274845812644
5.392259891583398,1.4893153360433826,6.823973624347874,5.22533505426007,21.853228203764704,-10.27141319368035
5.407153044943832,1.7078476180810296,6.876226974890475,5.122620922323266,21.115493380974534,-10.522964069346326
5.424231521124642,1.919002551890775,6.927453184113707,5.017391281629803,20.347697364765445,-10.934118404182108
5.44342154664355,2.1224795255384294,6.977627096930005,4.9080500975879815,19.54251053480704,-11.488394689710988
5.464646341898934,2.3179046308865,7.026707597905885,4.793166150690872,18.695384940598743,-12.169251620922505
5.487825388207799,2.504858480292487,7.074639259412794,4.6714736344816465,17.804478365741687,-12.959822931459069
5.512873973010724,2.682903263949904,7.121353995757611,4.541875405167056,16.870547117308767,-13.842777126807892
5.539703005650224,2.851608735122992,7.166772749809281,4.403447633898977,15.896799622169771,-14.800297969107413
5.568219093001454,3.0105767313446896,7.210807226148271,4.255444654207903,14.888705151904091,-15.814176667148844
5.598324860314901,3.1594637828637304,7.25336167269035,4.097302887536414,13.853755569158507,-16.866002806810265
5.629919498143538,3.2980013385553155,7.294334701565714,3.9286428594683116,12.80118202401826,-17.937437820375912
5.662899511529091,3.4260131587954983,7.333621130160397,3.7492684812645525,11.741632449731801,-19.010552228278097
5.697159643117047,3.543429483292816,7.371113814973042,3.5591629589817715,10.686819130610184,-20.068206073754897
5.732593937949975,3.650297674598918,7.40670544456286,3.3584808982442227,9.649148310325497,-21.09445098575459
5.7690969146959645,3.7467891577021732,7.440290253545302,3.1475363883866767,8.641345662427375,-22.07493219178099
5.806564806272986,3.833202614326447,7.471765617429169,2.926787066468867,7.676092424175687,-22.997269578101942
5.84489683241625,3.909963538568204,7.501033488093857,2.6968143706878474,6.765687112574603,-23.851398567832266
5.883996467801932,3.9776204096939503,7.528001631800736,2.4583003850095246,5.921747027664013,-24.62985416148966
5.923772671898871,4.03683787997059,7.552584635650831,2.212001843394628,5.154962236396514,-25.327984943050595
5.9641410506985775,4.088387502334555,7.574704654084777,1.9587219939641218,4.474912462339084,-25.94408812354184
6.005024925721923,4.133136626957946,7.594291874024418,1.6992811127287033,3.889954347005216,-26.47946159619609
6.046356291991502,4.172036170427998,7.6112846851517055,1.4344864967667423,3.4071830015758886,-26.938374190450837
6.088076653695782,4.206108000443757,7.625629550119373,1.165102754862234,3.032467775324399,-27.32796035077497
6.130137733700219,4.236432678197001,7.637280577667996,0.8918231513544842,2.7705578807768974,-27.658049684443952
6.17250206048219,4.26413825700477,7.6461988091815405,0.6152426545100447,2.625249029372232,-27.94094442871766
6.215143443052237,4.290390747298493,7.652351235726641,0.33583321022286805,2.5995974713420344,-28.191157941533415
6.258047350525222,4.316386722011913,7.65570956782887,0.05392163080753387,2.6961623992783665,-28.425123658806054
6.301211217745341,4.343348346004697,7.656248784136945,-0.2303296057805267,2.917250614595296,-28.660875000048968
6.344644701205389,4.372520852150649,7.65394548807914,-0.5169383557810163,3.26512683644625,-28.917680015247303
6.388369909726895,4.405172120515112,7.64877610452133,-0.8061151559334894,3.742135825818455,-29.215586133079096
6.432421630932046,4.442593478773296,7.6407149529619955,-1.0982710172642802,4.3506531598757965,-29.574783346902123
6.476847565719779,4.486100010372054,7.629732242789353,-1.3940188507333016,5.092731065381053,-30.014616944747498
6.5217085658234994,4.537027321025865,7.61579205428202,-1.6941650201807765,5.969219820864934,-30.551954275151097
6.567078839033758,4.596719519234514,7.598850404080212,-1.9996845629322875,6.978001718775201,-31.1984039535081
6.6130460342261035,4.666499536422267,7.578853558450889,-2.3116686024673685,8.110742247750933,-31.955557536302003
6.659711029590326,4.747606958899776,7.555736872426215,-2.6312241778303886,9.347207035005175,-32.80692490481411
6.7071870991793245,4.841079029249827,7.529424630647911,-2.9592934268785296,10.645702892743955,-33.70455201504233
6.755597889471823,4.947536058177267,7.499831696379126,-3.296338947028953,11.927687180696935,-34.547599014605865
6.805073250053596,5.066812929984236,7.466868306908837,-3.6418149371750115,13.054544601438746,-35.15011095753207
6.8557413793534385,5.197358375998624,7.430450157537087,-3.993316046750332,13.796423492445228,-35.19789439178639
6.907714963113425,5.335322610923076,7.390516997069583,-4.345294990668196,13.800253837566624,-34.204587847886316
6.961068189222655,5.473325149298742,7.347064047162902,-4.687340869147059,12.582115203299844,-31.502352394348662
7.015801440715642,5.599146301331741,7.300190638471431,-5.002364393090546,9.599607219332121,-26.34531483061683
7.0717929037289595,5.695142373525062,7.250166994540526,-5.265817541396714,4.477930231266192,-18.228872517088135
7.12874432746421,5.739921675837724,7.197508819126559,-5.448106266567596,-2.6125695833866347,-7.420451824366875
7.186143544222587,5.713795980003858,7.143027756460882,-5.522310784811264,-10.670734662503017,4.6421533119828515
7.243281504022626,5.607088633378828,7.08780464861277,-5.475889251691435,-18.09982787286268,15.688386092630438
7.299352390356415,5.426090354650201,7.033045756095856,-5.319005390765131,-23.510738543155934,23.75128639362294
7.353613293902916,5.190982969218641,6.979855702188204,-5.081492526828901,-26.40947667746256,28.136408331346342
7.405523123595103,4.926888202444015,6.929040776919916,-4.800128443515438,-27.166880432593597,29.375947768165023
7.4547920056195425,4.65521939811808,6.881039492484761,-4.506368965833787,-26.51587550150171,28.51654716430043
7.501344199600723,4.390060643103062,6.835975802826423,-4.2212034941907834,-25.128998491878303,26.52102838752104
7.545244806031754,4.13877065818428,6.793763767884514,-3.9559932103155733,-23.465871446924606,24.051552806442995
7.586632512613597,3.9041119437150336,6.754203835781358,-3.7154776822511435,-21.78937293582254,21.491408745245838
7.625673632050747,3.686218214356808,6.717049058958847,-3.500563594798685,-20.229225867303967,19.034293240508514
7.662535814194315,3.4839259556837683,6.68204342301086,-3.3102206623935997,-18.837855978898254,16.763104756117418
7.697375073751153,3.295547395894786,6.648941216386924,-3.1425896148324255,-17.627108348288196,14.70194270165533
7.730330547710101,3.119276312411904,6.6175153202386,-2.995570187815872,-16.589441820651015,12.84627955202188
7.76152331083422,2.953381894205394,6.587559618360442,-2.867107392295653,-15.709275834967224,11.179236665777825
7.791057129776274,2.7962891358557216,6.558888544437485,-2.755315025637875,-14.968721011000296,9.679903078626404
7.819020021134831,2.6466019257457187,6.531335394181106,-2.658515994851611,-14.35028590654572,8.327347454216333
7.845486040392288,2.5030990666802615,6.504750234232589,-2.5752425203094473,-13.838018175153232,7.102383364215169
7.870517031059091,2.3647188849287293,6.478997809029495,-2.5042186866672957,-13.417864854104522,5.988201258522487
7.894164219908378,2.230540236387684,6.453955622162821,-2.444336674082071,-13.0776626652683,4.970453400638124
7.916469622272254,2.099763609735001,6.429512255422001,-2.39463214007569,-12.806968612518242,4.037094220579272
7.937467258369605,1.9716939236098185,6.405565934021244,-2.354261197869897,-12.596835581904942,3.1781284667186456
7.957184197605703,1.8457255677907691,6.382023322042545,-2.3224799132027107,-12.43958286935223,2.3853411696185063
7.975641453283611,1.7213297390972468,6.358798522910518,-2.2986265015065257,-12.32858357474646,1.6520430178803986
7.992854750674583,1.5980439033497822,6.335812257895452,-2.2821060713277217,-12.25807683369284,0.9728442775228628
8.008835189708082,1.4754631350128538,6.312991197182175,-2.2723776285524933,-12.223006166679127,0.343460330812167
8.02358982105821,1.3532330733460625,6.29026742089665,-2.2689430252443716,-12.218882267380854,-0.2394527578842649
8.037122151791669,1.2310442506722539,6.267577990644206,-2.2713375528232143,-12.241667471940625,-0.778436165893556
8.049432594298391,1.1086275759528477,6.244864615115974,-2.27912191448215,-12.287678981939367,-1.2753438067849225
8.06051887005792,0.985750786133454,6.222073395971153,-2.291875352549999,-12.353508155342922,-1.7314394001513556
8.070376377919253,0.8622157045800248,6.199154642445652,-2.3091897465515125,-12.43595357719441,-2.1474787702180897
8.078998534965052,0.7378561688080807,6.176062744980137,-2.3306645342536934,-12.531966048669076,-2.5237805827230453
8.086377096653132,0.61253650832139,6.1527560996376005,-2.355902340080924,-12.63860402903776,-2.8602882757080663
8.092502461736347,0.48615046803101236,6.1291970762367916,-2.3845052228380044,-12.75299840346559,-3.156625509705102
8.097363966416657,0.3586204839963565,6.105352024008411,-2.4160714779350556,-12.872325720367343,-3.412147064536034
8.10095017125662,0.22989722679268307,6.081191309229061,-2.450192948580416,-12.993789243114437,-3.6259867403031842
8.103249143524547,0.0999593343615387,6.056689379743257,-2.486452815983448,-13.11460729382168,-3.7971034717542267
8.104248736868163,-0.031186738576678086,6.031824851583423,-2.52442385070099,-13.232008435282157,-3.924326530700615
8.103936869482396,-0.16350682292949967,6.006580613076413,-2.5636671160079962,-13.34323304594765,-4.00640036558956
8.102301801253102,-0.29693915338897614,5.980943941916333,-2.603731119663892,-13.445540799012807,-4.042029309527855
8.099332409719212,-0.43139456137910426,5.9549066307196945,-2.6441514127591703,-13.536223469265094,-4.029922081483345
8.09501846410542,-0.5667567960717552,5.928465116592103,-2.684450633574004,-13.612622372283708,-3.9688357183891307
8.089350896144703,-0.7028830197945923,5.901620610256363,-2.7241389907578952,-13.67214960473079,-3.857618321428163
8.082322065946757,-0.8396045158419002,5.874379220348784,-2.7627151739721767,-13.712312119729432,-3.6952497946778124
8.073926020788338,-0.9767276370391945,5.846752068609062,-2.7996676719189546,-13.730737557808856,-3.480879617667593
8.064158744417947,-1.114035012617283,5.818755391889872,-2.8344764680956307,-13.725200682806769,-3.2138606445622675
