th1 (rad),w1 (rad/s),th2 (rad),w2 (rad/s)
0.9069885015328578,-2.7548536456193298,5.14234576647934,0.05005483239503781
0.8794399650766646,-2.800989633098202,5.142846314803291,0.18537187776336736
0.8514300687456825,-2.8462366653825923,5.144700033580924,0.32547203462969587
0.8229677020918565,-2.890979980468453,5.1479547539272215,0.47024645550478295
0.794057902287172,-2.9356408426846667,5.152657218482269,0.6196081952729107
0.7647014938603254,-2.9806767894225343,5.158853300434998,0.7735021691140876
0.7348947259661001,-3.026582366379205,5.166588322126139,0.9319159566417134
0.704628902302308,-3.073890590314803,5.1759074816925565,1.0948914668121195
0.67388999639916,-3.123175404208299,5.186856396360677,1.2625375283443858
0.642658242357077,-3.1750554142408416,5.1994817716441215,1.435043535875772
0.6109076882146686,-3.2301992215861905,5.213832207002879,1.612694360344791
0.5786056959988066,-3.289332683714519,5.2299591506063265,1.795886818016691
0.5457123691616614,-3.3532484560408764,5.2479180187864936,1.9851480765118572
0.5121798846012526,-3.4228181653416963,5.267769499551612,2.1811564401303394
0.4779517029478357,-3.4990075294435776,5.289581063952915,2.3847649665720434
0.4429616276533999,-3.5828946182710957,5.313428713618635,2.5970282578144137
0.40713268147068893,-3.6756911608303526,5.339398996196779,2.819232415133712
0.3703757698623854,-3.7787661699549493,5.367591320348117,3.05292731439828
0.3325881081628359,-3.8936698541935093,5.3981205934920995,3.299958589058945
0.2936514096209008,-4.022153191256704,5.431120179382689,3.5624931407108233
0.25342987770833375,-4.166173473563598,5.466745110789797,3.843024995383583
0.21176814297269778,-4.327866410655909,5.505175360743634,4.144334832650608
0.1684894788661387,-4.509447009517189,5.54661870907014,4.469350982829979
0.12339500877096679,-4.712967662033997,5.59131221889844,4.820812612983332
0.07626533215062681,-4.9398025804482195,5.639520345028274,5.200553073651615
0.026867306346144613,-5.189633588533404,5.69152587576479,5.608089733278361
-0.02502902953918943,-5.458596579680259,5.747606773097574,6.038044363655058
-0.07961499533599203,-5.736222029971154,5.807987216734125,6.475880644016483
-0.1369772156357036,-6.001258050879195,5.872746023174289,6.892080190699953
-0.19698979614449552,-6.21825208594184,5.941666825081289,7.237378989387422
-0.2591723170039139,-6.3403873579666605,6.014040614975164,7.44675291626137
-0.3225761905835805,-6.325754089998358,6.088508144137777,7.462188143150468
-0.3858337314835641,-6.163415980505572,6.163130025569282,7.269094493830648
-0.4474678912886198,-5.885115749166064,6.235820970507588,6.912524364289482
-0.5063190487802804,-5.5457058058489626,6.304946214150483,6.469654293105898
-0.5617761068387701,-5.193478241573817,6.369642757081542,6.008309875950665
-0.6137108892545082,-4.857151638089609,6.429725855841049,5.568891674654545
-0.6622824056354043,-4.548807133150777,6.485414772587594,5.168563460223207
-0.7077704769669121,-4.27093535214792,6.537100407189826,4.811120178822915
-0.7504798304883913,-4.021663163196915,6.585211608978056,4.494280896288355
-0.7906964621203605,-3.7975810680494786,6.630154417940939,4.213624660855227
-0.8286722728008553,-3.5950395241703474,6.672290664549491,3.964391482788516
-0.8646226680425588,-3.410664076240218,6.711934579377377,3.7421965456915522
-0.898729308804961,-3.241514094803656,6.749356544834292,3.543249505758696
-0.9311444497529976,-3.0850926112364436,6.784789039891879,3.3643672720885194
-0.961995375865362,-2.9393014237702237,6.818432712612764,3.202910878662061
-0.9913883901030642,-2.802381930587113,6.850461821399384,3.0567024343710774
-1.0194122094089353,-2.6728578447055327,6.881028845743095,2.923944455324865
-1.0461407878559905,-2.5494853205820713,6.910268290296344,2.8031491947807172
-1.0716356410618113,-2.4312115757172696,6.938299782244151,2.693079459681148
-1.095947756818984,-2.3171413783430337,6.965230576840963,2.592700058265296
-1.1191191706024142,-2.2065102385446047,6.991157577423616,2.5011383047128906
-1.1411842729878603,-2.0986630896912626,7.016168960470745,2.4176519527799036
-1.162170903884773,-1.9930373739735583,7.040345479998544,2.341603118656092
-1.1821012776245086,-1.8891496197080457,7.063761511185105,2.272437003930907
-1.200992773821589,-1.7865847667802337,7.086485881224414,2.2096644707425055
-1.2188586214893915,-1.6849876424473311,7.108582525931839,2.152847728320766
-1.2357084979138648,-1.5840561095062136,7.130111003215046,2.101588558506226
-1.2515490590089269,-1.4835355049297485,7.151126888800109,2.055518640375506
-1.2663844140582243,-1.3832140635584897,7.171682075203864,2.014291636128014
-1.2802165546938091,-1.2829190824466212,7.191824991565144,1.9775767773725976
-1.2930457455182753,-1.1825136306092294,7.21160075933887,1.9450537477916534
-1.3048708818243677,-1.081893649116465,7.231051296816786,1.9164086989829128
-1.3156898183155323,-0.980985319967977,7.250215383806616,1.8913312645036195
-1.325499671515212,-0.8797426106060044,7.269128696451652,1.8695124556021672
-1.334297097621272,-0.7781449254433723,7.287823821007674,1.8506433331978838
-1.3420785468757057,-0.6761948171526964,7.306330254339652,1.834414356390369
-1.3488404950472326,-0.5739157291354849,7.324674397903556,1.8205153098997875
-1.3545796523385873,-0.4713497567836038,7.342879551002554,1.8086357128817463
-1.3592931499064234,-0.3685554289188321,7.360965908131371,1.7984656108366979
-1.3629787041956116,-0.2656055221090929,7.378950564239738,1.7896966519477118
-1.3656347594167026,-0.16258492933042346,7.396847530759215,1.782023350019471
-1.367260608710007,-0.05958861059607412,7.41466776425941,1.7751444389158793
-1.3678564948159677,0.043280343322116485,7.432419208648569,1.768764228428673
-1.3674236913827464,0.14591250205588102,7.450106850932856,1.7625938790436144
-1.3659645663621875,0.24819371123246964,7.467732789723292,1.7563525230669632
-1.3634826292498627,0.3500065058509143,7.4852963149539615,1.7497681717929043
-1.3599825641913537,0.4512313005221048,7.50279399667189,1.7425783624246025
-1.3554702511861325,0.5517473429003288,7.520219780296136,1.734530513777327
-1.3499527777571292,0.6514334249645088,7.53756508543391,1.7253819757901265
-1.3434384435074842,0.7501683557617791,7.55481890519181,1.714899773932632
-1.3359367599498664,0.8478312083580192,7.571967902931137,1.7028600651252557
-1.327458447866286,0.9443013626426433,7.58899650358239,1.689047336273335
-1.3180154342398596,1.0394583739616814,7.605886976945123,1.6732533895243142
-1.3076208505002427,1.1331817050297792,7.622619510840366,1.6552761695767515
-1.2962890334499448,1.225350364998993,7.6391722725361335,1.6349184975922793
-1.2840355297999548,1.3158425048089264,7.655521457512056,1.6119867833684547
-1.2708771047518657,1.4045350219302892,7.671641325345741,1.586289792366388
-1.2568317545325627,1.4913032302948974,7.687504223269404,1.557637546925455
-1.2419187222296137,1.5760206525384766,7.703080598738659,1.5258404415034292
-1.226158515704229,1.658558991608927,7.718339003153693,1.4907086499769149
-1.2095729257881398,1.738788337212696,7.733246089653462,1.4520518987782753
-1.1921850424160128,1.8165776593318101,7.7477666086412444,1.4096796727027865
-1.1740192658226947,1.8917956359310522,7.761863405368272,1.363401910285056
-1.1551013094633842,1.9643118547251934,7.775497424471123,1.3130302323517842
-1.1354581909161323,2.0339984191999765,7.78862772679464,1.2583797303339852
-1.1151182067241325,2.100731976702471,7.8012115240979805,1.1992713198531597
-1.094110886957108,2.1643961711355093,7.813204237296512,1.1355346398274089
-1.0724669252457528,2.2248845045557575,7.8245595836947865,1.067011447992215
-1.0502180802001952,2.282103570970798,7.835229698174708,0.9935594308106314
-1.0273970444904872,2.3359766023686688,7.845165292482815,0.9150563102894638
-1.0040372784668006,2.3864472424104437,7.8543158555857095,0.8314040938616627
-0.9801728060426962,2.433483438646254,7.862629896524326,0.7425332785293375
-0.9558379716562336,2.477081321411069,7.870055229309619,0.6484067897807053
-0.931067158442123,2.5172689189457564,7.876539297207426,0.5490234127436483
-0.9058944692526654,2.5541095462412757,7.8820295313348625,0.44442046113490563
-0.8803533737902526,2.5877047020906487,7.886473735946211,0.3346754320876268
-0.854476326769346,2.618196317007173,7.889820490267088,0.21990641443063835
-0.8282943635992743,2.645768215495842,7.8920195544113945,0.10027105570653153
-0.8018366814443159,2.670646690072915,7.89302226496846,-0.024036051366058006
-0.7751302145435867,2.693100130518669,7.892781904454799,-0.15278763178423083
-0.7481992132384,2.7134377077752485,7.891254028136957,-0.28572962853469186
-0.7210648361606475,2.7320071739596625,7.88839673185161,-0.42258864394882334
-0.6937447644210509,2.7491919034147543,7.884170845412122,-0.563080745956026
-0.6662528453869034,2.7654073593509327,7.878540037952561,-0.7069213959982847
-0.6385987717933941,2.781097221438587,7.871470823992579,-0.8538362088255596
-0.6107877995790082,2.796729447644273,7.862932461904323,-1.0035722343008047
-0.5828205051025654,2.8127925661905664,7.852896739561315,-1.1559094610980567
-0.5546925794406597,2.829792500272959,7.841337644950334,-1.310672282215379
-0.5263946544379302,2.8482502206904274,7.8282309221281805,-1.467740730113327
-0.4979121522310259,2.8687005033185997,7.813553514827047,-1.6270613802768592
-0.4692251471978399,2.891692044245235,7.797282901024279,-1.7886579299119472
-0.44030822675538756,2.917789160990373,7.77939632172516,-1.9526415767800176
-0.4111303351454838,2.9475752891195732,7.759869905957359,-2.1192214458747616
-0.38165458225428806,2.9816584745233365,7.738677691498611,-2.2887154339871256
-0.3518379975090547,3.020679065923074,7.71579053715874,-2.461561960664066
-0.32163120684982394,3.065319830529184,7.691174917552099,-2.6383332255699563
-0.2909780085445321,3.116318745031138,7.6647915852964,-2.8197506720925367
-0.2598148210942207,3.1744847444313455,7.636594078575475,-3.006703434656163
-0.22806997364990728,3.24071672097227,7.606527044228913,-3.2002705783066023
-0.19566280644018458,3.3160260106971533,7.574524338445847,-3.4017478706554254
-0.16250254633321304,3.4015623997563895,7.540506859739293,-3.612679547823633
-0.12848692233564915,3.498643158227587,7.504380064261056,-3.834894824785747
-0.09350049075337327,3.6087834389687687,7.466031116013199,-4.070547314447486
-0.05741265636368558,3.733723928156325,7.425325642868724,-4.322152190551796
-0.020075417082122328,3.8754466746787015,7.382104120963207,-4.592609164372944
0.018679049664664688,4.036160202196257,7.336178029319477,-4.885185879982502
0.059040651686627255,4.218215894814138,7.287326170519652,-5.2034100069588884
0.10122281063476864,4.423881301496397,7.235292070450063,-5.550768017455164
0.1454616236497326,4.654829604096042,7.179784390275511,-5.930016356498568
0.19200991969069303,4.911092788981513,7.120484226710525,-6.341754777566087
0.24112084758050817,5.189072319609711,7.057066678934865,-6.781695664527626
0.2930115707766053,5.478110707354278,6.989249722289588,-7.235932635739397
0.34779267785014806,5.755538455261335,6.916890395932194,-7.674076452553023
0.4053480624027614,5.982115463728176,6.840149631406664,-8.04291154779992
0.46516921704004316,6.1043778444514105,6.759720515928665,-8.269624634213235
0.5262129954845572,6.073418988594544,6.677024269586532,-8.28785595455284
0.5869471853705027,5.876758586146947,6.594145710041004,-8.081836660335266
0.6457147712319722,5.552597701966586,6.513327343437651,-7.705818247730579
0.7012407482516381,5.164721421192495,6.436269160960345,-7.248840874084152
0.752887962463563,4.766659547200954,6.363780752219503,-6.785040114428334
0.8005545579355726,4.3881902039273415,6.29593035107522,-6.355314621392287
0.8444364599748461,4.040505883487999,6.232377204861297,-5.974817277862293
0.8848415188097261,3.724846524070019,6.172629032082674,-5.645050124030231
0.9220899840504262,3.438296067539295,6.1161785308423715,-5.361902234419529
0.9564729447258191,3.176694332737691,6.062559508498176,-5.11964857868619
0.9882398880531961,2.9358775364958882,6.011363022711314,-4.912629873886209
1.0175986634181549,2.7121232521521397,5.962236723972452,-4.735837630442706
1.0447198959396762,2.502255366014438,5.914878347668025,-4.5850360286808725
1.0697424495998205,2.3036180847049503,5.869027987381216,-4.45670822693415
1.0927786304468698,2.1140085809011424,5.8244609051118745,-4.347949179432239
1.1139187162558812,1.9316042849635917,5.780981413317552,-4.256353347649527
1.1332347591055172,1.754897793757563,5.738417879841057,-4.179914293127672
1.150783737043093,1.5826428465669344,5.69661873690978,-4.116940340880835
1.1666101655087622,1.4138111269086302,5.655449333500972,-4.065985667650123
1.1807482767778485,1.2475584114466534,5.614789476824471,-4.02579465424542
1.1932238608923151,1.0831983393541524,5.574531530282016,-3.9952571464544206
1.2040558442858567,0.9201821921528428,5.534578958817471,-3.973372546917787
1.213257666207385,0.7580832956634228,5.494845233348293,-3.95922106165694
1.2208384991640193,0.5965848811447173,5.455253022731724,-3.951940813772595
1.2268043479754664,0.43547043873215535,5.415733614593998,-3.9507098669390173
1.231159052362788,0.2746157578011871,5.376226515924608,-3.954732462315814
1.2339052099407999,0.1139819816143181,5.3366791913014495,-3.963228967030468
1.235045029756943,-0.046390883364562346,5.297046901631145,-3.9754291668476265
1.2345811209232975,-0.2063904606540861,5.2572926099626685,-3.9905686168896097
1.2325172163167566,-0.36583885704293073,5.2173869237937724,-4.007887798928658
1.2288588277463273,-0.5245001314822324,5.177308045804486,-4.026633828601569
1.2236138264315048,-0.6820885277424955,5.13704170751847,-4.046064418510568
1.2167929411540799,-0.8382775067449327,5.096581063333364,-4.065453742633257
1.2084101660866307,-0.9927095006977398,5.055926525907031,-4.084099774555822
1.1984830710796532,-1.1450062019621892,5.015085528161473,-4.101332599043498
1.1870330090600314,-1.2947791030270488,4.974072202171038,-4.1165231363368715
1.174085218029761,-1.4416399289896977,4.932906970807669,-4.129091683657004
1.159668818739864,-1.585210558789858,4.891616053971099,-4.1385156788112205
1.1438167131519654,-1.7251320221783104,4.850230897182986,-4.144336132721677
1.1265653929301824,-1.8610721885429116,4.808787535855769,-4.146162262198684
1.1079546710447534,-1.992731829391201,4.767325913233782,-4.1436739766863315
1.0880273527508415,-2.119848832160939,4.7258891734669195,-4.136622023027328
1.066828864429232,-2.2422004590015003,4.684522953236646,-4.12482575654656
1.044406859839217,-2.3596036678171024,4.643274695671181,-4.108168669046612
1.020810823161046,-2.4719136312833228,4.602193008980715,-4.086591949249376
0.9960916868482128,-2.579020691240474,4.561327089488221,-4.060086466164279
0.9703014799358081,-2.6808460622743917,4.520726224826578,-4.028683642579685
0.9434930193130642,-2.7773366447225136,4.4804393884007805,-3.9924457213021776
0.915719652865839,-2.868459323139105,4.440514931187758,-3.951455922858036
0.887035059634448,-2.954195114312984,4.401000371959178,-3.9058089561161755
0.8574931084913181,-3.0345334947180103,4.361942282398016,-3.855602281274775
0.827147773544138,-3.109467187626907,4.323386259585268,-3.8009284474469256
0.796053101667869,-3.178987632077982,4.285376975110799,-3.741868743811978
0.7642632253470892,-3.243081295768041,4.247958287672679,-3.678488321592797
0.7318324123894089,-3.301726936726268,4.211173404456751,-3.6108328694954164
0.6988151430221462,-3.3548938676584856,4.175065075761797,-3.538926860963569
0.6652662043455614,-3.4025412338901875,4.1396758071521615,-3.4627733388363238
0.6312407920066595,-3.4446182812454014,4.105048073763799,-3.3823551612649556
0.5967946091942055,-3.481065563287246,4.071224522151149,-3.2976376004017363
0.561983953561333,-3.5118170167381932,4.038248146147132,-3.2085721601379604
0.5268657833939511,-3.536802817877552,4.006162424545752,-3.115101458587092
0.4914977552151755,-3.5559529195240445,3.975011409959881,-3.017165002832249
0.45593822601993506,-3.5692011562930785,3.9448397599315586,-2.914705665926801
0.4202462144570043,-3.5764897939870908,3.9156927032722906,-2.807676658185007
0.38448131651713335,-3.577774386550058,3.8876159366904406,-2.6960487661746306
0.34870357265163276,-3.573028790892541,3.860655449028694,-2.579817614147003
0.31297328474270736,-3.5622501765895023,3.8348572728872243,-2.459010685397757
0.2773507829768123,-3.5454638550981943,3.8102671660332468,-2.3336938275095234
0.24189614442583038,-3.522727743412151,3.7869302277581514,-2.203976958462387
0.20666886699170886,-3.4941362720482783,3.7648904581735274,-2.0700186934256055
0.17172750427122607,-3.4598235492513654,3.744190271239271,-1.9320296278490663
0.13712926877871243,-3.419965604508236,3.7248699749607805,-1.7902740439419542
0.10292961273363008,-3.374781556678699,3.706967234521361,-1.6450698564282447
0.06918179716684308,-3.32453358625529,3.690516535957079,-1.4967866797441827
0.035936461304290186,-3.2695256372883765,3.675548669159637,-1.3458419807894741
0.0032412049314064217,-3.2101008307812586,3.6620902493517424,-1.1926953750022384
-0.028859803376406166,-3.1466376348036387,3.65016329560172,-1.0378412228598684
-0.060326179724442555,-3.0795449027720463,3.6397848833731214,-0.88179978122591
-0.09112162875216302,-3.009255954919191,3.6309668855608623,-0.7251072507057931
-0.12121418830135493,-2.936221933182242,3.6237158130538045,-0.5683051279524303
-0.15057640763317734,-2.8609047012377657,3.61803276177428,-0.4119293136185211
-0.179185454645555,-2.783769585012092,3.6139134686380947,-0.2564994377292811
-0.2070231504956759,-2.705278252309466,3.6113484742608017,-0.10250884316141909
-0.23407593301877055,-2.6258820130117586,3.6103233858291874,0.04958438335057805
-0.26033475314888815,-2.5460157856167336,3.610819229662693,0.19936501947831659
-0.2857949110050555,-2.4660929256138093,3.612812879857476,0.3464667350876598
-0.3104558402611936,-2.3865010515851983,3.6162775472083526,0.49057642139482005
-0.3343208507770456,-2.307598941768984,3.6211833114223007,0.6314368038105463
-0.35739684019473544,-2.229714512719733,3.627497679460406,0.7688474119354448
-0.37969398532193277,-2.153143837370148,3.6351861535797605,0.9026640556727002
-0.40122542369563424,-2.0781511156336685,3.6442127941364877,1.032797012395344
-0.42200693485197094,-2.004969478580946,3.654540764260441,1.1592081651482253
-0.4420566296377804,-1.933802487598095,3.6661328459119233,1.2819073468092297
-0.4613946545137614,-1.864826181988139,3.6789519193800158,1.40094814251712
-0.48004291633364277,-1.7981915305213836,3.6929614008051868,1.5164233861095593
-0.4980248316388566,-1.7340271522801747,3.7081256346662825,1.628460559874152
-0.5153651031616583,-1.6724421874223014,3.724410240265024,1.7372172745945682
-0.5320895250358813,-1.613529216963585,3.7417824130109696,1.842876972213493
-0.5482248172055171,-1.5573671504139697,3.7602111827331046,1.9456449592909233
-0.5637984887096568,-1.5040240195534837,3.7796676323260137,2.045744847895989
-0.5788387289051916,-1.4535596346916824,3.8001250808049734,2.143415452969222
-0.5933743252521084,-1.406028075700764,3.8215592353346657,2.2389081722093094
-0.607434606009116,-1.3614800035672525,3.8439483170567588,2.3324848563248177
-0.6210494060447885,-1.3199647890444592,3.867273165620007,2.4244161638065167
-0.6342490539352331,-1.2815324632560716,3.891517327258072,2.5149803847119996
-0.6470643785677939,-1.2462355009444668,3.916667131105192,2.604462711636986
-0.6595267335772386,-1.21413045064686,3.9427117582215616,2.6931549323062978
-0.6716680380837071,-1.185279427554552,3.9696433075446245,2.7813555162227828
-0.6835208323592527,-1.159751484209959,3.9974568627068523,2.8693700666813995
-0.6951183472013522,-1.137623871417553,4.026150563373666,2.957512108222137
-0.7064945859155277,-1.1189831964660626,4.055725684455887,3.0461041771436874
-0.7176844178801883,-1.1039264773542463,4.086186726227324,3.1354791776531252
-0.7287236826537308,-1.0925620791308974,4.117541518003855,3.225981956778459
-0.7396493034450398,-1.0850105000534536,4.14980133757164,3.3179710348345157
-0.7504994084455743,-1.0814049485407067,4.182981047919985,3.4118204014799187
-0.7613134579309814,-1.0818916131291665,4.217099251934784,3.507921245139408
