th1 (rad),w1 (rad/s),th2 (rad),w2 (rad/s),a1 (rad/s^2),a2 (rad/s^2)
1.2969842527334157,-1.19639660937032,5.705706200723474,-3.0688725311764102,-13.529218939660447,2.670300840412377
1.2850202866397125,-1.3316887987669244,5.6750174754117095,-3.0421695227722862,-13.305889376247586,3.0656198398203673
1.2717033986520432,-1.4647476925294003,5.6445957801839866,-3.0115133243740826,-13.055111138143966,3.5169343480117643
1.2570559217267492,-1.59529880391084,5.614480646940246,-2.976343980893965,-12.775925928265309,4.021668482068467
1.2411029336876407,-1.723058063193493,5.584717207131306,-2.9361272960732805,-12.467907922143551,4.576829321807747
1.2238723530557059,-1.8477371424149287,5.555355934170573,-2.890359002855203,-12.131181191172768,5.17899024617126
1.2053949816315566,-1.9690489543266563,5.5264523441420215,-2.83856910039349,-11.766432001448603,5.824286737709383
1.18570449208829,-2.0867132743411423,5.498066653138086,-2.780326233016396,-11.374915153452001,6.508424687460293
1.1648373593448786,-2.200462425875662,5.470263390807922,-2.715241986141793,-10.958453733064205,7.226701170730488
1.142832735086122,-2.3100469632063043,5.443110970946504,-2.642974974434488,-10.519431810177162,7.97403764935383
1.119732265454059,-2.415241281308076,5.416681221202159,-2.5632345979409497,-10.060779742371027,8.745025586080756
1.0955798526409781,-2.515849078731786,5.39104887522275,-2.475784342080142,-9.585951823350468,9.533984514255694
1.0704213618536602,-2.6117085969652907,5.366291031801948,-2.380444496937585,-9.098896076571751,10.33503265828564
1.0443042758840073,-2.702697557731008,5.342486586832572,-2.2770941703547285,-8.604016062263788,11.142170203744865
1.0172773003066973,-2.788737718353646,5.319715645129024,-2.16567246831728,-8.106124677012472,11.9493752221091
0.9893899231231608,-2.869798965123771,5.298058920445851,-2.046178716096189,-7.6103901174245525,12.750712020970797
0.960691933471923,-2.9459028662980167,5.277597133284889,-1.9186715958864808,-7.1222744860279885,13.540451288951509
0.9312329048089429,-3.0171256111582965,5.258410417326024,-1.7832670829969657,-6.647465958271177,14.313200834450422
0.9010616486973599,-3.0836002707410084,5.240577746496054,-1.6401350746524614,-6.191806003883873,15.064045011963614
0.8702256459899499,-3.145518330779847,5.22417639574953,-1.4894946245328253,-5.76121383890521,15.78869015923673
0.8387704626821514,-3.203130469168899,5.209281449504202,-1.3316077229404581,-5.361611025985265,16.483612637065896
0.8067391579904624,-3.256746579428752,5.195965372274797,-1.1667715965697991,-4.998849868538187,17.146205498563415
0.7741716921961749,-3.3067350781141336,5.184297656309099,-0.995309541584165,-4.6786498751270775,17.774919549854086
0.7411043414150336,-3.3535215768654045,5.174344560893257,-0.8175603460856241,-4.4065470206761574,18.36939471786891
0.7075691256463795,-3.3975870470721663,5.166168957432401,-0.633866398906935,-4.187860731938592,18.930578293570992
0.6735932551756578,-3.4394656543915523,5.159830293443331,-0.44456061597122504,-4.027683434528323,19.460827793108493
0.6391985986317423,-3.4797424887368353,5.155384687283619,-0.2499523380401401,-3.9308971108450805,19.963997825966526
0.604401173744374,-3.519051459845286,5.152885163903218,-0.05031235978047485,-3.9022206589390653,20.445512351498174
0.5692106591459211,-3.5580736664346766,5.152382040305413,0.1541427637345069,-3.946290958835852,20.912425838831368
0.5336299224815743,-3.5975365760230353,5.153923467942757,0.3632670221228206,-4.067779485025753,21.373478837267847
0.4976545567213439,-3.638214370873293,5.157556138163986,0.577001810495499,-4.271545038318623,21.839154940122107
0.46127241301261096,-3.680929821256479,5.1633261562689405,0.7953933598967201,-4.562821567838175,22.321746570616078
0.42446311480004617,-3.7265580369348608,5.171280089867908,1.018610825602881,-4.947437734513589,22.835435667319622
0.38719753443069754,-3.776032414279997,5.181466198123937,1.2469651822760772,-5.4320610193767855,23.396390944320302
0.3494372102878976,-3.8303530244737645,5.193935849946698,1.4809290917192803,-6.024452228507094,24.02287375420742
0.31113368004315994,-3.8905975467588356,5.208745140863891,1.7211578292613545,-6.733703258713376,24.735325718564454
0.2722277045755716,-3.9579345793459693,5.225956719156504,1.968511086446999,-7.570406589784733,25.55637592593393
0.2326483587821119,-4.033638645243816,5.245641830020974,2.224074845706338,-8.546659371559235,26.51064024525785
0.19231197232967373,-4.119105238959409,5.267882578478037,2.489181248158917,-9.675720425488471,27.62406568612401
0.15112091994007965,-4.215862443214293,5.292774390959626,2.765421905020157,-10.970983082690235,28.922354510984125
0.10896229550793671,-4.325572274041195,5.320428610009827,3.054645450129998,-12.443644415556367,30.427607831950933
0.06570657276752476,-4.450008718196759,5.350975064511127,3.3589215284495073,-14.097947790563248,32.151625080671785
0.021206485585557162,-4.5909881961023915,5.384564279795622,3.6804377792562253,-15.922007816125204,34.083084089262776
-0.02470339637546675,-4.750208274263644,5.421368657588185,4.021268620148853,-17.870831732945906,36.163878154125314
-0.07220547911810318,-4.928916591593103,5.461581343789674,4.382907401690106,-19.83624067973856,38.24721643252708
-0.1214946450340342,-5.127278998390488,5.505410417806575,4.765379566015377,-21.59688784158806,40.02798848482873
-0.1727674350179391,-5.343247876806369,5.553064213466729,5.165659450863664,-22.744432254599147,40.93990527406115
-0.2261999137860028,-5.570692199352361,5.604720807975365,5.575058503604276,-22.600710258837157,40.04025498332744
-0.2819068357795264,-5.796699301940732,5.660471393011408,5.9754610534375505,-20.198029356635296,35.98341763519766
-0.33987382879893374,-5.9986795955070855,5.7202260035457835,6.335295229789527,-14.500315445466072,27.33228673716298
-0.3998606247540046,-6.143682749961746,5.783578955843678,6.608618097161157,-5.080210448568772,13.508590197187576
-0.46129745225362206,-6.194484854447434,5.84966513681529,6.743703999133033,6.932129176585587,-3.878512197332674
-0.5232423007980964,-6.125163562681578,5.91710217680662,6.704918877159707,18.706738861605658,-20.840176074268303
-0.5844939364249122,-5.938096174065522,5.984151365578217,6.4965171164170235,27.292791718244423,-33.23071442402688
-0.6438748981655674,-5.665168256883078,6.049116536742387,6.164209972176755,31.541791438099864,-39.444399071202945
-0.7005265807343982,-5.349750342502079,6.110758636464155,5.769765981464725,32.230080189084646,-40.57916095380188
-0.754024084159419,-5.027449540611233,6.168456296278802,5.363974371926706,30.81614733568321,-38.68855707235159
-0.8042985795655313,-4.719288067254401,6.222096039998069,4.97708880120319,28.491138867452175,-35.449975075150924
-0.8514914602380753,-4.434376678579879,6.271866928010101,4.622589050451681,25.958969146430977,-31.857090974325107
-0.8958352270238741,-4.174786987115569,6.318092818514618,4.30401814070843,23.558185536777906,-28.390923692848354
-0.9375830968950297,-3.93920513174779,6.361132999921702,4.0201089037799465,21.419818730988787,-25.24099759219371
-0.9769751482125076,-3.725006944437902,6.401334088959501,3.7676989278580093,19.5733430452155,-22.45377906716573
-1.0142252176568867,-3.529273513985747,6.439011078238082,3.543161137186352,18.00422632784712,-20.01336081165132
-1.0495179527967442,-3.349231250707276,6.474442689609945,3.343027529069839,16.682041223237373,-17.880958495826896
-1.083010265303817,-3.1824108384749024,6.507872964900644,3.1642179441115696,15.573183515238467,-16.012863137237765
-1.114834373688566,-3.0266790033225175,6.53951514434176,3.004089312739192,14.646113605251086,-14.367915425272376
-1.1451011637217912,-2.8802178672700065,6.569556037469152,2.8604101584864683,13.873141209119183,-12.910122473877141
-1.1739033423944911,-2.7414864551788147,6.598160139054016,2.731308933747697,13.23069514069694,-11.60913377616592
-1.2013182069462793,-2.6091795037718453,6.625473228391494,2.6152175959860378,12.698987022435512,-10.439849765275023
-1.2274100019839977,-2.48218963354749,6.651625404351354,2.5108190983332874,12.261481003130985,-9.381741968429411
-1.2522318983194727,-2.35957482351618,6.676733595334687,2.4170016786489934,11.904347307945146,-8.418135919490057
-1.2758276465546345,-2.2405313504367284,6.700903612121177,2.332820319454093,11.615969018482218,-7.535555957477191
-1.298232960059002,-2.124371660251906,6.724231815315718,2.257464759879321,11.386522698367994,-6.723162400590934
-1.319476676661521,-2.010506433268226,6.746806462914511,2.1902331358734117,11.207632685670292,-5.972282149066349
-1.3395817409942032,-1.8984301064115232,6.768708794273245,2.1305103143827484,11.072091002706756,-5.27602249014702
-1.3585660420583185,-1.7877091963844556,6.790013897417072,2.0777500894812784,10.97363274750222,-4.62895476989134
-1.376443134022163,-1.6779728689094333,6.810791398311885,2.031460541782365,10.906757174072983,-4.0268549567122625
-1.3932228627112573,-1.5689052971687034,6.831106003729708,1.9911919922152421,10.866585891339966,-3.466489770716282
-1.4089119156829444,-1.4602394382553037,6.8510179236518605,1.9565270945080793,10.848751022726036,-2.9454390135437425
-1.4235143100654974,-1.3517519280280432,6.870583194596941,1.9270727043726419,10.849307485538787,-2.4619465961291613
-1.4370318293457778,-1.2432588531726554,6.889853921640667,1.9024532384113502,10.864664673401526,-2.0147943804401947
-1.4494644178775042,-1.1346122064386401,6.908878454024781,1.8823052946069483,10.891533741458927,-1.603194296784656
-1.4608105399418907,-1.0256968690240509,6.92770150697085,1.8662733516391017,10.926887421643297,-1.2266952895081853
-1.4710675086321312,-0.9164279948076179,6.946364240487241,1.8540063987440198,10.967929863682784,-0.8851025154128627
-1.4802317885802074,-0.8067486961707901,6.964904304474681,1.8451553735898911,11.012074437578466,-0.5784069071735434
-1.4882992755419153,-0.6966279517950055,6.9833558582105795,1.8393713045181557,11.056927773011473,-0.30672375054270895
-1.4952655550598655,-0.5860586740648908,7.001749571255761,1.8363040670127286,11.100278574719974,-0.07023933564919047
-1.5011261418005144,-0.475055888317691,7.020112611925889,1.8356016736562368,11.140089960612466,0.1308349499483193
-1.5058767006836913,-0.3636549887115664,7.038468628662451,1.83691002315572,11.17449423812436,0.2963014995094762
-1.5095132505708069,-0.25191004633032277,7.056837728894008,1.8398730381508148,11.201789177958013,0.42600860610448354
-1.51203235103411,-0.13989215455074264,7.075236459275517,1.8441331242118597,11.220434974114129,0.5198760140221157
-1.5134312725796175,-0.02768780480960134,7.093677790517635,1.849331884352081,11.229051203845907,0.577914074069982
-1.5137081506277135,0.08460270722885774,7.112171109361156,1.8551110250927807,11.226413227352003,0.6002367040336528
-1.512862123555425,0.19686683950237777,7.130722219612084,1.8611133921331173,11.211447598895555,0.5870684276961323
-1.5108934551604012,0.30898131549133334,7.1493333535334145,1.8669840764100787,11.183226200566972,0.5387458721090082
-1.5078036420054879,0.4208135774970031,7.1680031942975155,1.8723715351311687,11.14095895688689,0.4557142342096421
-1.503595506230518,0.532223167065872,7.1867269096488275,1.8769286774732652,11.083985140629919,0.33851937444332225
-1.4982732745598593,0.6430630184721712,7.20549619642356,1.8803138712176983,11.0117634336305,0.18779634607163626
-1.4918426443751376,0.7531806528084761,7.224299335135737,1.8821918346784148,10.923861055501956,0.004255313199721428
-1.4843108378470529,0.8624192633634957,7.243121253482522,1.882234387810412,10.819942411816282,-0.21133406285221168
-1.4756866452134179,0.9706186874816586,7.2619435973606254,1.8801210471818899,10.699757834581863,-0.4581585909192412
-1.4659804583386014,1.0776162658274773,7.280744807832444,1.8755394612726974,10.563133085115062,-0.7353766327305717
-1.4552042956803266,1.183247596678628,7.299500202445171,1.8681856949453917,10.409960356431185,-1.0421310481392085
-1.4433718197135403,1.2873472002429398,7.3181820593946245,1.8577643844639995,10.240191543716508,-1.3775587879157845
-1.4304983477111108,1.389749115680105,7.336759703239265,1.8439887965848416,10.053834542950998,-1.7407960143934862
-1.4166008565543098,1.4902874611096149,7.355199591205113,1.8265808364409069,9.850953286090894,-2.130977785905835
-1.4016979819432136,1.5887969939705238,7.373465399569522,1.8052710585818486,9.631672124217175,-2.547231558735125
-1.3858100120035084,1.6851137152126956,7.39151811015534,1.7797987429944973,9.396185026542925,-2.9886640404587377
-1.3689588748513815,1.779075565478125,7.409316097585285,1.7499121025899098,9.144769872992596,-3.454341269923072
-1.3511681191966003,1.870523264208051,7.426815218611185,1.715368689890679,8.877807882225778,-3.9432621985179757
-1.3324628865545198,1.9593013430303088,7.443968905510092,1.6759360679054993,8.595807938047638,-4.454326499288335
-1.3128698731242168,2.045259422410785,7.460728266189147,1.631392802912616,8.29943525995546,-4.986297825248817
-1.292417278900109,2.12825377501034,7.4770421942182725,1.5815298246601277,7.98954351619396,-5.537764261310376
-1.2711347411500056,2.2081492101722793,7.492857492464874,1.5261521820470239,7.667209112672543,-6.1070982437199195
-1.2490532490482829,2.284821301299005,7.508119014285344,1.4650811996098247,7.333766026693206,-6.6924187265259345
-1.2262050360352927,2.358158961565937,7.522769826281443,1.3981570123445655,6.990839215635354,-7.291558816454808
-1.2026234464196333,2.4280673537222905,7.536751396404888,1.3252414241800174,6.640374349641158,-7.902042426581918
-1.1783427728824103,2.4944710972187023,7.550003810646689,1.2462209999141982,6.2846614324546035,-8.521073658972078
-1.1533980619102233,2.557317711543248,7.5624660206458305,1.1610102633244774,5.926349828595531,-9.145542557991963
-1.127824884794791,2.6165812098292034,7.574076123279076,1.0695548377445578,5.568452350832357,-9.77205052465697
-1.101659072696499,2.672265733337527,7.584771671656521,0.9718343324979881,5.2143364164570905,-10.396958007730072
-1.0749364153631238,2.724409097502098,7.594490014981501,0.8678647524206874,4.867700877845233,-11.01645607447202
-1.047692324388103,2.7730861062805503,7.603168662505707,0.7577001916759671,4.532537974458247,-11.626662135116755
-1.0199614633252974,2.818411486025133,7.610745664422467,0.6414335703247995,4.2130809134092075,-12.22373851863192
-0.9917773484650461,2.8605422951592248,7.617160000125715,0.5191961851384803,3.913738804401075,-12.804030891541897
-0.9631719255134538,2.8996796832032357,7.6223519619771,0.39115587622306136,3.6390219597817404,-13.364221841135537
-0.9341751286814214,2.936069902801053,7.626263520739331,0.257513657811706,3.3934618027245556,-13.90149350650702
-0.9048144296534109,2.9700045208282986,7.628838657317448,0.11849872274663578,3.1815306740039277,-14.413692142460823
-0.8751143844451279,3.0018198275683377,7.630023644544914,-0.025638198677972457,3.00756756403924,-14.89948712879558
-0.8450961861694445,3.0318955032087302,7.6297672625581345,-0.17463306996592826,2.8757161228891714,-15.358517324761813
-0.8147772311373572,3.060652664437622,7.628020931858475,-0.3282182432135464,2.7898811658988043,-15.791518869364763
-0.784170704492981,3.08855147609661,7.6247387494263394,-0.48613343190719405,2.7537093088299938,-16.20043050022774
-0.7532851897320149,3.11608856918491,7.6198774151072675,-0.6481377369094714,2.770598413374637,-16.58847506867186
-0.7221243040401658,3.1437945533186564,7.613396037738172,-0.81402248759619,2.8437393422909834,-16.960218950847878
-0.6906863585069792,3.172231946741566,7.60525581286221,-0.9836246771046688,2.976192294922511,-17.32161423471034
-0.6589640390395636,3.2019938696907913,7.595419566091163,-1.1568408194517723,3.170998914298684,-17.680031638391466
-0.6269441003426557,3.233703858833778,7.583851157896645,-1.333641135835687,3.4313306036979987,-18.04429486122516
-0.5946070617543179,3.268017164870758,7.570514746538288,-1.5140840844479386,3.7606731893713716,-18.424729318375388
-0.5619268901056103,3.3056238967644718,7.555373905693809,-1.6983313776316926,4.163048258600779,-18.833239854846376
-0.5288706511379655,3.3472543793504794,7.5383905919174925,-1.8866637761801563,4.643272107402196,-19.28343297952256
-0.4953981073444607,3.3936871004245015,7.519523954155691,-2.079498105975382,5.207253987860101,-19.79079922102199
-0.4614612363402157,3.4457596403031023,7.498728973095937,-2.277406098185602,5.8623356972633625,-20.372969914842148
-0.42700363993718465,3.504382997275736,7.475954912114081,-2.4811357973340233,6.61767342978024,-21.050058965609914
-0.3919598099644273,3.5705597315735385,7.4511435541407405,-2.6916363869901225,7.484658176232354,-21.845091438299924
-0.35625421264869195,3.645406313335862,7.424227190270839,-2.910087301373122,8.477358889602625,-22.78450213507295
-0.3198001495153333,3.7301799022318884,7.395126317257108,-3.1379323227238514,9.612945530784714,-23.89864836384824
-0.2824983504930144,3.826309357539736,7.36374699402987,-3.3769188063623337,10.911992119080132,-25.222201521693375
-0.24423525691761705,3.935429278730537,7.329977805966246,-3.6291408215792673,12.398443928278036,-26.794121623869
-0.20488096413031168,4.059413718013317,7.293686397750453,-3.8970820378179574,14.098801043637517,-28.656598357031662
-0.1642868269501785,4.200401728449693,7.254715577372274,-4.183648021388274,16.03961229989573,-30.85170782255846
-0.12228280966568156,4.36079785144865,7.212879097158391,-4.4921650996138585,18.241480828197176,-33.41329467538154
-0.07867483115119506,4.543212659730622,7.167957446162252,-4.826298046367674,20.706084462387615,-36.34922532653636
-0.03324270455388884,4.750273504354498,7.119694465698576,-5.189790299633037,23.38964258332106,-39.60486871517149
0.014260030489656135,4.984169930187709,7.067796562702245,-5.5858389867847515,26.15130425666571,-42.991716015347556
0.06410172979153322,5.2456829727543655,7.011938172834398,-6.0157561469382275,28.65919296510248,-46.05695602084839
0.11655855951907687,5.5322749024053905,6.951780611365016,-6.476325707146711,30.238922768019364,-47.87255453216266
0.17188130854313077,5.834664130085584,6.887017354293548,-6.955051252468338,29.691188535296494,-46.780524386017845
0.23022794984398662,6.131576015438549,6.817466841768865,-7.422856496328516,25.260265574830367,-40.34792446693213
0.2915437099983721,6.384178671186852,6.74323827680558,-7.826335740997838,15.23869877505315,-26.20961133517809
0.3553854967102406,6.536565658937384,6.664974919395601,-8.088431854349619,-0.31474193564189135,-4.464699040623459
0.42075115329961443,6.533418239580965,6.584090600852106,-8.133078844755854,-17.842085823509787,19.91298300556895
0.4860853356954241,6.354997381345867,6.502759812404547,-7.933949014700165,-31.735195383252954,39.11656562425298
0.5496353095088828,6.037645427513337,6.423420322257546,-7.542783358457635,-38.79348186405479,48.72829261234409
0.6100117637840162,5.649710608872789,6.34799248867297,-7.0555004323341945,-39.918859762220904,50.04989600318289
0.6665088698727442,5.25052201125058,6.277437484349628,-6.555001472302366,-37.722986143273246,46.73953289413997
0.71901408998525,4.873292149817848,6.211887469626604,-6.087606143360967,-34.29274372539259,41.70269062065558
0.7677470114834284,4.530364712563922,6.1510114081929945,-5.670579237154411,-30.737801746632343,36.476516777761105
0.8130506586090676,4.222986695097599,6.09430561582145,-5.3058140693768,-27.51163699727869,31.684962678213957
0.8552805255600435,3.947870325124812,6.041247475127682,-4.988964442594661,-24.74355425922266,27.503158303993278
0.8947592288112917,3.7004347825325854,5.991357830701736,-4.713932859554728,-22.428270421629275,23.92111185996147
0.9317635766366175,3.4761520783162925,5.944218502106188,-4.474721740955113,-20.514234072027207,20.865989420951305
0.9665250974197804,3.2710097375960205,5.899471284696637,-4.2660618467455995,-18.940399620986557,18.252768105391716
0.9992351947957406,3.081605741386155,5.8568106662291815,-4.083534165691682,-17.64989620132284,16.00292911556781
1.0300512522096021,2.9051067793729266,5.815975324572265,-3.923504874536004,-16.594046961634827,14.049873651282669
1.0591023200033314,2.739166309756578,5.776740275826905,-3.783006138023177,-15.732632649157866,12.339210110389573
