th1 (rad),w1 (rad/s),th2 (rad),w2 (rad/s),a1 (rad/s^2),a2 (rad/s^2)
5.700636053007709,-2.1448966721901677,4.9804951963143145,0.6319174651161203,0.7912255510996506,11.889153962243604
5.679187086285807,-2.136984416679171,4.986814370965476,0.7508090047385564,0.8999271558738425,11.655814916203717
5.657817242119015,-2.127985145120433,4.994322461012861,0.8673671539005936,1.0129520541821144,11.40391518123855
5.636537390667811,-2.1178556245786115,5.002996132551867,0.9814063057129792,1.1344757219113781,11.130087976791344
5.615358834422024,-2.1065108673594977,5.0128101956089965,1.0927071854808925,1.2690692215784682,10.830362109977498
5.59429372574843,-2.093820175143713,5.0237372674638054,1.2010108065806675,1.4216692251419314,10.50019723125633
5.573355523996993,-2.0796034828922934,5.0357473755296125,1.3060127788932308,1.5975077515629448,10.134576028779502
5.55255948916807,-2.063628405376664,5.048807503318545,1.4073585391810257,1.801986994841238,9.728172643689964
5.531923205114303,-2.0456085354282516,5.0628810887103555,1.5046402656179254,2.0404841865717587,9.275617051821188
5.511467119760021,-2.025203693562534,5.077927491366535,1.5973964361361372,2.318073798319354,8.771871768268955
5.491215082824396,-2.0020229555793403,5.093901455727896,1.6851151538188267,2.6391611293911734,8.212727818519971
5.471194853268602,-1.9756313442854285,5.110752607266084,1.7672424320040263,3.0070339340310968,7.595409462728058
5.451438539825748,-1.9455610049451175,5.128425031586125,1.8431965266313068,3.4233578794243527,6.919250805804962
5.431982929776297,-1.911327426150874,5.146856996852438,1.9123890346893564,3.887666058524527,6.186373965868634
5.412869655514789,-1.8724507655656286,5.165980887199331,1.9742527743480427,4.3969182760209895,5.402263858923803
5.394145147859133,-1.8284815828054186,5.185723414942812,2.0282754129372806,4.945224678251539,4.576109618866816
5.3758603320310785,-1.7790293360229033,5.206006169072185,2.074036509125949,5.523830439915828,3.720781131932405
5.358070038670849,-1.723791031623745,5.2267465341634445,2.111244320445273,6.12143457422455,2.8523435245640085
5.340832128354612,-1.6625766858814994,5.247858977367898,2.1397677556909134,6.7248635528647664,1.9890864217233948
5.324206361495797,-1.5953280503528517,5.269256654924806,2.1596586199081473,7.320047167460008,1.1501469921281473
5.308253080992269,-1.5221275786782518,5.290853241123888,2.1711600898294288,7.893169327519029,0.3539088559632908
5.293031805205486,-1.4431958854030615,5.312564842022183,2.1746991783890617,8.431815511795998,-0.38357235877492996
5.278599846351455,-1.3588777302851016,5.3343118338060735,2.1708634548013124,8.925931625570035,-1.0498594971129473
5.2650110690486045,-1.2696184140294013,5.356020468354087,2.160364859830183,9.36845091602809,-1.6369447345344448
5.25231488490831,-1.1759339048691204,5.377624116952389,2.1439954124848386,9.755522451039232,-2.141494729925415
5.240555545859619,-1.078378680358728,5.3990640710772375,2.1225804651855844,10.086360159056202,-2.564564191247648
5.229771759056032,-0.977515078768166,5.420289875729093,2.096934823273108,10.362799143475387,-2.9109058174435143
5.21999660826835,-0.8738870873334121,5.441259223961824,2.067825765098673,10.588680234132033,-3.188050547399414
5.211257737395016,-0.7680002849920918,5.461937481612811,2.0359452596246785,10.769183379519635,-3.4053291792780738
5.203577734545095,-0.6603084511968955,5.4822969342090575,2.001891967831898,10.910205427659532,-3.5729691899284326
5.196974650033126,-0.5512063969203002,5.502315853887376,1.9661622759326134,11.017842071156513,-3.7013489283899124
5.191462586063923,-0.441027976208735,5.521977476646702,1.9291487866487143,11.097999192129732,-3.800442123002759
5.187052306301836,-0.3300479842874377,5.541268964513189,1.8911443654186866,11.156132512049382,-3.8794485134615666
5.183751826458962,-0.21848665916694388,5.560180408167376,1.852349880284071,11.197098382900183,-3.9465840912919536
5.181566959867292,-0.10651567533794204,5.578703906970217,1.8128840393711514,11.22509151779408,-4.00899498757951
5.180501803113913,0.005735239839998768,5.596832747363929,1.7727940894953562,11.243644798106747,-4.072758615724271
5.180559155512313,0.11817168782106624,5.614560688258883,1.7320665033381135,11.255669279450776,-4.142940334680404
5.181740872390524,0.230728380615574,5.631881353292264,1.6906370999913094,11.26351701324219,-4.22368060010516
5.184048156196679,0.3433635507479959,5.648787724292177,1.6484002939902578,11.269053925505197,-4.318294369483011
5.187481791704159,0.45605409000304786,5.66527172723208,1.6052173502954277,11.273734021788746,-4.429370406802457
5.192042332604189,0.5687914302209354,5.681323900735034,1.5609236462274032,11.27866934127757,-4.558862720516409
5.197730246906398,0.6815781236337111,5.696933137197308,1.5153350190222392,11.284692354516228,-4.708169667375676
5.204546028142736,0.7944250471788733,5.7120864873875306,1.4682533223484824,11.29240900483413,-4.87819844299132
5.212490278614524,0.9073491372272147,5.726769020611015,1.4194713379185693,11.302241491040103,-5.0694139899308945
5.221563769986797,1.0203715521376158,5.740963733990201,1.3687771980192602,11.314460329500598,-5.2818720063158935
5.231767485508173,1.1335161554326216,5.7546515059703935,1.3159584779561013,11.329205342416842,-5.515235913574086
5.243102647062499,1.24680820885679,5.767811090749954,1.2608061188203605,11.346495090336402,-5.768777477644354
5.255570729151067,1.360273159760154,5.780419151938158,1.203118344043917,11.366223967672557,-6.041360370597641
5.269173460748669,1.4739353994368796,5.792450335378597,1.1427047403379407,11.388145756961217,-6.3314053777381805
5.283912814743037,1.5878168570064917,5.803877382781977,1.079390686560559,11.411841926143095,-6.636835251930001
5.299790983313103,1.7019352762679225,5.814671289647582,1.013022334041259,11.436672388093967,-6.954996445882983
5.316810336075782,1.8163020001488621,5.824801512987995,0.9434723695824291,11.461705870568185,-7.282554188494073
5.3349733560772705,1.930919058854544,5.834236236683819,0.8706468276974884,11.485626546199242,-7.615356733727236
5.354282546665816,2.045775324316536,5.842942704960794,0.794493260360216,11.506613280775323,-7.9482643033979175
5.374740299908981,2.1608414571242895,5.850887637564396,0.7150106173262367,11.522187999099945,-8.274938604617834
5.396348714480224,2.276063337115289,5.8580377437376585,0.6322612312800584,11.52903060386007,-8.587590362414556
5.419109347851377,2.3913536431538898,5.864360356050459,0.5463853276559129,11.522760169353742,-8.876685877486668
5.443022884282915,2.5065812448474274,5.869824209327018,0.4576184688810462,11.497686571346762,-9.130620356862618
5.46808869673139,2.621558110560895,5.8744003940158285,0.36631226531242,11.446544381384893,-9.335377207281006
5.494304277836998,2.7360235543747438,5.878063516668953,0.27295849323960997,11.36023302806483,-9.474210432714784
5.521664513380745,2.849625884655392,5.880793101601349,0.1782163889124621,11.227605121352632,-9.527413407317338
5.550160772227299,2.9619019358689185,5.882575265490474,0.08294225483928873,11.03536894143545,-9.472272179927451
5.579779791585988,3.072255625283273,5.883404688038867,-0.011780466959985789,10.768199936704631,-9.283342784884345
5.610502347838821,3.1799376246503193,5.8832868833692675,-0.10461389480882924,10.409184247755801,-8.933231737020531
5.642301724085324,3.284029467127877,5.882240744421179,-0.19394621217903454,9.940733011503603,-8.394079745122648
5.675142018756603,3.383436797242913,5.8803012822993885,-0.27788700963026103,9.346089715218765,-7.639921948879357
5.708976386729032,3.4768976943951007,5.877522412203086,-0.3542862291190546,8.61147817565831,-6.649986156675078
5.743745363672983,3.563012476151684,5.873979549911895,-0.4207860906858054,7.728783015411765,-5.412761000706069
5.7793754884345,3.6403003063058015,5.869771689005037,-0.4749137006928661,6.698418150899359,-3.930319703551901
5.815778491497558,3.7072844878147952,5.865022551998108,-0.5142168977283851,5.531771795166794,-2.221995205190878
5.852851336375706,3.762602205766463,5.859880383020824,-0.5364368497802938,4.252433493461365,-0.32623514765531003
5.890477358433371,3.805126540701077,5.854516014523021,-0.5396992012568469,2.8954626925315012,1.7004574755551891
5.928528623840381,3.8340811676263917,5.849119022510453,-0.5226946265012951,1.504354377499774,3.7880170206604538
5.966869435516645,3.8491247114013896,5.8438920762454405,-0.4848144562946905,0.12603993309807573,5.86026519569738
6.005360682630659,3.85038511073237,5.839043931682494,-0.4262118043377167,-1.1950296247909826,7.84380177454351
6.043864533737983,3.8384348144844602,5.8347818136391165,-0.34777378659228164,-2.4222899476390674,9.676247053968895
6.082248881882827,3.8142119150080696,5.831304075773193,-0.2510113160525927,-3.5306991456514356,11.311968527727267
6.120391001032908,3.778904923551555,5.828793962612667,-0.13789163077532002,-4.507980552491734,12.724333649753664
6.158180050268423,3.7338251180266377,5.827415046304914,-0.010648294277783382,-5.353626730430598,13.904657085764129
6.195518301448689,3.6802888507223317,5.827308563362136,0.12839827657985792,-6.076381992568525,14.858843224754365
6.232321189955912,3.6195250307966464,5.828592546127934,0.27698670882740156,-6.691101577076229,15.603011630572762
6.268516440263879,3.5526140150258843,5.831362413216208,0.4330168251331292,-7.215739364941827,16.15920435377127
6.304042580414137,3.480456621376466,5.83569258146754,0.594608868670842,-7.668915093629494,16.551852470577373
6.338847146627902,3.403767470440171,5.841638670154248,0.7601273933766157,-8.068217499924481,16.805256757144747
6.3728848213323035,3.3230852954409262,5.849239944088015,0.9281799609480632,-8.429196754035644,16.942039775082527
6.4061156742867125,3.2387933279005696,5.858521743697495,1.0976003586988885,-8.764900381343546,16.98237582682185
6.4385036075657185,3.151144324087134,5.869497747284484,1.267424116967107,-9.08578511638859,16.943766147985972
6.47001505080659,3.060286472923248,5.8821719884541555,1.4368617784469668,-9.399858020917907,16.84115083844878
6.500617915535822,2.9662878927140692,5.896540606238625,1.6052732868314545,-9.712936579387272,16.687197692082236
6.530280794462963,2.8691585269201965,5.91259333910694,1.772145263752277,-10.028953521871601,16.492658176779685
6.5589723797321655,2.7688689917014804,5.930314791744463,1.937071845520074,-10.350261002714861,16.26672200748998
6.58666106964918,2.665366381674332,5.9496855101996635,2.099739065594974,-10.677909074819853,16.017331499948035
6.6133147334659235,2.558587290926133,5.970682900855613,2.259912380594454,-11.011886240823893,15.751436358178024
6.638900606375185,2.448468428517894,5.993282024661558,2.4174267441762343,-11.351317084727052,15.475181107588153
6.663385290660364,2.3349552576706234,6.01745629210332,2.572178555252116,-11.694615353242956,15.194023381231744
6.686734843237071,2.218009104138194,6.043178077655842,2.724118789064433,-12.039591742640562,14.912783558537912
6.708914934278453,2.097613186711788,6.070419265546486,2.8732466246498123,-12.38351502209623,14.635626157508128
6.729891066145571,1.973778036490826,6.099151731792984,3.0196028862248934,-12.72312363255854,14.365971766761163
6.749628846510479,1.8465468001652405,6.129347760655233,3.163262603892505,-13.054582979955741,14.106335764898748
6.7680943145121315,1.716000970365683,6.160980386694158,3.304325961541492,-13.373381655841097,13.858087096612813
6.785254324215789,1.5822671538072721,6.194023646309573,3.4429068325076204,-13.674158194904438,13.621117530682609
6.801076995753862,1.4455255718582278,6.228452714634649,3.5791180078144467,-13.95044938299948,13.393410014647582
6.815532251472444,1.306021078028233,6.264243894712793,3.7130521079609227,-14.194352693437976,13.17049550957394
6.828592462252726,1.1640775510938532,6.301374415792402,3.844757063056662,-14.396101049089925,12.944793646046008
6.840233237763665,1.020116540602954,6.339821986422969,3.9742049995171222,-14.543560788043326,12.704847862314883
6.850434403169695,0.8746809327225207,6.37956403641814,4.101253478140271,-14.621687836729961,12.434496521465936
6.85918121249692,0.728464054355221,6.420576571199542,4.22559844335493,-14.612018295958583,12.112075877460514
6.866465853040472,0.5823438713956351,6.462832555633092,4.3467192021295356,-14.492333523595688,11.709836915133282
6.872289291754428,0.43742053615967824,6.506299747654388,4.4638175712808685,-14.236728237793624,11.193879545411221
6.8766634971160245,0.29505325378174196,6.550937923367196,4.57575636673498,-13.816413543613642,10.525052544253068
6.879614029653842,0.15688911834560554,6.5966954870345464,4.681006892177511,-13.201671179164741,9.661391059505506
6.881182920837298,0.024872406553958115,6.643505555956321,4.777620802772566,-12.36536796009681,8.56266703745784
6.881431644902838,-0.09878127304700998,6.691281763984047,4.863247473147145,-11.288226129147544,7.197354772930312
6.880443832172368,-0.21166353433848542,6.739914238715518,4.935221020876448,-9.965507380644912,5.551598257689443
6.878327196828983,-0.3113186081449345,6.789266448924283,4.990737003453343,-8.413890009310173,3.638580857982401
6.875214010747533,-0.3954575082380362,6.839173818958817,5.027122812033166,-6.676350001372413,1.5053743586550379
6.871259435665153,-0.4622210082517603,6.889445047079149,5.042176555619717,-4.82239916221041,-0.7663014305984405
6.866637225582635,-0.5104449998738644,6.939866812635346,5.034513541313732,-2.9418098360374363,-3.067958274294462
6.861532775583896,-0.5398630982342387,6.990211948048484,5.003833958570787,-1.1321826098466359,-5.280423303725086
6.856134144601554,-0.551184924332705,7.0402502876341915,4.9510297255335365,0.5164900665720038,-7.293932982700373
6.850622295358226,-0.546020023666985,7.089760584889527,4.878090395706533,1.9354549669510879,-9.02582682380322
6.845162095121556,-0.5266654739974741,7.138541488846593,4.7878321274685005,3.0849337763264746,-10.430420207614258
6.839895440381581,-0.49581613623420934,7.1864198101212775,4.683527925392358,3.954556057825213,-11.499252670017514
6.834937279019239,-0.4562705756559572,7.233255089375201,4.568535398692183,4.5579781456838955,-12.253773023402648
6.830374573262679,-0.41069079419911825,7.278940443362123,4.445997668458157,4.924704258560859,-12.734514578306381
6.826267665320688,-0.36144375161350967,7.323400420046705,4.318652522675093,5.091960388672544,-12.99052915632035
6.822653227804553,-0.3105241477267842,7.366586945273456,4.188747231111889,5.098336642146386,-13.071291922012025
6.819547986327285,-0.2595407813053204,7.408474417584575,4.0580343118917686,4.9797095258051405,-13.021676021080365
6.816952578514232,-0.20974368604726898,7.4490547607034925,3.927817551680965,4.767174260291017,-12.879573744051212
6.8148551416537595,-0.16207194344435882,7.488332936220302,3.799021814240453,4.486409331600238,-12.67535932431432
6.813234422219316,-0.11720785012835644,7.526323154362706,3.6722682209973097,4.157898877075277,-12.432417847853008
6.812062343718033,-0.07562886135760366,7.563045836572679,3.5479440425187794,3.797575079078369,-12.168162580126745
6.811306055104457,-0.03765311056681997,7.598525276997867,3.426262416717512,3.417598394160707,-11.895177735500056
6.810929523998789,-0.0034771266252128993,7.632787901165042,3.3073106393625116,3.0271184962225375,-11.622291858094608
6.810894752732537,0.026794058337012476,7.665861007558667,3.1910877207815656,2.632942916251599,-11.355497508976953
6.811162693315907,0.053123487499528464,7.697771884766483,3.077532745691796,2.2400900922056977,-11.098696544221719
6.811693928190903,0.07552438842158544,7.7285472122234005,2.9665457802495787,1.8522295017943853,-10.854282122074133
6.812449172075119,0.0940466834395293,7.758212670025896,2.858002959028837,1.4720229707365078,-10.623581470122256
6.813389638909514,0.10876691314689438,7.786792699616185,2.751767144327615,1.101384636770841,-10.407186173036504
6.814477308040982,0.11978075951460279,7.814310371059461,2.6476952825972497,0.7416764682244217,-10.205194684478922
6.815675115636128,0.12719752419684702,7.840787323885434,2.5456433357524606,0.3938540034085289,-10.01738791557162
6.816947090878096,0.1311360642309323,7.866243757242958,2.4454694565967445,0.0585743080000336,-9.84335462178798
6.818258451520405,0.13172180731093264,7.890698451808926,2.3470359103788647,-0.2637243859134251,-9.682579573877788
6.819575669593514,0.1290845634517984,7.914168810912715,2.250210114640087,-0.572764069212046,-9.53450438619596
6.820866515228032,0.12335692275967793,7.936670912059116,2.1548650707781274,-0.8683838483765847,-9.398568403173842
6.822100084455629,0.11467308427591208,7.958219562766897,2.060879386746389,-1.1505082013876673,-9.2742351374465
6.823246815298388,0.1031680022620354,7.97882835663436,1.968137035371924,-1.4191235207305053,-9.161008310185498
6.824278495321009,0.08897676705473034,7.99850972698808,1.8765269522700692,-1.6742606725426192,-9.058440466429607
6.825168262991556,0.07223416032930416,8.01727499651078,1.785942547605773,-1.9159819043318438,-8.966136340096227
6.825890604594849,0.05307434128598572,8.035134421986838,1.6962811842048109,-2.1443708827038455,-8.883752555636887
6.826421348007709,0.03163063245894726,8.052097233828885,1.607443658648442,-2.359524974996892,-8.81099482202778
6.826737654332298,0.008035382708978338,8.068171670415369,1.5193337104281641,-2.5615491339596863,-8.747613458961974
6.826818008159388,-0.017580108630618527,8.083365007519651,1.4318575758385443,-2.7505509249709075,-8.693397864077706
6.826642207073082,-0.0450856178803276,8.097683583278037,1.3449235971977673,-2.9266363676166565,-8.648170361145988
6.826191350894279,-0.07435198155649417,8.111132819250015,1.2584418935863075,-3.0899063602952412,-8.611779745710937
6.825447831078714,-0.10525104515944658,8.123717238185877,1.172324096129198,-3.2404535272702595,-8.584094754577327
6.8243953206271195,-0.13765558043214918,8.135440479147169,1.0864831485834248,-3.3783593791903668,-8.564997619927794
6.823018764822798,-0.17143917422405286,8.146305310633004,1.0008331723841468,-3.503691715683119,-8.554377821302467
6.821304373080558,-0.20647609138088405,8.156313642356846,0.9152893941711222,-3.6165022260177238,-8.552126114521972
6.819239612166749,-0.24264111364106128,8.165466536298558,0.8297681330259025,-3.716824263828463,-8.5581288924928
6.816813201030338,-0.2798093562793459,8.173764217628817,0.7441868441009745,-3.8046707865676637,-8.572262916236095
6.814015107467545,-0.31785606414502254,8.181206086069826,0.6584642149386135,-3.880032461232418,-8.59439044362639
6.810836546826095,-0.35665638875734673,8.187790728219213,0.5725203105023496,-3.942875946086919,-8.624354776891726
6.8072699829385215,-0.39608514821821594,8.193515931324237,0.48627676273343234,-3.993142364374276,-8.661976246929575
6.80330913145634,-0.4360165718619587,8.198378698951572,0.3996570002641366,-4.030745990932339,-8.707048652193215
6.79894896573772,-0.4763240317712821,8.202375268954214,0.3125865137422044,-4.055573176570211,-8.759336171732267
6.794185725420007,-0.5168797635369842,8.205501134091636,0.22499315202488174,-4.0674815382566605,-8.818570775474623
6.789016927784638,-0.5575545789195507,8.207751065611884,0.13680744427013553,-4.066299445737655,-8.88445015964174
6.783441381995442,-0.5982175733769273,8.209119140054586,0.04796294267371813,-4.051825837167889,-8.956636240967967
6.777459206261673,-0.6387358317486062,8.209598769481323,-0.041603419735961544,-4.023830397667116,-9.03475424984969
6.771071847944187,-0.6789741357252773,8.209182735283964,-0.13195096223445846,-3.982054135293081,-9.11839246939387
6.7642821065869345,-0.7187946770782081,8.207863225661619,-0.22313488692839717,-3.926210388605098,-9.207102674281295
6.757094159816153,-0.7580567809642591,8.205631876792335,-0.3152059136712101,-3.8559862985811164,-9.300401330111912
6.74951359200651,-0.7966166439500703,8.202479817655624,-0.4082099269723292,-3.7710447749164926,-9.397771620150072
6.741547425567009,-0.8343270916992351,8.1983977183859,-0.5021876431738299,-3.671026982420969,-9.498666371814279
6.733204154650017,-0.8710373615234448,8.193375841954161,-0.5971743068919727,-3.555555367068969,-9.602511959523662
6.7244937810347825,-0.9065929151941345,8.187404098885242,-0.6931994264872093,-3.4242372329698783,-9.708713263279225
