th1 (rad),w1 (rad/s),th2 (rad),w2 (rad/s)
4.24915756593881,-2.4167370267192645,3.3533721923614297,2.253590275108814
4.224990195671618,-2.3581297808103217,3.3759080951125178,2.2831635743112177
4.201408897863514,-2.2996498943446615,3.3987397308556297,2.3090242041070073
4.178412398920067,-2.2410737293725997,3.4218299728967,2.331284497132723
4.156001661626341,-2.1821920893496327,3.4451428178680272,2.3500476382265343
4.134179740732844,-2.1228136788853336,3.4686432942502927,2.365414829915075
4.1129516039439915,-2.0627692273650724,3.4922974425494435,2.3774931520934803
4.0923239116703405,-2.0019161403195342,3.5160723740703785,2.3864039273736237
4.072304750267145,-1.9401434371150796,3.539936413344115,2.3922912629372157
4.052903315895994,-1.8773766195628347,3.563859325973487,2.3953302866582566
4.034129549700366,-1.8135820096585507,3.58781262884007,2.3957344526647666
4.015993729603781,-1.7487700184500816,3.6117699733667177,2.3937611909111314
3.9985060294192802,-1.682996787671862,3.635707585275829,2.3897151523446665
3.9816760615425615,-1.616363704071006,3.6596047367992757,2.3839483871961993
3.9655124245018514,-1.5490144352707003,3.6834442206712374,2.376857004866011
3.9500222801491445,-1.4811293693334293,3.7072127907198977,2.368874190334313
3.93521098645581,-1.412917629698303,3.730901532623241,2.3604598539523574
3.921081810158827,-1.344607135554527,3.7545061311627643,2.3520876024365682
3.907635738803282,-1.276433428680295,3.77802700718713,2.344230060433589
3.894871404516479,-1.2086281409922526,3.8014693077914656,2.337343774618016
3.8827851231065567,-1.1414080027072746,3.8248427455376457,2.3318549555860635
3.871371043079484,-1.0749651883425462,3.8481612950935062,2.328147157318687
3.8606213911960583,-1.0094595941783824,3.8714427666666933,2.3265516995158717
3.8505267952542743,-0.9450133823369845,3.894708283661852,2.327341270121074
3.8410766614309044,-0.8817078639944962,3.9179816963630625,2.330726775219179
3.8322595827909596,-0.8195825697543786,3.9412889641152544,2.336857190184022
3.8240637570934157,-0.7586361947746872,3.9646575360170946,2.345821945010588
3.816477395145669,-0.6988290176911546,3.9881157554672004,2.357655258174588
3.8094891049687574,-0.6400863688661793,4.011692308048946,2.3723418065359874
3.8030882412800957,-0.5823027494083329,4.035415726114306,2.3898231610450313
3.7972652137860123,-0.5253462593105238,4.059313957724756,2.4100045029153967
3.792011751192907,-0.4690630640988675,4.083414002753909,2.4327612385822475
3.787321120551918,-0.41328170169761586,4.107741615139732,2.4579452360389307
3.783188303534942,-0.3578170965385371,4.132321067500121,2.485390498536264
3.7796101325695566,-0.30247420211452664,4.157174972485484,2.514918168455967
3.7765853905484112,-0.24705123508972776,4.182324154170043,2.5463408130732184
3.774114878197514,-0.19134249455634414,4.207787562300775,2.5794659862472664
3.7722014532519506,-0.1351407808799327,4.233582222163248,2.61409908852685
3.7708500454431513,-0.07823944191346968,4.259723213048517,2.6500455658320194
3.7700676510240165,-0.020434082186453588,4.286223668706837,2.6871124966946973
3.769863310202152,0.03847602533280422,4.313094793673784,2.72510962245363
3.77024807045548,0.09868678385590673,4.3403458898983205,2.7638498756938015
3.771234938294039,0.16038833290488969,4.367984388655258,2.80314946095976
3.772838821623088,0.22376428427519957,4.396015883264855,2.842827539287027
3.77507646446584,0.2889910959796194,4.4244441586577254,2.8827055649904043
3.777966375425636,0.35623754857769274,4.453271214307629,2.922606319802571
3.781528750911413,0.4256642908778725,4.482497277505655,2.962352686108517
3.7857853938201917,0.4974234248723246,4.512120804366741,3.0017661978277816
3.790759628068915,0.5716581029263577,4.542138466345018,3.04066540457295
3.7964762090981785,0.6485021137133291,4.572545120390748,3.078864082158074
3.802961230235312,0.7280794371879283,4.603333761212329,3.1161693204366885
3.810242024607191,0.8105037530571971,4.634495454416696,3.1523795179032454
3.818347062137763,0.8958778917745699,4.6660192495957284,3.18728231157298
3.8273058410555088,0.9842932220862638,4.697892072711459,3.2206524704270736
3.8371487732763714,1.075828974643016,4.730098597415729,3.2522497812123987
3.8479070630228014,1.1705515071956119,4.762621095227853,3.2818169566254705
3.8596125780947577,1.2685135234585667,4.795439264794108,3.309077597853964
3.8722977133293432,1.3697532648818813,4.828530040772648,3.3337342460108412
3.885995245978162,1.4742937023275156,4.861867383232757,3.355466560030106
3.900738183001437,1.5821417629896097,4.8954220488330575,3.373929661884574
3.9165596006313335,1.6932876367723086,4.929161345451903,3.388752693242117
3.9334924769990565,1.8077042156448133,4.9630488723843245,3.399537630519721
3.9515695191555045,1.9253467290702044,4.997044248689521,3.405858407256144
3.9708229864462066,2.0461526482267174,5.031102832762083,3.40726039324397
3.9912845129284737,2.1700419411109864,5.065175436694522,3.4032602782931014
4.012984932339584,2.296917769365883,5.099208039477453,3.3933464041178305
4.035954110033242,2.426667725382088,5.133141503518631,3.3769795798743862
4.060220787287063,2.559165714406707,5.166911299317375,3.3535944045363855
4.08581244443113,2.69427459055642,5.200447243362739,3.322601101831904
4.112755190336694,2.8318496572907987,5.233673254381058,3.2833878502414175
4.141073686909602,2.9717431416199633,5.266507132883472,3.23532356114585
4.170791118325801,3.1138097467603316,5.298860368494931,3.1777610225332764
4.201929215793404,3.257913379901413,5.330637978720263,3.110040284140631
4.234508349592418,3.403935140128345,5.361738381561669,3.0314921136617023
4.268547700993701,3.5517826363666956,5.392053302698287,2.94144130484297
4.304065527357368,3.7014006864139923,5.421467715746716,2.8392095704839497
4.341079534221508,3.8527834252189965,5.449859811451556,2.724117712168339
4.379607368473698,4.00598782201282,5.477100988573239,2.5954867326102975
4.419667246693826,4.161148567860056,5.503055855899342,2.452637559096062
4.461278732372427,4.3184942394765296,5.527582231490303,2.2948890983616397
4.504463674767192,4.478364555520227,5.550531122473919,2.1215544773491946
4.549247320322394,4.641228387483385,5.571746667247411,1.9319355942262186
4.595659604197228,4.807701913268276,5.591066023189673,1.7253165985987566
4.643736623329911,4.978565808680113,5.608319189175661,1.5009577880514355
4.693522281416712,5.154779487262239,5.623328767056175,1.2580929021522782
4.745070076289334,5.337488822987853,5.6359096960776975,0.9959353414988874
4.798444964519213,5.528021015085669,5.645869049492687,0.7137031535427474
4.853725174670069,5.727855438387197,5.653006081028114,0.41067988094810715
4.911003729053942,5.938551136711095,5.657112879837595,0.0863403943749359
4.970389240421053,6.16159814888744,5.657976283781345,-0.2594097775808967
5.032005221909928,6.398138927901535,5.655382186005536,-0.6258035152605921
5.095986611188943,6.648477064892812,5.64912415085293,-1.0104712469637727
5.162471381837871,6.911260195689072,5.639019438383292,-1.4082316545115237
5.231583983794762,7.182222287487493,5.624937121838176,-1.8092594305386318
5.303406206669637,7.452481398195157,5.60684452753279,-2.1966451586057127
5.377931020651588,7.706780200600939,5.584878075946732,-2.543937537040978
5.454998822657598,7.9228971126536445,5.559438700576322,-2.814476366943336
5.534227793784134,8.074444393633799,5.531293936906889,-2.9657427950790924
5.614972237720472,8.138788831282167,5.501636508956098,-2.961238081494986
5.6963601260332934,8.107689494907929,5.472024128141149,-2.7863962238407316
5.777437020982373,7.992786903581953,5.444160165902741,-2.4570816709964785
5.857364890018193,7.820081686282225,5.419589349192776,-2.011975193736535
5.9355657068810155,7.6179388997325335,5.399469597255411,-1.4951508496944368
6.011745095878341,7.4080717221362,5.384518088758467,-0.9425391326775504
6.085825813099703,7.203131290768475,5.3750926974316915,-0.3778337225002403
6.1578571260073875,7.008415421416712,5.371314360206689,0.18548776245737364
6.227941280221555,6.824516527458784,5.373169237831263,0.7405719743850672
6.296186445496143,6.649432108380372,5.380574957575114,1.284232431468598
6.362680766579946,6.479905088660768,5.3934172818898,1.8150469567746388
6.427479817466554,6.312187537937697,5.411567751457547,2.332285947137674
6.490601692845931,6.142454611367268,5.434890610928924,2.835371412118997
6.552026238959604,5.967027634151014,5.4632443250501135,3.3236468168278415
6.611696515301114,5.782499483676997,5.496480793218392,3.796322366161243
6.669521510137884,5.585811481965951,5.534444016880005,4.252517696474997
6.725379624957544,5.374305190652641,5.5769691938447545,4.6913573540113385
6.77912267686407,5.145758251643692,5.623882767384868,5.112092584242882
6.830580259380507,4.898405989501657,5.675003693227296,5.51423253440523
6.879564319275524,4.630947067946575,5.730146018571348,5.897673152200419
6.92587378995499,4.342530520021582,5.789122750093353,6.26281519959688
6.969299095155206,4.032722107850903,5.8517509020893215,6.610665090251124
7.009626316233715,3.70144975645708,5.9178575529918325,6.942914153525878
7.046640813798286,3.348930536172572,5.987286694527091,7.26199332827662
7.080130119160011,2.9755853872951006,6.059906627809857,7.571100583715455
7.109885973032962,2.581952949177533,6.135617633647012,7.874196307327899
7.135705502524737,2.168621674143245,6.214359596720291,8.17595527001143
7.15739171926617,1.7362123748370304,6.296119149420405,8.48164869220564
7.17475384301454,1.2854661092453306,6.380935636342461,8.796899691098355
7.1876085041069935,0.817532509222432,6.468904633253445,9.127199080689444
7.195783829199218,0.33462143122086485,6.560176624060339,9.476971305899646
7.199130043511427,-0.15871915028426292,6.654946337119335,9.847833453672276
7.197542852008584,-0.6533381574444324,6.753424671656058,10.235536101416725
7.19100947043414,-1.1319480499568717,6.855780032670225,10.625146246334097
7.179689989934571,-1.5648210301541208,6.962031495133566,10.985040761272959
7.16404177963303,-1.9076047606174917,7.071881902746296,11.263490761314598
7.144965732026855,-2.107939169986679,7.184516810359442,11.396799263334318
7.1238863403269885,-2.1267734095597057,7.298484802992785,11.337014735007706
7.102618606231392,-1.964700058077418,7.411854950342862,11.086283597281627
7.082971605650617,-1.665988992269832,7.5227177863156784,10.701417497662817
7.066311715727919,-1.2922271077198553,7.629731961292307,10.258727815253003
7.053389444650721,-0.8937693298081348,7.732319239444837,9.817393756718603
7.044451751352639,-0.5004827877799156,7.8304931770120225,9.409028483086264
7.0394469234748405,-0.12619019176768564,7.924583461842885,9.044788664978203
7.0381850215571635,0.22443403923087574,8.015031348492666,8.724899965863857
7.040429361949473,0.5510388502867796,8.102280348151305,8.444969941069383
7.045939750452341,0.8549844186309214,8.186730047562,8.19922435378508
7.05448959463865,1.1381027759410964,8.26872229109985,7.981929998576326
7.0658706223980605,1.402168291781138,8.348541591085613,7.787926609801961
7.079892305315872,1.648704879154845,8.426420857183633,7.61276419831624
7.0963793541074205,1.8789439498847642,8.502548499166796,7.452682135804159
7.115168793606268,2.0938454106510314,8.577075320524838,7.304535001932237
7.136107247712779,2.294141648165837,8.65012067054416,7.165708937258596
7.1590486641944375,2.4803867581361123,8.721777759916746,7.034044871112946
7.183852531775798,2.6530035007886412,8.792118208627876,6.907773236796285
7.210382566783685,2.8123250660390284,8.86119594099584,6.785460043291896
7.238505817444075,2.9586307465300625,8.929050541428758,6.665962515194353
7.2680921249093755,3.09217546596634,8.995710166580702,6.54839217233937
7.2990138795690385,3.213213450707784,9.061194088304095,6.432083408882778
7.331146014076117,3.322016464555405,9.125514922392924,6.31656600026964
7.364366178721671,3.4188870822334607,9.18868058239562,6.201540364683058
7.398555049544005,3.504167509563085,9.25069598604245,6.0868547698221125
7.433596724639636,3.578244484751591,9.31156453374067,5.972483981756798
7.469379169487151,3.6415508169835253,9.371289373558238,5.8585090931556145
7.505794677656986,3.6945641315396514,9.429874464489794,5.745098444663226
7.542740318972383,3.737803390423227,9.487325448936426,5.632489671210667
7.580118352876616,3.771823741055696,9.543650345648533,5.520972972605823
7.6178365902871725,3.797210212499119,9.598860075374592,5.4108757342625955
7.6558086924121636,3.814570730569005,9.652968832717217,5.302548619261664
7.693954399717853,3.8245288634579846,9.705994318909834,5.196353226716742
7.732199688352433,3.827716642349972,9.757957851177002,5.092651372385867
7.770476854775933,3.8247677314299287,9.80888436490086,4.9917960030107
7.808724532090232,3.8163111527971076,9.858802324930968,4.894123711776012
7.846887643618203,3.802965707448203,9.907743562048728,4.7999487826779355
7.884917300692685,3.7853351761648257,9.955743049875506,4.709558659033543
7.922770652454333,3.7640043353147825,10.002838636465842,4.623210707078781
7.9604106958074805,3.7395357828855635,10.04907074353663,4.541130129758256
7.997806053636336,3.7124675394237556,10.094482044834212,4.463508877829917
8.034930729030574,3.683311366339691,10.139117133612512,4.390505404240067
8.07176384269397,3.6525517292919485,10.183022187654913,4.322245112081803
8.10828935998689,3.6206453259482436,10.22624463877573,4.258821354988595
8.144495813246373,3.5880210941317703,10.268832852325616,4.200296860258489
8.18037602418769,3.5550806170509164,10.310835820928201,4.146705458224067
8.2159268303582,3.522198845924763,10.352302875510441,4.098054015435075
8.251148818817446,3.4897250659446555,10.393283415664792,4.054324483356784
8.286046069476892,3.4579840383930507,10.43382666049836,4.015475987947854
8.320625909860823,3.4272772592653156,10.473981420377838,3.981446898274529
8.354898682453475,3.3978842824385844,10.513795889360583,3.9521568239942297
8.388877525277861,3.370064062958347,10.553317457600526,3.9275085019673477
8.422578165907444,3.3440562831276437,10.5925925426202,3.9073895413885715
8.456018728738721,3.320082630631642,10.631666438034085,3.891674004692906
8.489219555045038,3.2983480038273574,10.670583178081014,3.8802238081596028
8.522203035083312,3.2790416245431357,10.70938541616261,3.872889931714355
8.554993451328743,3.2623380432744145,10.748114315479754,3.8695134320404194
8.587616831761487,3.2483980255691023,10.786809449800158,3.8699262568861026
8.620100812017178,3.2373693117255398,10.825508712369018,3.8739518615342594
8.652474505134434,3.229387244748503,10.86424823098436,3.8814056309101037
8.684768377581918,3.2245752639007783,10.903062287293462,3.892095112869644
8.717014130220926,3.2230452632279953,10.941983238422159,3.9058200699445025
8.749244582853207,3.2248978161992805,10.981041439121604,3.9223723583187073
8.7814935610152,3.230222269167704,11.020265162704792,3.9415356441637646
8.813795783706876,3.239096707776811,11.05968051914643,3.963084968728719
8.846186750784645,3.251587801777662,11.099311368833716,3.9867861748244
8.87870262880242,3.2677505350182496,11.13917923058196,4.012395208590799
8.911380134152603,3.2876278286543905,11.179303182667867,4.03965731171129
8.944256412439147,3.311250066924446,11.21969975578498,4.068306120537397
8.977368913108391,3.3386345361305567,11.260382816990354,4.0980626898961505
9.010755258469697,3.3697847887622463,11.301363443889317,4.128634460636425
9.04445310635732,3.4046899459554663,11.342649788495681,4.159714191185324
9.078500005816874,3.4433239526602146,11.384246930407533,4.190978874476274
9.112933245343477,3.4856448009428194,11.426156719152296,4.222088662519385
9.147789693352905,3.5315937377222224,11.468377605777489,4.252685821559793
9.183105630730127,3.5810944738858477,11.510904463993088,4.282393741175156
9.218916575468986,3.634052412119024,11.55372840140484,4.310816020792603
9.255257099590176,3.6903539109110066,11.596836561612765,4.337535656996054
9.292160638699286,3.7498656021136836,11.640211918182725,4.362114354745187
9.329659294720424,3.8124337792301413,11.683833061730176,4.3840919854115485
9.367783632512724,3.8778838734796612,11.727673981584292,4.402986214617311
9.40656247124752,3.9460200348923284,11.771703843730466,4.418292323593944
9.446022671596443,4.016624836594061,11.815886766966406,4.42948324960629
9.486188919962384,4.08945912250678,11.860181599462468,4.436009874426051
9.527083511187453,4.164262022437686,11.904541698206728,4.43730159542923
9.568726131411829,4.240751164532825,11.94891471416102,4.432767222137576
9.611133643057157,4.318623123868295,11.993242386382397,4.421796252291307
9.65431987429584,4.397554157985399,12.03746034890531,4.40376059592881
9.698295415875695,4.4772012956606195,12.081497954864597,4.378016833127087
9.743067428832301,4.557203863993195,12.125278123195868,4.343909110069916
9.788639467472233,4.637185560325738,12.168717214296567,4.300772797175478
9.835011323075491,4.716757198229172,12.211724942268322,4.247939049321166
9.882178895057784,4.795520278579617,12.254204332761534,4.184740417763045
9.930134097843581,4.87307155447867,12.296051736939164,4.110517660945723
9.978864813388368,4.949008768307528,12.337156913548622,4.024627880715575
10.028354901071443,5.022937735638858,12.377403192355777,3.926454064442731
10.078584278427831,5.09448092870685,12.416667733000205,3.815416035186157
10.1295290877149,5.163287666548546,12.454821893352067,3.6909826954111997
10.181161964380385,5.229045945925896,12.491731720306179,3.5526852917195777
10.233452423839644,5.291495845450981,12.527258573223374,3.4001312300312807
10.286367382294154,5.350444307819112,12.561259885523688,3.2330177407231475
10.339871825372345,5.4057809601677835,12.59359006293092,3.0511444476415495
10.393929634974024,5.457494485442671,12.624101507407335,2.854423658704777
10.44850457982845,5.505688930142075,12.652645743994382,2.6428870016019093
10.50356146912987,5.550599253212057,12.679074614010402,2.4166869124162624
10.559067461661991,5.592605416746712,12.703241483134564,2.176091481994004
10.614993515829457,5.6322444185874865,12.725002397954503,1.9214712977536508
10.671315960015333,5.670219888772235,12.74421711093204,1.6532771903586037
10.728018158903055,5.707409221415727,12.760749882835626,1.3720081801934743
10.785092251117213,5.744868679795948,12.77446996463756,1.0781693612459076
10.842540937915173,5.783837468212868,12.78525165825002,0.7722198744170536
10.900379312597302,5.825742372401578,12.792973856994191,0.45451140435335247
10.958636736321317,5.872205193108139,12.797518971037725,0.1252176765690619
11.017358788252398,5.925055807546911,12.798771147803416,-0.2157448564779872
11.076609346327867,5.986354282310815,12.796613699238636,-0.5688056279344083
11.136472889150975,6.058426038259974,12.79092564295929,-0.9348394243167224
11.197057149533574,6.143914640183727,12.781577248716124,-1.31527965051264
11.25849629593541,6.24585729818475,12.768424452210997,-1.712249812311186
11.320954868917259,6.367788368674096,12.751301954087886,-2.1287186647069256
11.384632752604,6.513875243278925,12.730014767440817,-2.5686837506826907
11.44977150503679,6.689086911909081,12.70432792993399,-3.0373824393386215
11.51666237415588,6.899382891243639,12.673954105540604,-3.541511455617994
11.585656203068316,7.1518761434655795,12.638538990984424,-4.089386874110411
11.657174964502971,7.454836767001445,12.59764512224332,-4.6908524904173765
11.731723332172985,7.817190196410467,12.550736597339146,-5.356442172481041
11.80989523413709,8.246664050046762,12.497172175614335,-6.094596365629195
11.892361874637556,8.744668649545629,12.436226211958042,-6.904229131994665
11.979808561133012,9.294223951756909,12.367183920638094,-7.757461382435008
12.072750800650581,9.836797493740232,12.289609306813745,-8.566759297248026
12.171118775587983,10.245807255841934,12.203941713841264,-9.147608696823854
12.273576848146403,10.348330515590002,12.112465626873025,-9.249781395593306
12.377060153302303,10.063019847579284,12.019967812917091,-8.7534094453678
12.477690351778095,9.519168874540618,11.932433718463413,-7.838972558237269
12.572882040523501,8.925949882766304,11.85404399288104,-6.803765064772357
12.662141539351165,8.403396630692177,11.786006342233318,-5.821801540429247
