th1 (rad),w1 (rad/s),th2 (rad),w2 (rad/s),a1 (rad/s^2),a2 (rad/s^2)
4.087714913417759,-2.471752033337313,5.089726425287077,1.8088580952606246,9.661946981329788,-1.2410934871605812
4.062997393084387,-2.375132563524015,5.107815006239684,1.7964471603890189,9.331221190257796,-0.5198140319628389
4.039246067449146,-2.281820351621437,5.125779477843574,1.7912490200693905,9.046023780817503,0.1550271999629705
4.016427863932932,-2.191360113813262,5.143691968044268,1.7927992920690201,8.803546415765595,0.7872258582917694
3.994514262794799,-2.103324649655606,5.161619960964958,1.8006715506519377,8.60113783631105,1.3806367455373372
3.973481016298243,-2.0173132712924953,5.179626676471478,1.8144779181073112,8.436382192888015,1.9390150271758402
3.953307883585318,-1.932949449363615,5.197771455652551,1.8338680683790696,8.307132490717118,2.4659284184907757
3.9339783890916817,-1.8498781244564437,5.216110136336342,1.8585273525639774,8.211516974449493,2.9647133021315875
3.9154796078471175,-1.7677629547119489,5.234695409861982,1.8881744855852933,8.147929725267353,3.4384572716201567
3.8978019782999977,-1.6862836574592754,5.253577154717835,1.9225590583014949,8.115012478357832,3.889996855715551
3.880939141725405,-1.605133532675697,5.27280274530085,1.9614590268586505,8.111631913865068,4.321923251285766
3.864887806398648,-1.5240172135370464,5.292417335569437,2.004678259371508,8.136854906364562,4.736591524094493
3.8496476342632775,-1.442648664473401,5.312464118163152,2.052044174612453,8.189923089284989,5.136130426228917
3.8352211476185434,-1.360749433580551,5.332984559909276,2.103405478874742,8.270227374190194,5.522451055208434
3.821613653282738,-1.2780471598386491,5.354018614698023,2.1586299894268266,8.377282612972197,5.897253259544946
3.8088331816843515,-1.1942743337089272,5.375604914592292,2.217602522022276,8.51070230892918,6.262029120623545
3.7968904383472624,-1.1091673106196354,5.397780939812514,2.2802228132285114,8.670173110013238,6.618063104589308
3.785798765241066,-1.022465579519503,5.420583167944799,2.3464034442744044,8.85542871644668,6.966428642354641
3.775574109445871,-0.9339112923550362,5.4440472023875435,2.416067730697951,9.06622278258409,7.3079810025840475
3.7662349965223205,-0.8432490645291953,5.468207879694523,2.4891475407237915,9.302300376530974,7.643346400466923
3.7578025058770286,-0.7502260607638856,5.493099355101761,2.5655810047284606,9.563367574698786,7.972907355161317
3.75030024526939,-0.6545923850168978,5.518755165149046,2.645310078280074,9.849058811148204,8.296784387017551
3.743754321419221,-0.5561017969054157,5.545208265931847,2.7282779221502493,10.158901675789247,8.61481424518261
3.738193303450167,-0.4545127801475233,5.57249104515335,2.8144260646020753,10.492278966454522,8.926524988255748
3.7336481756486917,-0.34958999048297806,5.60063530579937,2.903691314484633,10.848387954596227,9.23110841529086
3.730152275743862,-0.24110611093701578,5.629672218944217,2.9960023986375415,11.226197030987061,9.52739057015987
3.727741214634492,-0.12884414062714517,5.659632242930592,3.0912763043391402,11.624400164477613,9.813801325539183
3.7264527732282207,-0.01260013898236903,5.690545005973983,3.189414317594532,12.04136994039408,10.088344396644073
3.726326771838397,0.10781356042157178,5.7224391491499285,3.2902977615609728,12.475110349183344,10.348569537193393
3.7274049074426125,0.23256466391340525,5.755342126765538,3.3937834569329066,12.923210968452176,10.591549121152516
3.7297305540817467,0.361796773597927,5.789279961334867,3.499698948144432,13.382804712007493,10.81386179314658
3.733348521817726,0.49562482071800196,5.824276950816311,3.6078375660758977,13.850531885182594,11.011586343736822
3.738304770024906,0.6341301395698279,5.8603553264770705,3.717953429513266,14.322513848179389,11.180309381729696
3.744646071420604,0.7773552780516217,5.897534860772203,3.829756523330563,14.794340090957064,11.315150663972538
3.7524196242011203,0.9252986789611923,5.935832426005509,3.9429080299702886,15.2610728861224,11.4108100141103
3.761672610990732,1.0779094078224163,5.975261506305212,4.057016130111392,15.717273812040668,11.461639510053686
3.7724517050689563,1.235082145942823,6.015831667606325,4.171632525211929,16.15705621357168,11.461743932281909
3.7848025265283844,1.3966527080785398,6.057547992858445,4.286249964534748,16.57416697453178,11.40511123530147
3.79876905360917,1.5623943778238576,6.1004104925037925,4.400301076887763,16.962099709284512,11.285772954788673
3.8143929973874084,1.7320153749167027,6.14441350327267,4.51315880643565,17.314239573317828,11.097991971646845
3.8317131511365754,1.905157770649881,6.189545091337027,4.624138726152118,17.62403734393467,10.836471987407206
3.850764728843074,2.0813981440892277,6.2357864785985475,4.7325034460261906,17.885207329631463,10.49657960544429
3.8715787102839663,2.2602502173855425,6.2831115130588095,4.837469242080633,18.091940249906724,10.074566376056218
3.8941812124578217,2.44116961988461,6.3314862054796155,4.938214905841195,18.23911883687182,9.567774998536144
3.918592908656668,2.623560808253328,6.380868354538028,5.033892655826556,18.322521011915402,8.974811625467266
3.9448285167392014,2.806786018372482,6.4312072810962935,5.123640772081229,18.338993617154554,8.295665457216135
3.972896376922926,2.9901759545440276,6.4824436888171055,5.20659742665339,18.286579349914323,7.531758047589568
4.002798136468367,3.173041748043171,6.5345096630836395,5.281915007129286,18.16458115613506,6.685908270588521
4.034528553948799,3.3546875596045216,6.587328813154932,5.348774089835171,17.97355205307324,5.7622047234768266
4.068075429544844,3.534423080135254,6.640816554053284,5.406396137069939,17.715204026584175,4.765785087837013
4.103419660346196,3.7115751204010956,6.694880515423984,5.45405398794831,17.39223679298196,3.7025308891618316
4.140535411550207,3.8854974883309152,6.749421055303467,5.491079296839928,17.008095039609604,2.5786951546784507
4.179390386433516,4.055578438727011,6.8043318482718655,5.516866248386712,16.56667029347009,1.4004885238259848
4.219946170820786,4.221245141661711,6.8595005107557325,5.530871133624972,16.071969844412692,0.17365537577971604
4.262158622237403,4.381964840105838,6.914809222091982,5.532607687382769,15.527779389262864,-1.0969252238083023
4.3059782706384615,4.537242633998467,6.970135298965809,5.521638435144686,14.937347830299906,-2.4075787619957136
4.351350696978447,4.686616112301466,7.025351683317257,5.497562647524728,14.303121936504931,-3.7560823477420664
4.398216858101462,4.829647331666515,7.080327309792504,5.460001824047308,13.626555727333342,-5.141792116603713
4.446513331418127,4.965912888939848,7.134927328032977,5.40858390288127,12.908015098474014,-6.565629746524793
4.496172460307526,5.094993039924589,7.189013167061789,5.342927605416023,12.146793087609684,-8.029913762837573
4.547122390706772,5.216460970800686,7.24244244311595,5.262628467787647,11.341245864257436,-9.538028340056446
4.599287000414779,5.32987342944326,7.295068727793827,5.167248184387082,10.489054319710432,-11.093929399399435
4.652585734709211,5.434763972640364,7.346741209637697,5.056308890393088,9.587610937965719,-12.7014953966345
4.706933374435614,5.530640082020021,7.397304298541628,4.929293936426743,8.634525950296245,-14.363739187190923
4.762239775255814,5.616985341522984,7.446597237905896,4.785656544554834,7.628239804803662,-16.081908892904924
4.818409628671044,5.69326773957102,7.494453803351444,4.6248374556257845,6.568719791227523,-17.85452084403128
4.875342306066754,5.758954937483296,7.5407021779077015,4.446292247185472,5.458206518666751,-19.676386933137042
4.932931855441587,5.813537002669963,7.585165100379556,4.2495283778541015,4.301960734406528,-21.537721424015544
4.991067225468287,5.856556610014028,7.627660384158097,4.034151163613946,3.1089436931243672,-23.42343591527783
5.049632791568427,5.887646046945272,7.668001895794236,3.7999168044611675,1.8923475167449344,-25.31275093585907
5.108509252037879,5.906569522112721,7.706001063838848,3.5467892951025766,0.6698801327949909,-27.179261327383525
5.1675749472590065,5.913268323440671,7.741468956789873,3.2749966818287413,-0.5362915919400292,-28.991581349259604
5.226707630493413,5.9079054075212705,7.774218923608161,2.985080868336145,-1.700020563568387,-30.71465601381157
5.285786684568626,5.8909052018855865,7.804069732291523,2.6779343081980294,-2.792121564139479,-32.31175303513425
5.344695736587481,5.862983986244192,7.830849075373503,2.3548167778466866,-3.7817571430145662,-33.74704827482008
5.403325576449923,5.8251664148140465,7.854397243151969,2.017346295098486,-4.638170296051805,-34.98860088216197
5.461577240598063,5.778784711853528,7.874570706102954,1.6674602862768664,-5.332587517125372,-36.011407535696875
5.519365087716599,5.725458836682274,7.891245308965723,1.3073462109198977,-5.840054343042327,-36.80015944780758
5.576619676083422,5.667058293251851,7.904318771074922,0.9393446164418219,-6.140942153053227,-37.3513287148223
5.633290259015941,5.605648871721319,7.913712217239341,0.5658313292935988,-6.221892458052824,-37.67429478097361
5.689346747733154,5.54342994714079,7.919370530532277,0.1890883814838627,-6.076042048218943,-37.79137664649839
5.744781047204562,5.482669526658601,7.921261414347115,-0.18882538498112122,-5.702482283629598,-37.736828387217
5.799607742471148,5.425644703822305,7.919373160497304,-0.5661936688532913,-5.105020575416033,-37.55503799681918
5.853864189509371,5.374594498068144,7.913711223808771,-0.941744048821483,-4.290402289766448,-37.29829917198967
5.907610134490052,5.33169047517048,7.904293783320556,-1.3147270405413796,-3.2661961962208155,-37.02457726769951
5.960927039241756,5.299028513208272,7.891146512915142,-1.6849728132183748,-2.038540391908648,-36.79566407488373
6.013917324373839,5.2786431092891855,7.874296784782959,-2.052929453967212,-0.6098975647884619,-36.676032290915025
6.066703755466731,5.272544133641301,7.853767490243286,-2.4196897768763623,1.023102117054739,-36.732589913783585
6.119429196803145,5.282775154811848,7.829570592474523,-2.787015676014198,2.8717215534083556,-37.03542248810419
6.172256948351263,5.311492370345931,7.801700435714381,-3.1573699008952403,4.957114022732427,-37.659503479456504
6.225371872054723,5.361063510573255,7.7701267367054285,-3.5339649356898053,7.312271931900659,-38.68722290953189
6.278982507160455,5.434186229892262,7.73478708734853,-3.9208371647851243,9.983800313583012,-40.211346002114496
6.333324369459378,5.534024233028092,7.6955787157006785,-4.3229506248062695,13.032987025302603,-42.337464058568784
6.388664611789659,5.664354103281118,7.652349209452616,-4.746325265391957,16.534660660536,-45.183677946048746
6.44530815282247,5.829700709886478,7.604885956798697,-5.198162044852444,20.570026368990508,-48.87211357956965
6.503605159921335,6.035400973576383,7.552904336350172,-5.686883180648141,25.20437917698224,-53.49956533714238
6.563959169657099,6.287444765346206,7.496035504543691,-6.221878834019565,30.42878201882804,-59.058145808252405
6.62683361731056,6.591732585534486,7.433816716203496,-6.812460292102089,36.020229341183665,-65.24252888253243
6.692750943165906,6.9519348789463224,7.365692113282475,-7.4648855809274135,41.23298080145085,-71.02175899332087
6.762270291955369,7.364264686960831,7.291043257473201,-8.175103170860622,44.20782331526247,-73.81683179802947
6.835912938824977,7.8063429201134555,7.209292225764595,-8.913271488840916,41.19764598788123,-68.42048376749196
6.913976368026112,8.218319379992268,7.120159510876186,-9.597476326515835,26.83122070881294,-47.367908682798344
6.996159561826034,8.486631587080398,7.024184747611027,-10.071155413343819,-1.3468131681126292,-7.287158256905683
7.081025877696838,8.473163455399272,6.923473193477589,-10.144026995912876,-34.665534912303336,39.6460746350916
7.165757512250831,8.126508106276239,6.82203292351846,-9.74756624956196,-56.913574427746234,70.81090090143394
7.247022593313593,7.557372361998777,6.724557261022841,-9.03945724054762,-62.405423987064324,78.39450467082987
7.322596316933581,6.933318122128133,6.634162688617365,-8.255512193839321,-57.83527177232773,71.83424388342429
7.3919294981548616,6.354965404404856,6.551607566678972,-7.537169755005078,-50.29301327210326,61.03912004925674
7.45547915219891,5.852035271683824,6.476235869128921,-6.92677855451251,-43.03980675972293,50.54805112393248
7.513999504915748,5.421637204086594,6.406968083583796,-6.421298043273185,-36.98770982282938,41.62469621095104
7.568215876956614,5.051760105858301,6.342755103151064,-6.005051081163675,-32.17775291733808,34.32274256290097
7.618733478015197,4.72998257668492,6.282704592339427,-5.661823655534665,-28.418702243645917,28.374395634748698
7.666033303782046,4.445795554248461,6.226086355784081,-5.378079699187178,-25.497598310157997,23.482232925637586
7.710491259324531,4.190819571146881,6.172305558792209,-5.143257369930802,-23.23499569121721,19.39560063744607
7.752399455036,3.958469614234709,6.120872985092901,-4.949301363556341,-21.49158206907728,15.919895696947629
7.7919841511783465,3.7435537935439362,6.071379971457337,-4.790102406586865,-20.16194703525376,12.908307038665246
7.829419689113786,3.5419343231913984,6.023478947391468,-4.661019336200212,-19.16648555224065,10.251195800036706
7.8648390323457,3.350269467668992,5.976868754029466,-4.558507378199845,-18.444357213553204,7.867144917440622
7.89834172702239,3.1658258955334597,5.931283680247468,-4.479835929025439,-17.947948944855572,5.69630155406786
7.929999985977725,2.986346406084904,5.886485320957213,-4.422872913484761,-17.63862154545792,3.6957163936524653
7.959863450038574,2.809960190630325,5.842256591822365,-4.385915749548236,-17.483413789070568,1.8362249776852981
7.987963051944877,2.6351260527396194,5.7983974343268825,-4.3675534997713825,-17.45242993129093,0.10045926107639777
8.014314312472274,2.46060175342671,5.7547218993291684,-4.3665489071606185,-17.51672381680203,-1.518352719186623
8.038920330006542,2.2854345152586895,5.711056410257562,-4.381732434352485,-17.64658221248566,-3.0170948247053397
8.061774675159128,2.108968693133833,5.667239085914037,-4.411903382599538,-17.810195779783708,-4.383260645285032
8.082864362090467,1.9308667353359958,5.6231200520880416,-4.455735989052389,-17.97278771259114,-5.595537170381522
8.102173029443827,1.7511388582100844,5.578562692197518,-4.511691360756204,-18.096343140117835,-6.62479695073274
8.119684418025928,1.570175426808906,5.533445778589956,-4.577939330263532,-18.140134040235626,-7.4358365509374815
8.135386172294018,1.3887740864065499,5.48766638528732,-4.652297695772907,-18.062241281857432,-7.990167479451772
8.149273913158083,1.2081516735879756,5.441143408329591,-4.732199370567424,-17.822206345303865,-8.250045101867553
8.161355429893963,1.029929610134937,5.3938214146239165,-4.8146998215861,-17.384771804956735,-8.183675675980615
8.171654725995312,0.8560818920853696,5.345674416408055,-4.896536578345906,-16.724386427375535,-7.771168427005261
8.180215544916166,0.6888380278116142,5.296709050624596,-4.9742482626159585,-15.829801327347509,-7.010359398965681
8.187103925194283,0.5305400145381391,5.246966567998436,-5.044351856605616,-14.707776975368304,-5.921269262374682
8.192409325339664,0.3834622447844561,5.19652304943238,-5.103564549229362,-13.384814794852108,-4.547866879382334
8.196243947787508,0.24961409683593502,5.145487403940086,-5.149043218023185,-11.906063080937235,-2.9561617224062156
8.198740088755867,0.13055346602656268,5.0939969717598546,-5.178604835247247,-10.331152822165187,-1.2284548272440272
8.200045623416132,0.0272419378049108,5.042210923407382,-5.190889383519687,-8.727540084156182,0.5453792789772709
8.200318042794182,-0.060033463036651025,4.990302029572185,-5.185435590729915,-7.162662211049187,2.2778266002877854
8.199717708163815,-0.1316600851471429,4.938447673664887,-5.162657324727037,-5.6965442767495755,3.8927944729671284
8.198401107312344,-0.18862552791463866,4.886821100417616,-5.123729379997365,-4.3762813797607,5.332062854053645
8.196514852033198,-0.23238834171224565,4.835583806617643,-5.070408751456829,-3.233186362955162,6.5582519528085115
8.194190968616075,-0.2647202053417973,4.784879719103074,-5.004826231928743,-2.2826227183541326,7.554416032672329
8.191543766562658,-0.2875464325253386,4.734831456783787,-4.92928207160202,-1.5259345754586622,8.321109709912323
8.188668302237405,-0.3028057782799253,4.685538636067767,-4.846070974502897,-0.9535986239436118,8.872082703357796
8.185640244454605,-0.3123417645193614,4.637077926322737,-4.757350147469319,-0.5487466950193725,9.229678010657217
8.182516826809412,-0.3178292314695551,4.5895044248480446,-4.665053367362747,-0.2904259195354942,9.420699171246941
8.179338534494716,-0.32073349066491,4.542853891174417,-4.5708463756502775,-0.15624037937269167,9.473149112173223
8.176131199588067,-0.32229589445863693,4.497145427417914,-4.4761148845285454,-0.12425793564270475,9.413942614180455
8.17290824064348,-0.32353847381506395,4.452384278572628,-4.381975458386741,-0.17422696263783244,9.267501662276565
8.169672855905329,-0.32528074344144225,4.408564523988761,-4.2893004417639755,-0.2882298655476784,9.055051790965683
8.166420048470915,-0.32816304209691904,4.365671519571121,-4.198749923854319,-0.4509235951704948,8.79441890615395
8.163138418049945,-0.332672278048624,4.3236840203325775,-4.1108057347927796,-0.6495058349146334,8.500148323121879
8.15981169526946,-0.3391673363977703,4.28257596298465,-4.025804251561561,-0.8735184641763909,8.1838065393647
8.15642002190548,-0.34790252103953423,4.242317920469034,-3.943966186167914,-1.1145697381224702,7.854366559784382
8.152940996695085,-0.35904821842075896,4.202878258607355,-3.8654225205700703,-1.366029828482452,7.518612073342439
8.149350514510877,-0.37270851670558347,4.164224033401655,-3.7902363998366457,-1.6227333481762425,7.1815220938910045
8.145623429343821,-0.3889358501873459,4.126321669403288,-3.7184211788977355,-1.8807073597013453,6.846616143833795
8.141734070841949,-0.40774292378435933,4.089137457614311,-3.6499550174593978,-2.136933240893722,6.5162521078168725
8.137656641604105,-0.42911225619329657,4.052637907439717,-3.584792496381229,-2.389144460194925,6.191876172937809
8.133365519042172,-0.4530037007952458,4.016789982475904,-3.522873734651851,-2.6356586810356197,5.874228276071517
8.12883548203422,-0.479360287605602,3.981561245129386,-3.4641314518911357,-2.8752407701412794,5.563508350696264
8.124041879158163,-0.5081126953070148,3.9469199306104743,-3.408496368384173,-3.106992561136497,5.259509236438757
8.118960752205092,-0.5391826209183798,3.9128349669266327,-3.3559012760197855,-3.330265160222397,4.961721948751596
8.113568925995908,-0.5724852725206038,3.879275954166435,-3.3062840565322693,-3.54458987004978,4.6694184673102805
8.107844073270702,-0.6079311712211015,3.846213113601112,-3.2595898718591667,-3.7496242598283773,4.381716512378287
8.10176476155849,-0.6454274138193853,3.8136172148825205,-3.215772706735384,-3.9451104103157033,4.0976300667425525
8.095310487420296,-0.6848785179225423,3.781459487815167,-3.1747964060679585,-4.130842848391471,3.81610873476234
8.08846170224107,-0.726186946406457,3.7497115237544874,-3.136635318720335,-4.306644125999313,3.5360684405789238
8.081199832777004,-0.7692533876664501,3.718345170567284,-3.101274634314546,-4.472346379964162,3.2564154640746943
8.07350729890034,-0.8139768514660918,3.6873324242241385,-3.0687104796737987,-4.627777531052623,2.976065393512921
8.065367530385679,-0.860254626776618,3.6566453194274007,-3.0389498257386696,-4.7727510468020515,2.693958229975024
8.056764984117912,-0.9079821372446385,3.6262558211700138,-3.0120102434389193,-4.907058409838577,2.409070600570444
8.047685162745465,-0.9570527213430242,3.5961357187356247,-2.987919537433215,-5.030463609139971,2.120425814485684
8.038114635532034,-1.007357357434424,3.5662565233612926,-2.966715279288358,-5.142699113271356,1.8271023185441133
8.02804106195769,-1.0587843485671375,3.536589370568409,-2.948444256102917,-5.243462898635714,1.5282409684857647
8.017453218472019,-1.1112189775534946,3.50710492800738,-2.9331618464180593,-5.332416197960999,1.2230514213128643
8.006341028696484,-1.1645431395331047,3.477773309543199,-2.9209313322049306,-5.409181709405222,0.9108178666341094
