th1 (rad),w1 (rad/s),th2 (rad),w2 (rad/s)
5.23294037824574,-3.0324920203684758,3.474026602986466,0.24520066088878847
5.202615458042055,-2.934618997020677,3.476478609595354,0.38582338490154544
5.173269268071848,-2.8386743526332303,3.4803368434443693,0.5179593394657024
5.144882524545515,-2.744677452068236,3.4855164368390263,0.6419573649109473
5.117435750024833,-2.6526131535829998,3.4919360104881356,0.7581820810524584
5.090909618489003,-2.5624377784471477,3.49951783129866,0.8670064254916932
5.065285240704531,-2.4740844477437074,3.508187895553577,0.9688054251355297
5.040544396227094,-2.387467792341686,3.517875949804932,1.0639511187462105
5.016669718303677,-2.3024880635415883,3.528515460992394,1.1528085279200497
4.993644837668262,-2.2190346866051596,3.5400435462715945,1.2357325635017884
4.97145449080221,-2.136989308413902,3.5524008719066122,1.3130657517845812
4.950084597718071,-2.056228395001386,3.565531529424458,1.385136667803568
4.929522313768057,-1.9766254357340878,3.579382896102494,1.4522589697654045
4.909756059410716,-1.8980528093995541,3.593905485800148,1.514730937654229
4.890775531316721,-1.8203833641649931,3.6090527951766904,1.5728354291287743
4.872571697675071,-1.7434917589001013,3.624781149467978,1.6268401760858835
4.85513678008607,-1.6672556081757872,3.641049551228837,1.676998355079377
4.838464224004312,-1.5915564676918639,3.6578195347796307,1.7235493737288405
4.822548659327394,-1.51628069118873,3.675055028516919,1.7667198230787597
4.807385852415506,-1.4413201842227001,3.6927222267477067,1.8067245524556192
4.7929726505732795,-1.3665730746425462,3.7107894722722627,1.8437678287033112
4.779306919826854,-1.291944314275425,3.729227150559296,1.8780445458199373
4.766387476684099,-1.2173462212792832,3.7480075960174952,1.90974145409976
4.754214014471306,-1.142698967911483,3.7671050105584927,1.939038380081497
4.742787024792191,-1.0679310141746197,3.786495394359308,1.9661094101381984
4.732107714650445,-0.9929794840200338,3.8061564884606898,1.9911240116660684
4.722177919810244,-0.9177904776226263,3.8260677285773506,2.0142480668124136
4.713000015034018,-0.8423193108040057,3.846210209245475,2.035644794807052
4.704576821925977,-0.7665306710940468,3.8665666571935455,2.0554755404990432
4.696911515215037,-0.6903986792923865,3.887121412598536,2.0739004088948727
4.690007528422113,-0.6139068458030662,3.9078604166874844,2.0910787285371564
4.683868459964082,-0.5370479125047486,3.928771203972856,2.10716933057181
4.678497980839035,-0.4598235734616883,3.9498428972785744,2.1223306353480886
4.673899745104418,-0.38224407127887927,3.971066203632055,2.136720544291067
4.670077304391629,-0.30432767018031276,3.992433409074966,2.150496141375175
4.667034027689827,-0.22610001168661714,4.0139383704887175,2.1638132154966647
4.66477302757296,-0.14759336376822693,4.035576502643684,2.1768256219910724
4.663297093935278,-0.06884577919293432,4.057344758863595,2.1896845080143756
4.662608636143349,0.010099816896269265,4.079241603943738,2.2025374320408337
4.662709634312312,0.0891965866869786,4.101266978264147,2.2155274119054846
4.663601600179181,0.16839476089569022,4.123422252383202,2.2287919383040844
4.665285547788137,0.24764261469299298,4.145710171766243,2.24246199125702
4.667761973935067,0.3268874120183349,4.168134791678813,2.256661095700254
4.671030848055251,0.4060762937314106,4.190701402635816,2.2715044492004792
4.675091610992565,0.48515708802892166,4.213416447127821,2.287098150065638
4.679943181872854,0.5640790254847311,4.236287428628477,2.303538548214649
4.685583972127701,0.6427933456372869,4.259322814110623,2.3209117345339516
4.692011905584074,0.7212537869132156,4.282531931455963,2.3392931775604127
4.699224443453207,0.7994169565108504,4.305924863231567,2.3587475096446826
4.707218613018315,0.8772425813806721,4.329512338328014,2.3793284586581462
4.715991038832122,0.9546936453993957,4.353305622914595,2.4010789161113686
4.725537975286116,1.0317364210808766,4.377316412075709,2.4240311284484046
4.735855339496925,1.1083404066150895,4.401556723360193,2.448206995358935
4.746938743563075,1.1844781806605609,4.426038793313783,2.473618457201734
4.75878352536968,1.2601251881784419,4.4507749778858,2.5002679529722194
4.771384777251465,1.335259470774146,4.475777657415522,2.5281489305303957
4.784737371959206,1.409861354619286,4.501059146720826,2.5572463918555095
4.7988359855053995,1.483913108189974,4.526631610639382,2.5875374577187196
4.813675116587299,1.5573985809055673,4.552506985216569,2.618991938177115
4.829249102396354,1.6303028324042264,4.57869690459834,2.6515728975199466
4.845552130720397,1.7026117607527382,4.605212633573539,2.6852372045938866
4.8625782483279245,1.7743117364441336,4.632065005619478,2.7199360616798276
4.880321365692366,1.8453892476544176,4.659264366236276,2.755615507199687
4.89877525816891,1.9158305609573594,4.686820521308273,2.792216889435528
4.917933563778483,1.9856214005652273,4.714742690202629,2.8296773101066224
4.937789777784135,2.0547466481910273,4.7430394633036945,2.867930038053959
4.958337244266046,2.1231900648205304,4.771718763684234,2.9069048944226052
4.979569144914251,2.1909340350380444,4.80078781262846,2.946528611617623
5.001478485264632,2.2579593340604838,4.830253098744636,2.9867251689539485
5.024058078605236,2.324244917287984,4.860120350434176,3.027416108344107
5.047300527778116,2.389767731961973,4.890394511517617,3.0685208335914997
5.071198205097736,2.4545025504181726,4.921079719853532,3.1099568969034515
5.095743230601918,2.518421824417056,4.952179288822567,3.151640276128999
5.120927448846088,2.5814955601127085,4.983695691583857,3.193485645982294
5.146742404447215,2.6436912133681347,5.01563054804368,3.2354066461530775
5.173179316580896,2.7049736053265185,5.047984614505211,3.2773161487495424
5.200229052634161,2.7653048583898827,5.080757775992706,3.3191265269838244
5.22788210121806,2.824644353025169,5.113949041262544,3.360749926413938
5.256128544748312,2.882948706099149,5.147556540526684,3.402098539415737
5.284958031809303,2.9401717717236617,5.181577525920841,3.44308488289266
5.31435974952654,2.996264665857,5.216008374749768,3.483622078558542
5.34432239618511,3.0511758161410807,5.250844595535353,3.5236241344696215
5.37483415434652,3.1048510386421455,5.28608083688005,3.563006225857098
5.405882664732942,3.157233643290127,5.321710899138621,3.601684972742966
5.437455001165843,3.2082645698636156,5.357727748866051,3.6395787113317226
5.469537646864479,3.2578825563296294,5.394123535979368,3.6766077557810037
5.502116472427775,3.306024341207624,5.430889613537178,3.7126946466864084
5.535176715839851,3.352624901375052,5.468016560004042,3.7477643824889646
5.5687029648536015,3.3976177263599743,5.505494203828931,3.7817446300439825
5.602679142117201,3.4409351296711574,5.543311650129371,3.814565910789354
5.637088493413913,3.48250859709883,5.581457309237265,3.8461617593261215
5.671913579384901,3.52226917118603,5.619918926830525,3.876468851774153
5.707136271096761,3.560147870233334,5.658683615348267,3.905427101983402
5.742737749799095,3.596076139276819,5.697737886368102,3.9329797245504867
5.778698511191863,3.62998632949452,5.737067683613606,3.9590732645867797
5.814998374486809,3.6618122014804575,5.776658416259474,3.983657595274876
5.851616496501613,3.6914894468124855,5.816494992212223,4.006685885394515
5.888531390969738,3.7189562213699143,5.856561851066168,4.028114540149391
5.925720953183437,3.744153682970808,5.896842996467662,4.047903119730544
5.963162490013145,3.767026525139607,5.937322027664967,4.066014241055303
6.0008327552645415,3.7875234982248234,5.97798217007552,4.082413468968175
6.03870799024679,3.8055979087021408,6.018806304765201,4.097069203829851
6.076763969333811,3.82120808735306,6.0597769968035,4.109952572806904
6.114976050207342,3.8343178171283006,6.100876522531569,4.121037332271502
6.153319228378625,3.8448967119040707,6.142086895854284,4.130299788503018
6.191768195497666,3.8529205380225173,6.183389893739315,4.137718743341893
6.230297400877891,3.858371471467585,6.224767081172733,4.1432754705863735
6.268881115592567,3.861238284744037,6.266199835878597,4.1469537277673565
6.3074934984400075,3.8615164589681834,6.30766937315627,4.148739806524572
6.346108663029689,3.85920821830025,6.349156771221516,4.1486226231927
6.384700745212691,3.8543224855970513,6.390642997453443,4.146593849455597
6.423243970068662,3.846874759979007,6.4321089359479995,4.142648081116884
6.461712717668452,3.8368869188223353,6.4735354167591685,4.136783041247427
6.500081586856675,3.8243869484387454,6.514903247171643,4.128999812287765
6.538325456341062,3.809408609326246,6.55619324529452,4.119303090185545
6.576419542434325,3.791991043306034,6.597386276196375,4.107701452405779
6.614339452867385,3.772178331050148,6.638463290720433,4.094207630724591
6.652061236177886,3.750019009411727,6.679405367027679,4.0788387791486365
6.689561426272003,3.7255655585661214,6.7201937548191655,4.061616727118783
6.726817081857664,3.698873869242458,6.7608099220903535,4.042568208364536
6.763805820550089,3.6700027002718874,6.801235604173999,4.021725056362928
6.800505847552808,3.6390131363149854,6.8414528547376285,3.9991243582914944
6.836895978915957,3.605968054984121,6.881444098320544,3.974808560602837
6.872955659465799,3.5709316116857184,6.921192183926572,3.9488255208283194
6.9086649755826555,3.533968749419813,6.960680439134856,3.9212285018711253
6.9440046630768535,3.495144739543843,6.9998927241535664,3.892076106799259
6.978956110472292,3.4545247581910856,7.038813485221559,3.8614321539205947
7.013501358054203,3.412173501688596,7.077427806760765,3.829365493640801
7.047623093071089,3.368154842999298,7.115721461697173,3.7959497702030567
7.081304641501082,3.322531529967292,7.153680959399203,3.761263132827156
7.114529956800755,3.2753649250165227,7.191293590727475,3.7253879019575424
7.14728360605092,3.226714784974146,7.22854746974705,3.688410197260571
7.179550753900662,3.1766390788851435,7.265431571719656,3.650419534659877
7.211317144689513,3.1251938410680538,7.301935767066255,3.6115084000576334
7.242569083100194,3.072433056237779,7.338050851066831,3.57177180746366
7.2732934136625715,3.0184085732861194,7.373768569141467,3.5313068490598756
7.303477499395433,2.963170044252398,7.409081637632066,3.490212244289802
7.333109199837956,2.906764885117456,7.443983760074964,3.4485878944141395
7.362176848689131,2.849238255292192,7.478469639019106,3.4065344481510893
7.390669231242053,2.7906330530214416,7.5125349835006165,3.3641528830640155
7.4185755617722675,2.730989924358839,7.5461765123312565,3.321544106309764
7.445885461015856,2.6703472838617017,7.579391953394354,3.2788085772578324
7.472588933854473,2.608741345681514,7.612180039166932,3.236045953370505
7.498676347311288,2.5462061642616587,7.644540498700637,3.1933547596302634
7.524138408953904,2.4827736843787065,7.67647404629694,3.1508320807424193
7.548966145797691,2.418473800758511,7.707982367104364,3.108573274352626
7.573150883805276,2.353334427948233,7.7390680998478905,3.0666717026212336
7.596684228084759,2.287381581517275,7.769734816874103,3.0252184787058565
7.619558043899931,2.220639471983337,7.799987001661162,2.9843022240335575
7.641764438619765,2.1531306131053007,7.829830023901497,2.9440088317056894
7.663295744750818,2.084875946344449,7.859270112218554,2.904421230981475
7.684144504214262,2.015894983362038,7.888314324528369,2.8656191475399617
7.704303454047882,1.946205968386803,7.916970516003769,2.827678854133717
7.723765513731751,1.8758260621423428,7.945247304545106,2.7906729063321976
7.742523774353174,1.804771548762493,7.973154033608428,2.7546698583203506
7.760571489840799,1.7330580667328934,8.000700732191632,2.7197339541825456
7.777902070508127,1.6607008643687038,8.027898071733457,2.6859247907785497
7.794509079151815,1.5877150796616848,8.054757319641242,2.6532969492224328
7.810386229948431,1.5141160434959315,8.081290289133467,2.62189959312144
7.825527390383391,1.4399196042346412,8.107509285064681,2.591776033130929
7.8399265864257375,1.3651424705198245,8.13342704539599,2.5629632590380322
7.853578011130936,1.2898025678099152,8.15905667798637,2.535491442495168
7.866476036809035,1.213919402724617,8.184411592411323,2.5093834156648844
7.878615230836282,1.1375144277037452,8.209505426567972,2.4846541333705408
7.889990375113319,1.0606113968658821,8.234351967901677,2.46131012881005
7.900596489081978,0.9832367023414195,8.258965069189777,2.4393489753914346
7.910428856105392,0.9054196788419675,8.283358558943691,2.4187587696680177
7.919483052893812,0.8271928629236638,8.307546146640371,2.399517652535583
7.927754981523048,0.7485921924330251,8.331541323165727,2.3815933876239614
7.9352409034473785,0.6696571311301468,8.355357257041966,2.364943016970939
7.94193747475868,0.5904307036076432,8.379006687211675,2.3495126143984977
7.947841781794756,0.5109594264971786,8.40250181335566,2.3352371563208223
7.952951376059728,0.4312931236854226,8.425854184918867,2.3220405278317777
7.957264307296582,0.3514846159108385,8.449074590197185,2.3098356787345806
7.96077915345569,0.27158927868357835,8.47217294698453,2.2985249396577645
7.963495046242526,0.1916644668879744,8.495158196381109,2.288000502623364
7.965411690911406,0.11176880952944314,8.518038201407343,2.2781450635895792
7.9665293790067,0.03196138362626316,8.540819652043238,2.268832616899032
7.966848992842963,-0.04769921810509599,8.563507978212229,2.2599293836566807
7.966372000661912,-0.1271559057479522,8.586107272048796,2.2512948483563204
7.965100441604433,-0.20635417215034985,8.608620220532359,2.242782871132995
7.963036899882929,-0.2852432060198189,8.631048049243688,2.2342428373912444
7.960184467822731,-0.3637770075934601,8.6533904776176,2.2255208027256583
7.956546697746796,-0.44191547574491663,8.675645685644858,2.216460589362415
7.952127542989347,-0.5196254365366055,8.697810291538481,2.206904790986724
7.946931288623981,-0.5968815860510686,8.719879339448347,2.1966956457608457
7.94096247276347,-0.6736673246392497,8.741846295905956,2.1856757423598534
7.934225799517077,-0.7499754651773255,8.763703053329555,2.173688530560748
7.926726044865304,-0.8258088041058192,8.785439938635163,2.160578615788164
7.918467956824245,-0.9011805504662362,8.807045724793044,2.1461918254508254
7.909456151319583,-0.9761146143841157,8.828507643047551,2.1303750432987876
7.899695005175742,-1.0506457620527374,8.84981139348054,2.1129758158537477
7.889188547555214,-1.1248196489103772,8.870941151639077,2.093841741784816
7.877940351066111,-1.198692746141399,8.891879569056925,2.0728196606339484
7.865953423604697,-1.272332177743577,8.912607765663266,2.0497546614077704
7.853230101827261,-1.3458154861705123,8.933105312277343,2.024488934264464
7.8397719469655565,-1.4192303440444818,8.953350201619987,1.9968604899841291
7.825579643525112,-1.4926742277690344,8.973318806519828,1.9667017723677114
7.810652901247422,-1.5662540662147717,8.992985824243505,1.9338381884803568
7.794990360585274,-1.640085874178539,9.012324206128309,1.8980865810937622
7.778589501843489,-1.7142943761867842,9.031305071939247,1.8592536671523878
7.761446558081621,-1.7890126215621718,9.04989760861077,1.817134465943611
7.743556431866,-1.8643815865963749,9.068068953270206,1.77151074122145
7.724912616000036,-1.9405497542297145,9.085784060682421,1.7221494831155473
7.705507118457739,-2.017672655851612,9.103005555513576,1.6688014585150779
7.685330391899223,-2.0959123536972846,9.119693570098727,1.6111998629781519
7.66437126836225,-2.1754368358014635,9.13580556872851,1.549059113269066
7.642616900004235,-2.256419288554285,9.1512961598612,1.4820738275108196
7.620052707118692,-2.339037204583258,9.166116898136309,1.4099180497424926
7.5966623350728595,-2.423471275999161,9.180216078633734,1.3322447873932697
7.572427622312868,-2.5099040151100533,9.193538526507666,1.2486859437146818
7.547328582161768,-2.598518036756282,9.206025385944812,1.1588527422739812
7.521343401794205,-2.6894939288355926,9.217613913367552,1.0623367567009807
7.494448462505849,-2.78300763095878,9.228237280934563,0.9587116751883114
7.466618386196261,-2.879227236341498,9.237824397686445,0.8475359445635935
7.4378261138328465,-2.978309130131832,9.246299757132082,0.7283564513808283
7.408043022531528,-3.0803933798579743,9.25358332164589,0.6007134051363548
7.377239088732948,-3.185598302346785,9.259590455697253,0.4641465884845487
7.34538310570948,-3.294014148383984,9.264231921582098,0.31820312766420933
7.3124429642256406,-3.405695873788604,9.26741395285874,0.16244690918995355
7.2783860054877545,-3.5206550056122685,9.26903842195064,-0.0035302780794904953
7.2431794554316316,-3.6388506665638167,9.269003119169845,-0.18009586714586961
7.206790948765994,-3.760179890266122,9.267202160498387,-0.367561992595061
7.169189149863333,-3.8844674437362636,9.263526540572437,-0.566169540481169
7.13034447542597,-4.011455468368165,9.257864845167626,-0.7760711338606902
7.090229920742288,-4.140793350482894,9.25010413382902,-0.9973135887774195
7.048821987237459,-4.272028327495887,9.240130997941245,-1.2298205505002417
7.0061017039625,-4.404597412768533,9.227832792436242,-1.4733761814171409
6.962055729834814,-4.537821265449446,9.213099030622072,-1.7276108953383562
6.91667751718032,-4.670900624437925,9.195822921668688,-1.9919901895739862
6.869968510935941,-4.802915853491374,9.175903019772948,-2.26580758788144
6.821939352401027,-4.932829998799124,9.153244943894133,-2.5481825521123858
6.772611052413036,-5.059495542282827,9.127763118373009,-2.838063938718309
6.722016096990208,-5.181664757790528,9.099382478985826,-3.134239177761379
6.670199449412302,-5.298003271939209,9.068040087208212,-3.435348869263937
6.61721941669291,-5.407106138004555,9.033686598515573,-3.7399059800289045
6.5631483553128644,-5.507515498858541,8.996287538715283,-4.0463183563630185
6.508073200324279,-5.597738791878965,8.955824355151652,-4.352912924233317
6.4520958124054895,-5.676266473331007,8.912295225909318,-4.657959800977323
6.395333147672179,-5.741588431462628,8.865715627899545,-4.9596946428971815
6.337917263357553,-5.792208611192783,8.816118681470574,-5.256337918969559
6.279995177245625,-5.8266578569162135,8.763555302280878,-5.546110411616864
6.221728598676463,-5.843505537431594,8.708094198164709,-5.827245041784185
6.163293543302147,-5.841371073224104,8.649821747746866,-6.097996005913123
6.104879832569906,-5.8189369539694145,8.588841787687736,-6.356647082050215
6.046690463030211,-5.774965120441017,8.525275316867233,-6.601521683107395
5.988940811825802,-5.708318598949828,8.45926010003616,-6.830997675146788
5.931857625836304,-5.6179899377246505,8.390950123284691,-7.043530012053798
5.875677726459057,-5.503137247381604,8.320514823164153,-7.237683760906067
5.820646353985241,-5.3631274806206575,8.248137985555092,-7.412179043928994
5.767015079179035,-5.197585058700535,8.1740161951158,-7.5659478161144715
5.71503922859203,-5.006442218557978,8.098356716954656,-7.698200352962508
5.66497480640645,-4.789985776370394,8.02137471342503,-7.808497093599789
5.617074948642746,-4.548893733105299,7.943289742489033,-7.896819454367836
5.571586011311693,-4.2842546697339206,7.864321547945354,-7.963631863576688
5.528743464614354,-3.997563511920708,7.784685229309588,-8.009927020164602
5.4887678294951465,-3.6906891171977727,7.704585959107942,-8.037247546840293
5.451860938323168,-3.3658120986638522,7.624213483639539,-8.047679810061807
5.41820281733653,-3.0253348843927115,7.543736685538921,-8.043819383932929
5.387949468492603,-2.6717695248440454,7.463298491699591,-8.028711802709854
5.361231773244162,-2.307611447211947,7.383011373672493,-8.005776083104715
5.338155658772043,-1.9352086181307238,7.302953612841446,-7.978721279854313
5.318803572590736,-1.5566351477105047,7.223166400042903,-7.951467625518565
5.303237221113631,-1.1735763773095576,7.143651723787717,-7.928083556386469
5.2915014573405355,-0.7872294002249951,7.064370888223852,-7.912748477178404
5.2836291633382855,-0.39821940252855187,6.985243403452068,-7.909749041033208
5.279646969313,-0.006528818773780032,6.906145913041736,-7.923514619817646
5.279581681125262,0.3885663839618061,6.826910766843559,-7.958695921856623
5.283467344964881,0.7885604645711501,6.747323807624993,-8.02028936245663
5.291352949610592,1.1957884796098273,6.667120914000427,-8.11380802233426
