th1 (rad),w1 (rad/s),th2 (rad),w2 (rad/s),a1 (rad/s^2),a2 (rad/s^2)
1.0784563228607769,-2.131044804403685,5.475645215612514,-0.40397913070703945,-7.297398898892178,9.13674782422805
1.05714587481674,-2.2040187933926068,5.4716054243054435,-0.3126116524647589,-7.165910919851126,9.648888128115887
1.035105686882814,-2.2756779025911182,5.468479307780796,-0.21612277118360004,-7.049638921480585,10.166632968348637
1.0123489078569028,-2.3461742918059243,5.46631808006896,-0.11445644150011368,-6.951638225613741,10.689491772896933
0.9888871649388435,-2.415690674062062,5.465173515653959,-0.007561523771144357,-6.875134649406309,11.217389522603908
0.9647302581982229,-2.484442020556125,5.465097900416247,0.10461237145489471,-6.823530894927384,11.750745397766082
0.9398858379926617,-2.5526773295053986,5.466144024130797,0.22211982543255554,-6.8004195904140685,12.290556945021095
0.9143590646976076,-2.6206815254095392,5.468365222385122,0.3450253948827665,-6.809605017249692,12.838490123943197
0.8881522494435122,-2.6887775755820362,5.4718154763339495,0.4734102961221985,-6.855135736999812,13.39697595650535
0.8612644736876919,-2.7573289329520345,5.476549579295171,0.607380055687252,-6.941350460696424,13.969314932055187
0.8336911843581716,-2.8267424375589987,5.482623379852043,0.7470732050078038,-7.072939544579295,14.559790755633822
0.8054237599825815,-2.8974718330047917,5.490094111902121,0.892671112564142,-7.2550243888139,15.173795353811226
0.7764490416525336,-2.970022076892931,5.499020823027763,1.0444090661022543,-7.493256635544257,15.817967063232018
0.7467488208836043,-3.0449546432483734,5.509464913688785,1.2025887367345744,-7.793938177633662,16.500343257050115
0.7162992744511205,-3.12289402502471,5.521490801056131,1.3675921693050757,-8.164161167491624,17.230526666996507
0.6850703342008734,-3.2045356366996263,5.535166722749182,1.5398974359750408,-8.611963664009782,18.019860187300765
0.6530249778338771,-3.2906552733397243,5.550565697108932,1.7200960378480485,-9.14648983452823,18.881595957038915
0.6201184251004799,-3.3821201716850067,5.567766657487413,1.9089119974184376,-9.778131133728147,19.831027351021255
0.5862972233836298,-3.4799014830222883,5.586855777461597,2.1072222709286503,-10.518601918224679,20.88552060109543
0.5514982085534069,-3.585087502204535,5.607928000170884,2.3160774769396046,-11.380861088783503,22.06432434086216
0.5156473335313616,-3.69889611309237,5.63108877494028,2.5367207203482263,-12.378715508004788,23.387929373066843
0.4786583724004379,-3.822683268172418,5.656455982143762,2.770600014078895,-13.525804508952389,24.876560231595054
0.44043153971871374,-3.957941313261942,5.684161982284551,3.0193656163948455,-14.833421971789798,26.54704061056135
0.4008521265860943,-4.10627553297984,5.7143556384485,3.284836022500459,-16.306208281858936,28.406681672557056
0.3597893712562959,-4.269337615798429,5.747203998673505,3.5689028392260296,-17.934029722074094,30.44184267913092
0.3170959950983116,-4.4486779130191705,5.782893027065765,3.8733212660173386,-19.677242662308636,32.59724646839505
0.2726092159681199,-4.645450339642257,5.821626239725939,4.199293730701289,-21.44105456523371,34.740054512479
0.2261547125716973,-4.859860885294594,5.863619177032952,4.546694275826079,-23.03360496461986,36.60118592364413
0.17755610371875136,-5.090196934940793,5.909086119791213,4.91270613506252,-24.104752772837212,37.68969016788649
0.12665413436934342,-5.331244462669165,5.958213181141838,5.2896030367413855,-24.076940072842078,37.1961854948747
0.07334168974265176,-5.5720138633975855,6.011109211509252,5.661564891690133,-22.122369188239816,33.961574698330246
0.017621551108675908,-5.793237555279983,6.0677248604261536,6.001180638673435,-17.32065744545331,26.699472320572895
-0.04031082444412393,-5.9664441297345165,6.127736666812888,6.268175361879163,-9.17266120070594,14.718875916061993
-0.09997526574146909,-6.058170741741576,6.19041842043168,6.415364121039783,1.6096010377440195,-0.9663026429808146
-0.16055697315888484,-6.042074731364136,6.254572061642078,6.405701094609975,12.793512396404692,-17.204802004204975
-0.2209777204725262,-5.914139607400089,6.318629072588178,6.233653074567925,21.673937618029136,-30.183459695802423
-0.2801191165465271,-5.697400231219797,6.380965603333857,5.931818477609901,26.777154645987856,-37.82139295171044
-0.33709311885872506,-5.429628684759918,6.440283788109956,5.553604548092796,28.3857143281981,-40.50604196343894
-0.39138940570632424,-5.145771541477937,6.495819833590884,5.148544128458407,27.682447539271084,-39.891345310040855
-0.44284712112110364,-4.8689470660852265,6.547305274875469,4.749630675357999,25.813983679810566,-37.58386543813948
-0.4915365917819559,-4.610807229287121,6.594801581629048,4.3737920209766035,23.53842924105898,-34.648004047788
-0.5376446640748271,-4.375422936876531,6.638539501838815,4.027311980498723,21.2606336205714,-31.6543172466209
-0.5813988934435924,-4.162816600670817,6.678812621643802,3.710768808032514,19.162227387655552,-28.860819930383414
-0.6230270594503006,-3.971194326794262,6.715920309724127,3.4221606087286798,17.30588324737398,-26.358532837720297
-0.6627390027182432,-3.798135494320522,6.7501419158114135,3.1585752803514766,15.697627953042655,-24.158567235498857
-0.7007203576614484,-3.6411592147900955,6.781727668614928,2.916989607996488,14.319557780154263,-22.23793708970256
-0.7371319498093493,-3.497963636988553,6.810897564694892,2.6946102370994622,13.14574040145344,-20.56191155216734
-0.7721115861792348,-3.3665062329740185,6.837843667065887,2.4889911215777887,12.149428667309792,-19.09423309953745
-0.805776648508975,-3.2450119463009206,6.862733578281666,2.2980487905824143,11.30601623985309,-17.801377362953968
-0.8382267679719843,-3.1319517839023896,6.885714066187489,2.1200350169528748,10.593992355046213,-16.65400323319351
-0.8695462858110081,-3.0260118603519275,6.906914416357018,1.9534949846209397,9.99500541307905,-15.627142478531617
-0.8998064044145274,-2.9260618062211368,6.926449366203227,1.7972235598356237,9.493566998389914,-14.699872045438045
-0.9290670224767388,-2.8311261362372377,6.944421601801583,1.6502248393812433,9.076643549299066,-13.85481533579744
-0.9573782838391112,-2.7403597007442473,6.960923850195395,1.5116766860232689,8.733245169643478,-13.077626275766887
-0.9847818808465536,-2.6530272490478124,6.976040617055628,1.3809004232656,8.454055477636125,-12.356518141362837
-1.0113121533370317,-2.568486694271451,6.989849621288284,1.2573352418519717,8.23111595842765,-11.681856409216065
-1.0369970202797463,-2.4861755346871743,7.002422973706804,1.140516677759811,8.057564850213316,-11.04581603093005
-1.061858775626618,-2.4055998861850414,7.013828140484402,1.0300585174505106,7.927425243778752,-10.442096061750885
-1.0859147744884685,-2.326325633747254,7.024128725658907,0.9256375568330018,7.835435465457759,-9.865682427881168
-1.1091780308259411,-2.2479712790926762,7.033385101227237,0.82698073255419,7.776914839191436,-9.312649830403986
-1.131657743616868,-2.170202130700762,7.041654908552779,0.7338542342501502,7.747658583734692,-8.779994931291592
-1.1533597649238756,-2.092725544863415,7.0489934508952805,0.6460542849372343,7.743856436729193,-8.265494376748943
-1.1742870203725098,-2.015286980496123,7.055453993744653,0.5633993411697449,7.762030412566834,-7.767582582490447
-1.194439890177471,-1.9376666763704549,7.06108798715635,0.48572351534484043,7.79898782537493,-7.285245410171998
-1.2138165569411756,-1.8596767981167055,7.065945222309798,0.41287106124312045,7.851786328704292,-6.8179268644863
-1.2324133249223428,-1.7811589348296626,7.070073932922229,0.34469179259825744,7.9177082494911835,-6.365446735804425
-1.2502249142706394,-1.7019818523347507,7.073520850848212,0.2810373252402132,7.994241942527415,-5.927927720335034
-1.2672447327939869,-1.6220394329094765,7.076331224100614,0.22175804803686283,8.079068279582051,-5.50573099217202
-1.2834651271230817,-1.541248750113656,7.078548804580983,0.16670073811514263,8.17005072775319,-5.099399505170706
-1.2988776146242182,-1.4595482428361242,7.080215811962134,0.11570674306343556,8.265227773879573,-4.709608493255958
-1.3134730970525794,-1.3768959650973285,7.081372879392768,0.06861065813087598,8.36280672158915,-4.337122740361564
-1.3272420567035528,-1.293267897881437,7.0820589859740775,0.025239430727260342,8.461158127711288,-3.982760228760712
-1.3401747356823672,-1.208656316604324,7.08231138028135,-0.01458817156034678,8.558810356418796,-3.6473617677424284
-1.3522612988484104,-1.1230682130401362,7.082165498565747,-0.05106178923777106,8.654443912748915,-3.3317661713060454
-1.3634919809788117,-1.036523773912647,7.081654880673369,-0.08437945095083152,8.74688537201553,-3.0367905085900238
-1.3738572187179383,-0.9490549201924916,7.080811086163861,-0.11474735603673175,8.83510084829608,-2.7632149057332374
-1.3833477679198631,-0.8607039117095308,7.079663612603493,-0.14237950509406413,8.918189044473042,-2.5117713412473535
-1.3919548070369585,-0.7715220212648003,7.078239817552553,-0.16749721850653768,8.99537399974958,-2.283135854302466
-1.3996700272496065,-0.6815682812673045,7.076564845367487,-0.19032857704956233,9.065997700328264,-2.0779235795848074
-1.4064857100622796,-0.5909083042640219,7.074661559596992,-0.21110781284541041,9.129512747761263,-1.8966860344571956
-1.4123947931049199,-0.4996131767864092,7.072550481468538,-0.23007467318998237,9.185475290417763,-1.73991011332251
-1.417390924872784,-0.4077584238822316,7.070249734736638,-0.24747377432320747,9.233538419781143,-1.6080182885161571
-1.4214685091116064,-0.3154230396844202,7.067774996993406,-0.26355395720836905,9.273446218053587,-1.5013695742223596
-1.4246227395084505,-0.22268857750388432,7.065139457421322,-0.27856765295059266,9.305028619781766,-1.4202608770063727
-1.4268496252834895,-0.12963829130606666,7.062353780891817,-0.2927702617206564,9.328197220595115,-1.364928430747392
-1.42814600819655,-0.03635631910011551,7.05942607827461,-0.3064195460281303,9.342942132978708,-1.3355490923962534
-1.428509571387551,0.057073102229671574,7.056361882814329,-0.31977503695209286,9.349329954223204,-1.332241355713999
-1.4279388403652544,0.1505664017719036,7.053164132444808,-0.33309745050923284,9.347502876894893,-1.3550660209588963
-1.4264331763475353,0.24404143054085253,7.049833157939715,-0.3466481107188218,9.33767893864309,-1.4040265376987469
-1.4239927620421269,0.33741821992728344,7.046366676832527,-0.3606883760958093,9.3201533769822,-1.47906911413207
-1.4206185798428541,0.4306197536971054,7.042759793071569,-0.37547906723713,9.29530102677854,-1.580082758326391
-1.416312382305883,0.5235727639648908,7.039005002399198,-0.3912798948203939,9.26357967440414,-1.7068994835902325
-1.411076654666234,0.6162085607089323,7.0350922034509935,-0.40834888965629623,9.225534263766157,-1.8592949708457494
-1.4049145690591447,0.7084639033465938,7.031008714554431,-0.4269418393647537,9.18180183662776,-2.0369900344777907
-1.3978299300256787,0.8002819217128714,7.026739296160783,-0.44731173970953164,9.133117083861256,-2.2396532838756564
-1.38982711080855,0.8916130925514839,7.0222661787636875,-0.46970827254828823,9.080318386706276,-2.4669054100289944
-1.3809109798830352,0.9824162764185467,7.017569096038205,-0.4943773266485782,9.024354239063472,-2.718325554549401
-1.3710868171188497,1.0726598188091814,7.0126253227717195,-0.5215605821940722,8.966289964763325,-2.993460237137643
-1.360360218930758,1.1623227184568146,7.007409716949779,-0.5514951845654487,8.907314679099926,-3.291835327070248
-1.3487369917461898,1.2513958652478139,7.001894765104124,-0.5844135378361511,8.84874849321256,-3.6129715456966838
-1.3362230330937117,1.3398833501799394,6.9960506297257625,-0.620543253293118,8.792050024589273,-3.956403982097835
-1.3228241995919123,1.4278038504258321,6.989845197192832,-0.6601072931140963,8.738824358416958,-4.321706095980965
-1.308546161087654,1.5151920940100017,6.983244124261691,-0.703324354073906,8.690831703950757,-4.708518674946749
-1.293394240147554,1.6021004110495092,6.976210880720951,-0.7504095408233735,8.649997108641417,-5.116584213337733
-1.2773732360370589,1.6886003821359235,6.968706785312717,-0.8015753829567509,8.618421731491809,-5.545787194425451
-1.2604872322156997,1.7747845994508415,6.96069103148315,-0.8570332549010055,8.598396337074188,-5.996200795733414
-1.2427393862211913,1.8607685628215833,6.95212069893414,-0.9169952628583395,8.592417854011968,-6.468140609205048
-1.2241317005929755,1.946692741361703,6.942950746305557,-0.9816766689503901,8.60321004789879,-6.962226085050968
-1.2046647731793585,2.032724841840691,6.933133979616053,-1.0512989298008997,8.633749590137347,-7.47945058200009
-1.1843375247609516,2.1190623377420645,6.922620990318044,-1.1260934356209005,8.687299062378994,-8.021261147814126
-1.163146901383531,2.2059353283658543,6.9113600559618344,-1.2063060470990417,8.767448721293013,-8.589649469495045
-1.1410875480998723,2.2936098155787845,6.899296995490844,-1.2922025417939922,8.878169157045404,-9.18725582262996
-1.1181514499440846,2.3823915071492388,6.886374970072904,-1.3840751000202918,9.023877299988603,-9.817488299701937
-1.0943275348725923,2.472630280149125,6.872534219072701,-1.482249983017311,9.209518536031453,-10.484660067317634
-1.069601232071101,2.5647254655094396,6.857711719242528,-1.5870965836904873,9.440667921785751,-11.194147802351775
-1.0439539774160067,2.6591321447272973,6.841840753405623,-1.699038061714005,9.72365352348784,-11.95257460670313
-1.0173626559687337,2.7563686799621756,6.824850372788482,-1.8185638077810364,10.065704499949785,-12.768020253402245
-0.9897989691691119,2.8570257249616735,6.806664734710672,-1.946244010315059,10.475125254326912,-13.65025992228908
-0.9612287119194952,2.9617769775049427,6.787202294607522,-2.0827466095379497,10.961493938075673,-14.611028430803941
-0.9316109421444458,3.0713919168856996,6.766374828512142,-2.228856893845989,11.535877212586334,-15.664298113710124
-0.9008970229755888,3.186750689011563,6.744086259573683,-2.3854998749830902,12.211040509918655,-16.826540813135438
-0.8690295160854732,3.3088610941107492,6.7202312608238515,-2.5537652831144446,13.001608623732073,-18.11691025447132
-0.8359409051443657,3.43887718034807,6.694693607992707,-2.734934385659158,13.924085214126118,-19.557216273049185
-0.801552133340885,3.578118032489331,6.667344264136116,-2.93050654838965,14.996553144738652,-21.17144090578742
-0.7657709530159917,3.7280835639367176,6.638039198652219,-3.142220957447524,16.237716575824674,-22.9843207862512
-0.7284901173766246,3.8904607296949645,6.606616989077744,-3.372064165310036,17.664649733968307,-25.01810558626714
-0.689585510079675,4.067107227034647,6.572896347424644,-3.622245221172707,19.288082139814808,-27.285852512209605
-0.6489144378093284,4.259988048432795,6.536673895212917,-3.8951037462948035,21.10311279313238,-29.77830352934762
-0.6063145573250005,4.471019176364119,6.497722857749968,-4.19288678158828,23.07170613848071,-32.43923405952511
-0.5616043655613593,4.701736237748926,6.455793989934086,-4.517279122183531,25.091135690544917,-35.12109609895059
-0.5145870031838701,4.952647594654375,6.41062119871225,-4.868490083173037,26.94059121594032,-37.510045906121135
-0.4650605272373263,5.222053506813778,6.361936297880519,-5.243590542234248,28.20061187837766,-39.012888742955596
-0.41283999216918854,5.504059625597555,6.309500392458177,-5.633719429663804,28.159507593882676,-38.62587784098239
-0.35779939591321297,5.785654701536382,6.2531631981615385,-6.019978208073628,25.78329721722626,-34.89296555294811
-0.29994284889784917,6.043487673708644,6.1929634160808025,-6.368907863603109,19.94489697534228,-26.22867756004861
-0.23950797216076272,6.242936643462067,6.129274337444771,-6.631194639203596,10.157631256873747,-11.95007005826202
-0.17707860572614204,6.344512956030805,6.062962391052736,-6.7506953397862155,-2.3818133000984054,6.256521518620381
-0.11363347616583398,6.320694823029821,5.995455437654874,-6.688130124600011,-14.641144425178513,24.12110175588873
-0.05042652793553577,6.174283378778036,5.928574136408874,-6.446919107041124,-23.493611495189104,37.235923832534546
0.011316305852244586,5.939347263826145,5.864104945338463,-6.074559868715778,-27.7815132797694,43.95385771330805
0.07070977849050603,5.6615321310284505,5.803359346651305,-5.635021291582698,-28.376500522241134,45.475938698156654
0.12732509980079054,5.377767125806039,5.747009133735478,-5.180261904601131,-26.819858506659177,43.947587015407905
0.18110277105885092,5.109568540739447,5.695206514689467,-4.740786034447051,-24.340677301529016,41.08311625799134
0.2321984564662454,4.866161767724157,5.647798654344997,-4.329954871867138,-21.653846539320682,37.88111626523426
0.28086007414348696,4.649623302330951,5.604499105626325,-3.951143709214796,-19.09956824690269,34.81770936774345
0.3273563071667965,4.4586276198619235,5.564987668534177,-3.6029666155373614,-16.80884646569203,32.076688526757444
0.3719425833654157,4.290539155205003,5.528958002378803,-3.282199730269787,-14.811556397366195,29.699940385309667
0.4148479749174657,4.142423591231341,5.496136005076106,-2.9852003264166904,-13.094228730996107,27.667965101709452
0.45627221082977915,4.01148130392138,5.466284001811939,-2.708520675399596,-11.627974989778158,25.938881302303457
0.49638702386899297,3.8952015540235987,5.439198795057943,-2.449131862376561,-10.381009437351212,24.466013126337366
0.535339039409229,3.7913914596500864,5.414707476434177,-2.2044717311131876,-9.323754162631477,23.20516292349988
0.5732529540057298,3.6981539180237717,5.392662759123046,-1.9724201018781888,-8.430535939046301,22.117143308870347
0.6102344931859676,3.613848558633309,5.372938558104264,-1.7512486687894855,-7.67979610505508,21.168240726724306
0.6463729787723007,3.537050597582758,5.355426071416368,-1.5395662615222423,-7.053707730884446,20.329854566132394
0.6817434847481283,3.4665135202739137,5.340030408801146,-1.3362677158609184,-6.537604093682497,19.577873350189137
0.7164086199508675,3.4011374793370885,5.326667731642537,-1.140488982359027,-6.1193927015786524,18.892028780969515
0.7504199947442384,3.339943552321302,5.315262841818947,-0.9515686945493318,-5.789023384703331,18.255320097698075
0.7838194302674514,3.2820533184742686,5.305747154873453,-0.769015493572351,-5.538031730756194,17.65353433496816
0.816639963452194,3.2266730011667066,5.29805699993773,-0.5924801502226694,-5.359159166184195,17.07485940847263
0.848906693463861,3.1730814095048645,5.292132198435503,-0.4217315561379431,-5.246043462535799,16.50957603708494
0.8806375075589097,3.1206209748795066,5.287914882874124,-0.2566357957670937,-5.192971381269169,15.949811677875687
0.9118437173077047,3.068691261066815,5.2853485249164525,-0.09713767898833686,-5.19468528305989,15.389340380907587
0.9425306299183729,3.016744408236216,5.284377148126569,0.05675572482073901,-5.2462363260505525,14.823414664949226
0.972698074000735,2.9642820449757106,5.284944705374777,0.2049898714702313,-5.34287772453866,14.248618209793776
1.0023408944504921,2.910853267730324,5.286994604089479,0.347476053568169,-5.4799922091975795,13.662730911031446
1.0314494271277954,2.8560533456383483,5.29046936462516,0.4841033626784835,-5.653048289451659,13.064600433355892
1.0600099605841788,2.7995228627438316,5.295310398251945,0.6147493670120424,-5.857580220339854,12.45401671069213
1.0880051892116172,2.740947060540433,5.301457891922065,0.7392895341189637,-6.089186800936579,11.83158780061894
1.1154146598170214,2.680055192531067,5.308850787263255,0.8576054121251531,-6.343544358283687,11.198617057182988
1.142215211742332,2.61661974894823,5.317426841384506,0.969591582696983,-6.616429561028453,10.556982714294135
1.1683814092318143,2.5504554533379458,5.327122757211476,1.0751614098399243,-6.903748096293173,9.909021671787553
1.1938859637651937,2.481417972375014,5.3378743713098755,1.1742516265577998,-7.2015657405642335,9.257419576246292
1.218700143488944,2.4094023149693715,5.349616887575453,1.2668258223202626,-7.506138945602568,8.605109243216528
1.2427941666386377,2.334340925513346,5.362285145798656,1.352876914752428,-7.8139427108748905,7.955179151360054
1.2661375758937712,2.256201498404597,5.37581391494618,1.4324287062660286,-8.121694182133398,7.310793239119882
