th1 (rad),w1 (rad/s),th2 (rad),w2 (rad/s),a1 (rad/s^2),a2 (rad/s^2)
5.185087042207332,2.1435452113725737,1.3842248133998047,-0.33301315842075346,5.586142195524033,-8.028909690259063
5.2065224943210575,2.199406633327814,1.3808946818155972,-0.4133022553233441,5.385067556109389,-8.507109278037213
5.228516560654335,2.253257308888908,1.3767616592623637,-0.4983733481037162,5.198007762207228,-8.984769184760776
5.251049133743225,2.30523738651098,1.3717779257813265,-0.5882210399513239,5.028503766083127,-9.459432580102579
5.274101507608334,2.3555224241718116,1.3658957153818132,-0.6828153657523497,4.880139189128079,-9.928989508875707
5.2976567318500525,2.4043238160630924,1.3590675617242898,-0.7821052608411068,4.756489449935752,-10.391803115880082
5.321699970010683,2.45188871056245,1.3512465091158787,-0.8860232919999076,4.661077791083411,-10.846832334039638
5.346218857116307,2.4984994884732843,1.3423862761958796,-0.994491615340304,4.597342382658856,-11.293746938842304
5.37120385200104,2.544472912299873,1.3324413600424765,-1.107429084728727,4.568618475062645,-11.733031893209457
5.396648581124039,2.590159097050499,1.3213670691951893,-1.2247594036608216,4.578139154208058,-12.166079368579759
5.422550172094543,2.6359404885925795,1.309119475158581,-1.3464201973466192,4.629057691139596,-12.595268637295302
5.448909576980469,2.6822310655039754,1.295655273185115,-1.4723728837195722,4.724493874922444,-13.02403606606592
5.475731887635509,2.7294760042532,1.2809315443479192,-1.6026132443802314,4.867606187583987,-13.456939569513906
5.503026647678041,2.77815206612904,1.264905411904117,-1.7371826400753705,5.0616913391735325,-13.899723989255653
5.530808168339331,2.8287689795207753,1.2475335855033634,-1.876179879967927,5.310312632042181,-14.359395862116502
5.559095858134539,2.881872105841197,1.228771786703684,-2.019773838589092,5.617458940354496,-14.844317885944943
5.587914579192951,2.938046695244742,1.2085740483177931,-2.1682170174485416,5.987736804554648,-15.364335072226561
5.617295046145398,2.997924063290289,1.1868918781433078,-2.321860368170807,6.426599218440413,-15.930946085123805
5.647274286778301,3.062190055474693,1.1636732744615996,-2.481169829022045,6.940615995698722,-16.557534539923687
5.677896187333048,3.13159621543168,1.1388615761713792,-2.646745174421282,7.537791834271662,-17.259675815780998
5.709212149487365,3.2069741337743967,1.1123941244271665,-2.819341932579092,8.227938708395865,-18.055534543596103
5.741281890825109,3.289253520858355,1.0842007051013756,-2.999897278015053,9.02310771084535,-18.966364776356166
5.774174426033692,3.3794845979668087,1.054201732321225,-3.189560925778615,9.938079331876253,-20.017115531473443
5.80796927201336,3.4788653912855714,1.0223061230634387,-3.3897320810933493,10.990895154965148,-21.23712184770227
5.842757925926216,3.588774342835223,0.9884088022525053,-3.602103299570372,12.203377537605892,-22.660811300759036
5.878645669354569,3.7108081182112818,0.9523877692568016,-3.8287114125779627,13.60150583296922,-24.32824882690679
5.915753750536681,3.846823176540974,0.9141006551310219,-4.071993900847031,15.215355451942663,-26.285119602049477
5.954221982302091,3.9989767310604005,0.8733807161225516,-4.334845096867525,17.077974059187245,-28.581291693972343
5.9942117496126945,4.169756471652273,0.8300322651538764,-4.620658013807248,19.221897947063553,-31.266170828249397
6.035909314329217,4.361975451122909,0.783825685015804,-4.933319722089743,21.67067479483685,-34.377202358840975
6.079529068840446,4.578682199071277,0.7344924877949065,-5.2770917456781525,24.42017026027724,-37.914267376269734
6.125315890831159,4.82288390167405,0.681721570338125,-5.65623441944085,27.399715960070456,-41.78611982773458
6.173544729847899,5.096881061274755,0.6251592261437164,-6.0740956177181955,30.39571301013223,-45.70455998697352
6.224513540460647,5.400838191376077,0.5644182699665344,-6.531141217587931,32.91311921140589,-48.991839281359496
6.2785219223744075,5.729969383490136,0.4991068577906551,-7.021059610401526,33.96190637288133,-50.282747807214115
6.335821616209309,6.069588447218949,0.42889626168663986,-7.523887088473667,31.849350155020815,-47.233465945530966
6.396517500681498,6.388081948769157,0.35365739080190317,-7.996221747928977,24.35289861452374,-36.76001804988815
6.4603983201691895,6.631610934914394,0.2736951733226134,-8.363821928427859,10.04373718725913,-16.88241461333065
6.526714429518333,6.732048306786986,0.1900569540383348,-8.532646074561166,-9.161251462646685,9.719021398828465
6.594034912586203,6.640435792160519,0.10473049329272315,-8.435455860572882,-27.247707165466903,34.671140839122266
6.660439270507808,6.367958720505849,0.020375934686994335,-8.08874445218166,-38.469073325263025,50.01202938296214
6.724118857712867,5.983267987253219,-0.06051150983482226,-7.588624158352038,-41.96074439185857,54.59613383561801
6.783951537585399,5.563660543334634,-0.13639775141834265,-7.042662819995858,-40.46772428876804,52.275245041433514
6.839588143018745,5.158983300446954,-0.20682437961830125,-6.519910369581523,-36.868053229590394,47.05152600047683
6.891177976023215,4.79030276815105,-0.27202348331411647,-6.049395109576754,-32.839502059719464,41.24277358925674
6.939081003704725,4.461907747553855,-0.332517434409884,-5.636967373684187,-29.09912588859292,35.830700008798736
6.983700081180264,4.170916488667926,-0.3888871081467259,-5.2786603735962,-25.86880014686597,31.11284403171608
7.0254092460669435,3.912228487199266,-0.4416737118826879,-4.967531933279039,-23.163573322585624,27.10328100645747
7.064531530938936,3.68059275397341,-0.4913490312154783,-4.696499123214465,-20.926925565136123,23.719444517928864
7.10133745847867,3.4713234983220485,-0.5383140224476229,-4.459304678035176,-19.086263785040334,20.858237682823688
7.136050693461891,3.280460860471645,-0.5829070692279748,-4.250722301206939,-17.57317220564994,18.423510711290383
7.168855302066607,3.104729138415146,-0.6254142922400442,-4.0664871940940355,-16.329321668617286,16.333886575265545
7.199902593450759,2.941435921728973,-0.6660791641809846,-3.90314832834138,-15.306961049684235,14.523239571569881
7.229316952668048,2.7883663112321306,-0.7051106474643983,-3.7579159326256812,-14.467615816745983,12.9387930629858
7.25720061578037,2.6436901530646706,-0.7426898067906551,-3.6285280019958233,-13.780397944157862,11.53874207370172
7.283637517311017,2.505886173623092,-0.7789750868106133,-3.513140581258806,-13.220426944167619,10.290067134284206
7.308696379047248,2.373681904181416,-0.8141064926232013,-3.4102399099159637,-12.767504523441369,9.166719954753406
7.3324331980890625,2.2460068589470024,-0.848208891722361,-3.3185727103684295,-12.405052143313254,8.148182407768061
7.354893266678532,2.1219563375138697,-0.8813946188260453,-3.237090886290749,-12.119277541083964,7.218343528684528
7.376112830053671,2.00076356210303,-0.9137655276889528,-3.164907451003904,-11.898527832341967,6.364629231882826
7.396120465674701,1.8817782837796102,-0.9454146021989919,-3.101261158685076,-11.732790639086899,5.577325639584803
7.414938248512497,1.7644503773887412,-0.9764272137858426,-3.045487902289228,-11.613311817511072,4.849047330054596
7.432582752286384,1.6483172592136306,-1.006882092808735,-2.996997428988682,-11.532305430976837,4.1743120643543
7.4490659248785205,1.5329942049038623,-1.0368520670986219,-2.955254308345139,-11.48273753521985,3.54919233331309
7.464395866927559,1.4181668295516638,-1.0664046101820732,-2.919762385012008,-11.458169903839547,2.9710212346958187
7.478577535223075,1.3035851305132684,-1.0956022340321934,-2.8900521726650497,-11.452653125948014,2.4381359882629523
7.491613386528208,1.1890585992537883,-1.1245027557588438,-2.86567081278242,-11.460660747239222,1.9496471424010386
7.503503972520746,1.0744519917813962,-1.153159463886668,-2.84617434135841,-11.47705750372621,1.5052254959968556
7.5142484924385595,0.9596814167441341,-1.181621207300252,-2.8311220863984414,-11.497095406546876,1.1049021468914055
7.523845306606001,0.8447104626786653,-1.2099324281642365,-2.8200730649295274,-11.516431659423938,0.748879989024343
7.532292411232787,0.7295461460844259,-1.2381331588135318,-2.812584265039284,-11.531162306299361,0.43735743986143555
7.539587872693632,0.6142345230214323,-1.2662590014639246,-2.80821069064067,-11.537865292782756,0.17036715034598188
7.545730217923847,0.49885587009360477,-1.2943411083703313,-2.80650701913721,-11.533646454402437,-0.05236614612811902
7.550718776624783,0.3835194055495804,-1.3224061785617034,-2.807030680598491,-11.51618197609065,-0.23154374062219707
7.554553970680279,0.2683575857886739,-1.3504764853676883,-2.809346118004713,-11.483751230323977,-0.3683820831589925
7.557237546538166,0.15352007348543414,-1.3785699465477355,-2.8130299388363027,-11.435254678284306,-0.46466873899284755
7.55877274727302,0.03916752670259109,-1.4067002459360984,-2.8176766262262314,-11.370212728972394,-0.5227823759101072
7.559164422540046,-0.07453460058713285,-1.4348770121983607,-2.8229044499853324,-11.28874304337215,-0.545675962017348
7.558419076534174,-0.18742203102085436,-1.4631060566982141,-2.828361209605506,-11.191515622678384,-0.5368246615109038
7.556544856223966,-0.2993371872476382,-1.4913896687942692,-2.833729456220615,-11.079686954209842,-0.5001422874625281
7.55355148435149,-0.41013405678973663,-1.5197269633564754,-2.83873087909524,-10.954816299985682,-0.4398723115970301
7.549450143783592,-0.5196822197895934,-1.5481142721474277,-2.8431296022112105,-10.818768699857003,-0.3604610726714546
7.544253321585696,-0.6278699067881635,-1.5765455681695397,-2.846734212937925,-10.673610261389763,-0.2664217675116505
7.537974622517814,-0.7346060094020611,-1.605012910298919,-2.8493984306130415,-10.521501726715604,-0.16219795289405112
7.530628562423794,-0.8398210266692172,-1.6335068946050495,-2.8510204101419823,-10.364596127753922,-0.05203464709297138
7.522230352157102,-0.9434669879467564,-1.6620170987064693,-2.851540756612912,-10.20494563105966,0.06013618236851859
7.512795682277635,-1.045516444257353,-1.6905325062725984,-2.8509393947892265,-10.044421561797682,0.1707907239473378
7.502340517835061,-1.1459606598753298,-1.7190419002204906,-2.849231487549753,-9.884650250867736,0.27688598888807814
7.490880911236308,-1.2448071623840071,-1.7475342150959883,-2.8464626276608724,-9.72696594610796,0.3759089825838274
7.478432839612468,-1.3420768218450867,-1.775998841372597,-2.842703537835034,-9.572380724889124,0.4659030804119115
7.465012071394018,-1.437800629093978,-1.8044258767509471,-2.838044507030915,-9.421570259762587,0.5454737048693037
7.450634065103078,-1.5320163316916038,-1.8328063218212562,-2.832589769982222,-9.274873491427416,0.6137763640360567
7.435313901786161,-1.624765066605878,-1.8611322195210784,-2.8264520063418614,-9.132303776377809,0.6704906323659183
7.419066251120102,-1.716088104369656,-1.889396739584497,-2.819747100018202,-8.993568882079067,0.7157837769044978
7.401905370076406,-1.8060237931904468,-1.917594210584679,-2.812589262249157,-8.858097253939006,0.750267532572737
7.3838451321445016,-1.8946047657298368,-1.9457201032071707,-2.8050865869234296,-8.725068213983915,0.7749511020354382
7.364899084487203,-1.981855447869676,-1.973770969076405,-2.797337075903075,-8.593444105738778,0.7911928918697119
7.345080530008507,-2.067789888927064,-2.0017443398354358,-2.789425146984378,-8.462002813317614,0.8006528792346272
7.324402631119236,-2.1524099170602398,-2.0296385913052797,-2.7814186181920317,-8.329369505783216,0.805246896799768
7.302878531948633,-2.235703612118072,-2.0574527774872,-2.7733661492240342,-8.194046854043924,0.8071035739047182
7.280521495827452,-2.317644080658511,-2.0851864389794406,-2.7652951134849872,-8.054443313411726,0.8085242063027217
7.257345055020867,-2.398188513792628,-2.1128393901142903,-2.75720987142196,-7.908899348168624,0.8119454577935412
7.23336316988294,-2.4772775072743145,-2.14041148882851,-2.7490904168440244,-7.755711691599019,0.8199045256353477
7.208590394810197,-2.554834624190305,-2.1679023929969503,-2.740891371587671,-7.593155888673919,0.8350062213157015
7.183042048568294,-2.630766183077044,-2.195311306712827,-2.732541309374514,-7.419507465503438,0.8598913181953652
7.156734386737523,-2.7049612577320783,-2.222636719806572,-2.72394239619256,-7.233062118331721,0.897205485047817
7.129684774160202,-2.7772918789153955,-2.249876143768498,-2.714970341342082,-7.032155324289742,0.9495681469014354
7.101911855371048,-2.847613432158293,-2.277025847181919,-2.7054746598730675,-6.815181754992112,1.0195406802161893
7.073435721049465,-2.915765249708214,-2.3040805937806494,-2.6952792530709058,-6.580614830043973,1.109593448293929
7.044278068552384,-2.981571398008654,-2.3310333863113586,-2.6841833185879667,-6.327026687053477,1.2220713067548103
7.014462354572297,-3.0448416648791885,-2.357875219497238,-2.6719626055204184,-6.053108772938144,1.359157351511943
6.984013937923505,-3.10537275260857,-2.384594845552442,-2.658371032005299,-5.757693181986195,1.5228348381230763
6.9529602103974195,-3.162949684428432,-2.411178555872495,-2.6431426836240686,-5.439774781882983,1.7148473682202543
6.921330713553135,-3.2173474322472617,-2.437609982708736,-2.625994209941866,-5.098534081230102,1.9366576135070468
6.889157239230663,-3.2683327730595626,-2.4638699248081544,-2.6066276338067955,-4.733360701480286,2.1894050289555897
6.856473911500067,-3.3156663800743655,-2.4899362011462225,-2.58473358351724,-4.343877222376241,2.473863193196213
6.823317247699324,-3.359105152298128,-2.515783536981395,-2.559994951585278,-3.9299630719948944,2.790397604659321
6.789726196176343,-3.398404783018077,-2.5413834864972475,-2.5320909755386847,-3.4917780291222766,3.138924955450007
6.755742148346162,-3.4333225633092996,-2.5667043962526344,-2.5007017259841846,-3.0297847957731854,3.5188750989512663
6.721408922713069,-3.4636204112670317,-2.5917114135124764,-2.465512974994672,-2.5447699807126036,3.9291571178730123
6.686772718600398,-3.489068111074158,-2.6163665432624232,-2.426221403815942,-2.0378627116485775,4.368131080539481
6.651882037489656,-3.509446738190644,-2.6406287573005827,-2.3825400930105474,-1.5105499672881828,4.8335872349313
6.61678757010775,-3.5245522378635257,-2.664454158230688,-2.3342042206612343,-0.9646875965922517,5.322734518486329
6.581542047729115,-3.534199113829448,-2.6877962004373006,-2.280976875476371,-0.4025058809966425,5.832200338278399
6.54620005659082,-3.538224172639415,-2.7106059691920645,-2.222654872093587,0.1733915899726933,6.358043577506927
6.510817814864426,-3.536490256739688,-2.732832517913,-2.1590744363185177,0.7600370001014155,6.89578268278002
6.475452912297029,-3.5288898867386735,-2.7544232622761853,-2.0901166094907175,1.354116589713699,7.440440452858624
6.440164013429642,-3.5153487208415366,-2.7753244283710923,-2.0157122049621314,1.9519992695195048,7.9866067548613096
6.4050105262212265,-3.4958287281463414,-2.7954815504207136,-1.9358461374135183,2.5497764642023157,8.528519815712825
6.370052238939763,-3.4703309635043182,-2.814840011794849,-1.85056093925639,3.1433137228693995,9.060165963862682
6.33534892930472,-3.4388978262756242,-2.8333456211874126,-1.7599592796177632,3.7283141298433757,9.575396736268466
6.300959951041964,-3.4016146849771904,-2.8509452139835902,-1.6642053122550786,4.300392909059204,10.068061150046484
6.266943804192192,-3.3586107558865983,-2.867587267106141,-1.5635247007546138,4.855161862500722,10.532149727621983
6.233357696633326,-3.3100591372615913,-2.883222514113687,-1.458203203478394,5.38832146326767,10.96194564912436
6.20025710526071,-3.2561759226289144,-2.897804546148471,-1.3485837469871504,5.895757604095617,11.352177302627293
6.167695346034421,-3.1972183465879582,-2.9112903836183426,-1.2350619739608775,6.373639266923893,11.698165644265526
6.135723162568541,-3.1334819539187193,-2.923641003357951,-1.1180803175182221,6.818512821824809,11.99595929947627
6.104388343029354,-3.065296825700471,-2.9348218065331335,-0.9981207245234595,7.22738837429476,12.24245034741613
6.073735374772349,-2.9930229419575234,-2.944803013778368,-0.8756962210492981,7.597813630565152,12.435464306022102
6.043805145352774,-2.917044805651872,-2.953559975988861,-0.7513415779890771,7.92793118078266,12.573818988860694
6.014634697296255,-2.8377654938440453,-2.961073391768752,-0.6256033881004701,8.216515905620382,12.657348579667472
5.986257042357815,-2.7556003347878413,-2.9673294256497567,-0.4990299023037954,8.4629903405957,12.686891337782287
5.958701039009937,-2.670970431381884,-2.972319724672795,-0.37216098892597255,8.66741718626526,12.664241619717433
5.931991334696118,-2.5842962595192316,-2.9760413345620544,-0.2455185727287982,8.830469600000741,12.592069155451394
5.906148372100926,-2.4959915635192242,-2.9784965202893425,-0.11959788117428427,8.953381299241833,12.47381052522868
5.8811884564657335,-2.406457750526806,-2.9796924991010854,0.005140224078002534,9.037879706141865,12.313539345424395
5.857123878960466,-2.3160789534653876,-2.9796410968603055,0.12827561753224648,9.086106255305243,12.115822650001675
5.833963089425812,-2.2252178909123352,-2.978358340684983,0.24943384403226324,9.100528498155315,11.885571282924825
5.811710910516689,-2.134212605930782,-2.9758640022446605,0.3682895568615115,9.083848747694057,11.627891813027501
5.790368784457382,-2.0433741184538414,-2.9721811066760453,0.4845684749917865,9.03891374323992,11.347946634607917
5.769935043272843,-1.9529849810214421,-2.9673354219261276,0.5980479413378657,8.968629243310838,11.050827665092296
5.750405193462629,-1.8632986885883338,-2.961354942512749,0.7085562179887887,8.875882669083383,10.741447563055605
5.731772206576745,-1.7745398618975,-2.954269380332861,0.8159706936193447,8.763476023426797,10.424450834325222
5.7140268079577705,-1.686905101663232,-2.946109673396667,0.920215201962597,8.634070398859805,10.104145718726121
5.697157756941138,-1.600564397674634,-2.9369075213770413,1.0212566591498582,8.490142542970908,9.78445646782254
5.681152112964392,-1.5156629722449249,-2.9266949547855425,1.1191012238280835,8.333953229952119,9.46889460543439
5.665995483241942,-1.4323234399454037,-2.9155039425472618,1.2137901698824274,8.167526625142253,9.1605470372729
5.651672248842488,-1.350648173693981,-2.9033660408484376,1.3053956402551563,7.992639436206454,8.862078438294043
5.638165767105549,-1.2707217793319165,-2.890312084445886,1.3940164246380968,7.810818411773392,8.575745165106818
5.6254585493122296,-1.1926135952141825,-2.8763719201995053,1.479773876289165,7.62334465528687,8.3034179691203
5.613532413360088,-1.1163801486613139,-2.861574181436614,1.562808055980368,7.4312632407281125,8.046610970713191
5.602368611873475,-1.0420675162540327,-2.84594610087681,1.6432741656875,7.235396717752155,7.806514643037624
5.591947936710935,-0.9697135490765112,-2.829513359219935,1.7213393121178764,7.036361248112813,7.584030899422545
5.5822508012201695,-0.8993499365953831,-2.8122999660987564,1.7971796211121018,6.834584298253265,7.379808742632022
5.573257301854215,-0.8310040936128504,-2.794328169887635,1.870977708538422,6.630323004775568,7.194279288917755
5.564947260918087,-0.7647008635650947,-2.775618392802251,1.9429205014275996,6.423682515529762,7.027689305511323
5.557300252282436,-0.7004640384097971,-2.756189187787975,2.013197394482713,6.214633779462788,6.880132685516807
5.550295611898338,-0.6383177006151692,-2.736057213843148,2.081998721337881,6.003030407420361,6.751579524042396
5.543912434892187,-0.5782873965409656,-2.715237226629769,2.149514516578305,5.788624351310707,6.641902653507396
5.5381295609267776,-0.5204011530278585,-2.6937420814639856,2.215933543113379,5.571080250283615,6.55090164720744
5.532925549396499,-0.46469035052502233,-2.671582746032852,2.2814425595854533,5.349988371304105,6.47832441313844
5.528278645891248,-0.4111904668119813,-2.6487683204369974,2.3462258037168375,5.124876130109885,6.423886580387489
5.524166741223128,-0.35994170551088245,-2.625306062399829,2.4104646695207124,4.8952182199076875,6.387288933888994
5.520567324168019,-0.31098952331180557,-2.601201415704622,2.4743375588596024,4.660445402287758,6.368233185498016
5.517457428934901,-0.264385069288928,-2.5764580401160257,2.5380198907145823,4.419952030638795,6.3664363850279475
