th1 (rad),w1 (rad/s),th2 (rad),w2 (rad/s),a1 (rad/s^2),a2 (rad/s^2)
1.8340744431284206,3.071893933826869,2.1480441699596526,1.4801605522979444,-6.9980133328055745,-4.470515556709547
1.8647933824666894,3.001913800498813,2.1628457754826322,1.435455396730849,-7.227544625641802,-3.8694477495626387
1.8948125204716775,2.929638354242395,2.1772003294499407,1.3967609192352226,-7.4290335601291675,-3.309485545594486
1.9241089040141015,2.8553480186411035,2.191167938642293,1.3636660637792777,-7.602644507418309,-2.7922988983005186
1.9526623842005126,2.7793215735669206,2.2048045992800858,1.3357430747962724,-7.748813640878529,-2.3187986809684786
1.980455599936182,2.701833437158135,2.2181620300280485,1.3125550879865877,-7.8682680002240675,-1.8891394436741975
2.007473934307763,2.6231507571558943,2.2312875809079142,1.2936636935498458,-7.962027552750305,-1.5027502078433512
2.0337054418793223,2.5435304816283915,2.2442242178434126,1.2786361914714122,-8.031391116766413,-1.1583905657469598
2.0591407466956064,2.463216570460727,2.2570105797581266,1.2670522858139426,-8.077908355291063,-0.8542275483295108
2.083772912400214,2.3824374869078166,2.269681102616266,1.2585100103306475,-8.10334099532302,-0.5879275231683391
2.107597287269292,2.3014040769545865,2.2822662027195726,1.252630735098964,-8.109616919243868,-0.3567568660135535
2.130611328038838,2.2203079077621477,2.2947925100705624,1.2490631664388285,-8.098780823944857,-0.15768528498740086
2.1528144071164594,2.139320099522699,2.307283141734951,1.2474863135889545,-8.0729448230843,0.012513650406043818
2.1742076081116863,2.058590651291856,2.3197580048708404,1.2476114500930149,-8.03424178729145,0.157169181216876
2.194793514624605,1.9782482334189417,2.3322341193717704,1.2491831419051835,-7.984783495794273,0.2796304093510886
2.214575996958794,1.898400398460999,2.344725950790822,1.2519794459986944,-7.926624920426167,0.38319565494170627
2.2335600009434042,1.8191341492567372,2.357245745250809,1.2558114025481115,-7.8617352650458665,0.47105490904313946
2.2517513424359716,1.7405167966062787,2.36980385927629,1.2605219516385429,-7.791975796281905,0.5462452207236235
2.2691565104020346,1.6625970386434596,2.382409078792675,1.265984403845779,-7.719084052569962,0.6116181385480639
2.2857824807884692,1.58540619811776,2.395068922831133,1.2721005852312597,-7.644663711352031,0.6698178400480822
2.301636542769647,1.5089595610042397,2.4077899286834454,1.2787987636317406,-7.570179216053079,0.7232683062941676
2.316726138379689,1.433257768843709,2.420577916319763,1.2860314466946823,-7.496954192508397,0.7741677949168186
2.331058716068126,1.358288226918625,2.43343823078671,1.2937731246438504,-7.426172692808574,0.8244888914529714
2.3446415983373123,1.284026499990539,2.4463759620331484,1.30201801355838,-7.3588823677881825,0.8759825347651545
2.3574818633372177,1.2104376763126572,2.4593961421687323,1.3107778389060316,-7.295998765809977,0.9301845821086607
2.369586240100344,1.1374776886545575,2.472503920557793,1.3200796847271181,-7.238310068021557,0.9884236753418979
2.3809610169868898,1.0650945879743419,2.485704717405064,1.329963921480537,-7.18648168679591,1.0518293718203917
2.3916119628666332,0.9932297711063828,2.4990043566198694,1.340482215198741,-7.141060267103939,1.1213396990104854
2.401544260577697,0.9218191684353434,2.5124091787718568,1.351695612188846,-7.102476736473505,1.197707474308463
2.4107624522620505,0.8507944010706083,2.525926134893745,1.3636726869319307,-7.071048147394357,1.2815048993662213
2.4192703962727564,0.7800839195966648,2.5395628617630646,1.376487735925593,-7.046978148239828,1.373126093488059
2.427071235468723,0.7096141381142665,2.5533277391223206,1.3902189968604735,-7.030356008281666,1.4727873780288994
2.4341673768498655,0.6393105780314499,2.5672299290909253,1.4049468706407624,-7.021154213428542,1.580525269453144
2.44056048263018,0.5690990358971645,2.5812793977973327,1.4207521233352938,-7.019224746572887,1.696192289796096
2.4462514729891516,0.4989067884314356,2.5954869190306855,1.4377140462332547,-7.024294274357707,1.8194508665593396
2.451240540873466,0.42866384568785854,2.609864059493018,1.4559085548988482,-7.0359585844116355,1.949765775314099
2.4555271793303444,0.35830425984374215,2.6244231450420066,1.4754062126519891,-7.053676755651603,2.0863957809772047
2.459110221928782,0.2877674922872261,2.6391772071685264,1.4962701704617611,-7.076765698515333,2.2283853577082398
2.461987896851654,0.21699983530207276,2.654139908873144,1.5185540240388435,-7.104395867591751,2.374557607200552
2.4641578952046745,0.14595587662615525,2.6693254491135328,1.542299600110849,-7.135589116675342,2.523509738259086
2.465617453970936,0.07459998545940183,2.684748445114641,1.5675346974934399,-7.169219820173093,2.6736126956240844
2.46636345382553,0.0029077872576708935,2.7004237920895755,1.5942708244496808,-7.204020502414531,2.823016701680097
2.466392531698107,-0.06913241776647441,2.7163665003340722,1.6225009914664819,-7.238593268139506,2.969664559642209
2.465701207520442,-0.14151835044786948,2.7325915102487373,1.652197637062904,-7.271428278103604,3.111314511638102
2.464286024015963,-0.2142326332289055,2.7491134866193665,1.683310782179285,-7.300930326096503,3.2455741971176497
2.462143697683674,-0.2872419364898705,2.7659465944411594,1.7157665241504614,-7.3254542142999775,3.369946768487143
2.4592712783187753,-0.36049647863287027,2.783104259682664,1.7494659918353328,-7.343349071647509,3.481889460753087
2.4556663135324466,-0.43392996934934536,2.8005989196010175,1.7842848864428638,-7.353011015933514,3.578883880232371
2.451327013838953,-0.5074600795086806,2.818441768465446,1.8200737252451875,-7.352942658704893,3.65851601936875
2.4462524130438665,-0.5809895060957295,2.8366425057178977,1.856658885438875,-7.341816966273555,3.7185626216119814
2.4404425179829095,-0.654407675758465,2.8552090945722863,1.893844511654995,-7.3185420353197825,3.7570791709846962
2.433898441225325,-0.7275930961116629,2.874147539688836,1.9314153033648418,-7.2823225645787675,3.7724836699423836
2.4266225102642083,-0.8004163217574506,2.8934616927224845,1.9691401400642656,-7.2327133640995855,3.763629718740328
2.4186183470466336,-0.8727434553984464,2.9131530941231274,2.006776437251669,-7.169660281148074,3.729862417445422
2.4098909124926493,-0.9444400582099272,2.9332208584956443,2.044075061426123,-7.093524523683173,3.6710514015601636
2.40044651191055,-1.015375303446759,2.9536616091099055,2.0807855754417246,-7.005087529764344,3.5875968993370915
2.3902927588760825,-1.0854261787444024,2.9744694648643226,2.1166615444350954,-6.9055351630706046,3.480406926215066
2.3794384970886386,-1.1544815303751084,2.9956360803086737,2.151465613697246,-6.79642191299255,3.3508463374037083
2.3678936817848877,-1.2224457495050338,3.0171507364456462,2.184974077071283,-6.679617678827863,3.2006610792469763
2.355669224289837,-1.2892419262933124,3.039000477216359,2.216980687863753,-6.557241342929698,3.0318832275968854
2.342776805026904,-1.3548143397226093,3.0611702840949966,2.247299520139722,-6.431586451763447,2.846723949691206
2.329228661629678,-1.4191302042402438,3.083643279296394,2.275766759636634,-6.30504478330352,2.6474621744529254
2.3150373595872753,-1.482180652073279,3.1064009468927605,2.302241381381163,-6.180033358947326,2.4363364677757953
2.3002155530665425,-1.5439809856627522,3.1294233607065722,2.326604746058921,-6.058929648506679,2.215446507204252
2.2847757432099147,-1.604570282147819,3.1526894081671615,2.3487592111309636,-5.944018494574563,1.9866688772495662
2.2687300403884367,-1.6640104670935645,3.176177000278471,2.3686258999034595,-5.837452865793596,1.751589962977404
2.252089935717501,-1.7223849957515005,3.199863259277506,2.3861417995332337,-5.741229149742563,1.5114567987815213
2.234866085759986,-1.779797287248926,3.223724677272838,2.4012563675210488,-5.657176484849335,1.2671450661028238
2.217068112887497,-1.8363690520974194,3.2477372409480485,2.413927818182077,-5.586958712927856,1.0191421759797339
2.198704422366523,-1.8922386392266979,3.271876519129869,2.424119239941874,-5.5320869489253806,0.7675425763747292
2.179782035974256,-1.9475595087159516,3.2961177115292877,2.4317946657056213,-5.493940495267212,0.5120520704807658
2.1603064408870964,-2.0024989136686235,3.320435658186344,2.436915186410429,-5.473793819326213,0.25199794951471477
2.1402814517504103,-2.0572368518618855,3.3448048100504484,2.439435165905576,-5.472847489228485,-0.01365796380364251
2.1197090832317915,-2.1119653267541705,3.369199161709504,2.4392985862675394,-5.492261247491234,-0.28630579405953566
2.09858942996425,-2.166887939229083,3.3935921475721793,2.436435528326944,-5.533187723792084,-0.5676754811329343
2.076920550571959,-2.2222198164670037,3.4179565028554486,2.4307587735156146,-5.596805590825088,-0.8598273027942839
2.054698352407289,-2.2781878723752547,3.4422640905906046,2.4221605004876716,-5.684351208494528,-1.1651457145502198
2.0319164736835362,-2.3350313844602,3.4664856955954813,2.410509043342169,-5.797147951826737,-1.486336574772096
2.008566159838934,-2.3930028639784675,3.490590786028903,2.395645677594448,-5.936632455843189,-1.8264272246649391
1.9846361311991494,-2.4523691885368994,3.514547242804847,2.3773814053477986,-6.104376919636552,-2.1887682602609715
1.9601124393137803,-2.513412957733265,3.538321056858325,2.355493722745189,-6.302106376001263,-2.5770351223508086
1.9349783097364477,-2.5764340214932777,3.561875994085777,2.329723371521681,-6.531709433604565,-2.9952267824113483
1.909213969521515,-2.641751115829323,3.585173227800994,2.2997711036975677,-6.7952404127262644,-3.4476577495833274
1.8827964583632217,-2.709703519956586,3.6081709388379695,2.2652945262017345,-7.094909995025738,-3.938938288284934
1.8556994231636559,-2.7806526199068435,3.630823884099987,2.2259051433188852,-7.433060461585163,-4.473936035990448
1.8278928969645873,-2.8549832245226954,3.6530829355331758,2.181165782958981,-7.812120272872833,-5.057710067000889
1.7993430647193605,-2.9331044272514237,3.6748945933627657,2.130588682288972,-8.234531133215064,-5.695405799841255
1.7700120204468461,-3.0154497385835746,3.6962004801856554,2.0736346242905594,-8.702638795655112,-6.392095977535495
1.7398575230610105,-3.1024761265401257,3.716936826428561,2.0097136645152043,-9.21853677563328,-7.1525493356767225
1.7088327617956092,-3.1946614942964584,3.737033963073713,1.938188171158437,-9.783850033096602,-7.980904746972467
1.6768861468526446,-3.2924999946274243,3.7564158447852973,1.8583791236887124,-10.399443898895134,-8.880225088516159
1.6439611469063704,-3.396494433616376,3.7749996360221845,1.7695768728035508,-11.065042657518827,-9.851902713764014
1.6099962025702066,-3.507144860191564,3.79269540475022,1.6710578456659106,-11.778743190096158,-10.894888682178184
1.574924753968291,-3.6249322920925255,3.8094059832068794,1.5621089588441288,-12.536413286019139,-12.00472298539741
1.5386754310473656,-3.750296424952717,3.825027072795321,1.4420617289901547,-13.330973444980057,-13.172355894045314
1.5011724667978383,-3.8836061594025177,3.8394476900852226,1.3103381700497017,-14.151577317515553,-14.382774891278794
1.4623364052038132,-4.025121932577673,3.8525510717857196,1.1665104211369137,-14.982731369964922,-15.61349123057039
1.4220851858780366,-4.174949246277323,3.8642161759970888,1.0103755088312099,-15.803429957062516,-16.832997595333175
1.3803356934152633,-4.332983545847948,3.874319931085401,0.8420455328778781,-16.58642646266538,-17.999382996746824
1.3370058579567838,-4.498847810474602,3.88274038641418,0.6620517029104098,-17.29780911728833,-19.05937598158046
1.2920173798520378,-4.671825901647485,3.889360903443284,0.4714579430946052,-17.897090292453775,-19.948166054338582
1.245299120835563,-4.850796804572022,3.8940754828742303,0.2719762825512194,-18.338033049770168,-20.590398554104834
1.1967911527898427,-5.034177135069724,3.8967952456997423,0.06607229701017109,-18.570407373809267,-20.902714369993674
1.1464493814391454,-5.219881208807816,3.8974559686698442,-0.14295484668976566,-18.542773119958458,-20.798078584002553
1.0942505693510673,-5.405308940007401,3.8960264202029466,-0.3509356325297912,-18.20622414688806,-20.1918958330412
1.0401974799509934,-5.587371181476281,3.8925170638776487,-0.5528545908602032,-17.51882130461162,-19.009567780720133
0.9843237681362306,-5.762559394522397,3.886988517969047,-0.7429502686674045,-16.45024361513553,-17.19478171169627
0.9266981741910066,-5.927061830673753,3.8795590152823727,-0.9148980857843673,-14.986067193112941,-14.717538039476237
0.8674275558842691,-6.076922502604883,3.870410034424529,-1.0620734661791296,-13.13109754131876,-11.580833649892789
0.8066583308582203,-6.20823347801807,3.859789299762738,-1.1778818026780575,-10.911341401070601,-7.8250629009123145
0.7445759960780396,-6.317346892028777,3.8480104817359573,-1.2561324316871807,-8.374450457037119,-3.5295267872493334
0.6814025271577518,-6.401091396599148,3.8354491574190854,-1.291427699559674,-5.588693212717161,1.1891820728038889
0.6173916131917604,-6.45697832872632,3.822534880423489,-1.279535878831635,-2.640611728157392,6.181872878442205
0.5528218299044971,-6.483384446007894,3.8097395216351724,-1.217717150047213,0.36853534522036974,11.274370780125565
0.4879879854444182,-6.47969909255569,3.7975623501347004,-1.1049734422459574,3.3275826154588803,16.27787943638739
0.4231909945188613,-6.446423266401101,3.786512615712241,-0.9421946478820835,6.121636994598303,21.00182499618409
0.35872676185485025,-6.385206896455118,3.77709066923342,-0.7321763979202426,8.63960512666575,25.268562025712644
0.29487469289029905,-6.298810845188461,3.769768905254218,-0.47949077766311615,10.782642221672557,28.92867637017839
0.23188658443841442,-6.190984422971735,3.7649739974775867,-0.19020401396133224,12.472530012767853,31.87488101616344
0.16997674020869707,-6.066259122844056,3.7630719573379734,0.12854479620030218,13.658529552051803,34.05206496548669
0.10931414898025651,-5.929673827323538,3.764357405299976,0.4690654458551691,14.321194485269983,35.46132031187882
0.050017410707021134,-5.786461882470838,3.769048059758528,0.8236786489739574,14.47212876572425,36.15687262045657
-0.007847208117687243,-5.641740594813595,3.7772848462482678,1.185247375178523,14.149613625448216,36.23648243703712
-0.0642646140658232,-5.500244458559113,3.789137320000053,1.5476121995488943,13.411051299504763,35.827451910535935
-0.11926705865141433,-5.366133945564065,3.8046134419955417,1.9058867186542536,12.323863304314854,35.07124290960482
-0.172928398107055,-5.242895312520917,3.823672309182084,2.256599147750302,10.956600387089276,34.10961694580844
-0.22535735123226416,-5.133329308650024,3.846238300659587,2.597695317208386,9.371613174415424,33.07432285559775
-0.2766906443187644,-5.03961317690587,3.872215253831671,2.9284385457643634,7.619950309932745,32.081154165660536
-0.3270867760878231,-4.963413673806542,3.9014996392893146,3.2492500874209687,5.738486956316699,31.22814416012915
-0.37672091282588854,-4.906028804243375,3.9339921401635243,3.5615315290222602,3.748832552712495,30.5970286425265
-0.4257812008683223,-4.86854047871625,3.969607455453747,3.8675018154475254,1.6573723171245087,30.25690986820969
-0.47446660565548476,-4.851966755545005,4.008282473608222,4.170070914129623,-0.544188780423862,30.26917040021763
-0.5229862732109348,-4.857408643349244,4.049983182749519,4.4727626181317985,-2.8782706054798077,30.69293586604235
-0.5715603596444273,-4.886191349404042,4.094710808930837,4.779691976792222,-5.381134292516833,31.590611255458818
-0.6204222731384678,-4.940002692329211,4.142507728698759,5.09559808934681,-8.102877418742974,33.033075846045364
-0.6698223000617599,-5.02103146651664,4.193463709592227,5.425928847807263,-11.107274078707674,35.10383548009149
-0.7200326147269263,-5.132104207303717,4.2477229980703,5.776967202608178,-14.470157201575116,37.90043883852305
-0.7713536567999635,-5.276805779319468,4.305492670096381,6.155971590993409,-18.27313332107077,41.52894942613553
-0.8241217145931582,-5.4595371125301755,4.367052386006315,6.571261085254764,-22.585119523370928,46.08137261380143
-0.87871708571846,-5.685388307763885,4.432764996858863,7.0320748113927785,-27.41464449963555,51.572700138157785
-0.9355709687960988,-5.9595347527602405,4.503085744972791,7.547801812774356,-32.59589892552747,57.78640000944395
-0.9951663163237012,-6.2854937420155155,4.578563763100534,8.125665812868796,-37.536296860333536,63.92774972702551
-1.0580212537438565,-6.660856710618851,4.659820421229222,8.764943310139051,-40.72266661674648,67.94054290117063
-1.124629820850045,-7.068083376786316,4.747469854330612,9.444348739150758,-39.010548444276715,65.5178291678301
-1.195310654617908,-7.4581888612290825,4.84191334172212,10.099527030829059,-27.53105588042156,49.964346206243626
-1.2698925432301988,-7.733499420033298,4.94290861203041,10.599170492891496,-2.8797270609329204,16.619356659555912
-1.3472275374305318,-7.762296690642628,5.048900316959325,10.765364059487055,29.35679183462111,-26.71010881933844
-1.4248505043369581,-7.468728772296417,5.156553957554196,10.49826297129367,54.2949635030426,-59.43910090021846
-1.4995377920599222,-6.925779137265991,5.261536587267132,9.903871962291486,63.41397122689414,-70.01048803811214
-1.5687955834325822,-6.291639424997049,5.3605753068900475,9.203767081910364,61.20757102274073,-64.89069109574243
-1.6317119776825526,-5.679563714769642,5.452612977709151,8.55486017095294,54.895668536433774,-54.13143650741369
-1.688507614830249,-5.130607029405304,5.538161579418681,8.013545805878804,48.363491094535576,-43.055086655848356
-1.739813685124302,-4.646972118459948,5.618297037477468,7.58299493932032,42.88238227338285,-33.350438465179764
-1.7862834063089015,-4.21814829572612,5.694126986870671,7.249490554668522,38.64095766692481,-25.22267463548485
-1.8284648892661626,-3.8317387190568724,5.766621892417357,6.997263808313674,35.502114363288754,-18.44172597552633
-1.8667822764567312,-3.4767175754239847,5.836594530500493,6.812846548558411,33.27208478788128,-12.710202018808143
-1.901549452210971,-3.143996727545172,5.904722995986077,6.685744528370329,31.7782115724139,-7.76798350325778
-1.9329894194864228,-2.826214611821033,5.97158044126978,6.608064693337751,30.883280708399173,-3.41105764598334
-1.9612515656046332,-2.5173818047370413,6.037661088203158,6.573954116877918,30.481384287306934,0.5135132980551363
-1.9864253836520036,-2.212567961863972,6.1034006293719365,6.579089249858469,30.48972494282586,4.116829088658004
-2.008551063270643,-1.9076707124357135,6.1691915218705216,6.620257540745049,30.840485028446068,7.476004195597687
-2.027627770395,-1.5992658621512528,6.235394097277972,6.695017582701026,31.47360908110928,10.639487561857724
-2.0436204290165128,-1.28452977134016,6.302344273104982,6.801412458319604,32.33041924105493,13.630004130046476
-2.0564657267299142,-0.9612255789296107,6.370358397688178,6.937712499620068,33.3478374855992,16.445621007677943
-2.0660779825192104,-0.6277472040736187,6.439735522684378,7.102168709696848,34.45312269388098,19.059564527111785
-2.0723554545599465,-0.28321597713480895,6.510757209781347,7.292764354967965,35.559295438077605,21.419557280072144
-2.0751876143312944,0.07237697724596709,6.583684853331026,7.506959927768687,36.56177657496491,23.447676547745182
-2.0744638445588346,0.4379947429956162,6.658754452608713,7.741436693246139,37.33717102188863,25.04203786557338
-2.0700838971288786,0.8113664532145025,6.736168819541175,7.9918570719018724,37.745497344816506,26.08187249171911
-2.0619702325967335,1.1888214266626675,6.8160873902601935,8.252675796819064,37.637315897874814,26.437580487824185
-2.050082018330107,1.5651945856414158,6.8986141482283845,8.517051601697306,36.8668641076192,25.986789916789313
-2.034430072473693,1.933863226717608,6.983784664245357,8.7769195008652,35.31116889460282,24.63603269867215
-2.0150914402065165,2.2869749156636363,7.071553859254009,9.02327982785192,32.89306601184124,22.345309690597748
-1.9922216910498802,2.615905575782049,7.161786657532528,9.246732924757898,29.603505860031945,19.150103414053724
-1.9660626352920598,2.9119406343823684,7.254253986780107,9.438233958898437,25.51655068068351,15.173602915979231
-1.9369432289482362,3.1671061411892034,7.348636326369091,9.589969988058229,20.7905718633919,10.6226701170418
