th1 (rad),w1 (rad/s),th2 (rad),w2 (rad/s),a1 (rad/s^2),a2 (rad/s^2)
0.192251865106451,-0.427478414872904,6.2674876384486735,1.996592591058798,-4.560998146232525,4.65429515544194
0.18797708095772198,-0.47308839633522926,6.287453564359262,2.0431355426132174,-4.281455686942517,4.20846804881565
0.18324619699436967,-0.5159029532046544,6.307884919785394,2.085220223101374,-3.961799615921202,3.7120998601663886
0.17808716746232311,-0.5555209493638664,6.328737122016408,2.1223412217030377,-3.6024978564602983,3.165431909957615
0.17253195796868445,-0.5915459279284694,6.349960534233438,2.153995540802614,-3.2053962978685657,2.5705147747327803
0.16661649868939976,-0.6235998909071551,6.371500489641464,2.179700688549942,-2.7738688750964267,1.9314240991064344
0.1603804997803282,-0.6513385796581194,6.393297496526964,2.1990149295410064,-2.3128683381598307,1.2543435499240747
0.153867113983747,-0.6744672630397177,6.415287645822374,2.211558365040247,-1.8288490312822754,0.5474751834665104
0.14712244135334981,-0.6927557533525405,6.4374032294727765,2.2170331168749122,-1.3295466833569103,-0.17924398612787767
0.14019488381982442,-0.7060512201861096,6.459573560641526,2.2152406770136333,-0.8236203586174689,-0.914612984696453
0.13313437161796332,-0.7142874237722843,6.481725967411662,2.2060945471666686,-0.32018475875198676,-1.6467877188280444
0.12599149738024049,-0.7174892713598041,6.503786912883329,2.1896266699783884,0.17171832111671836,-2.3639857066378216
0.11881660466664244,-0.7157720881486369,6.525683179583113,2.1659868129120103,0.6436479288815963,-3.0551913735644196
0.11165888378515607,-0.7093356088598209,6.547343047712233,2.1354348991763663,1.0882289052928187,-3.71077725070269
0.10456552769655786,-0.6984533198068927,6.568697396703997,2.0983271266693393,1.4995027710411821,-4.322971800049158
0.09758099449848893,-0.6834582920964809,6.589680667970691,2.0550974086688476,1.8731339699963165,-4.886132530301539
0.09074641157752412,-0.6647269523965177,6.6102316420573795,2.0062360833658324,2.2064651254463095,-5.396816079415808
0.08409914205355895,-0.6426623011420546,6.630294002891038,1.9522679225716744,2.498437065794996,-5.85366697008947
0.0776725190421384,-0.6176779304841046,6.649816682116755,1.8937312528707797,2.749404929671797,-6.257167776928897
0.07149573973729735,-0.5901838811873866,6.668753994645463,1.8311595751014906,2.960888786452548,-6.609302942856847
0.06559390092542348,-0.5605749933228611,6.687065590396477,1.7650665456729222,3.1352965109037365,-6.9131873184956305
0.05998815099219487,-0.5292220282138237,6.7047162558532065,1.6959346724879658,3.2756503790205804,-7.172701783677204
0.054695930710056635,-0.4964655244236179,6.721675602578086,1.6242076546511939,3.385339802751404,-7.39216588573553
0.04973127546582046,-0.4626121263961039,6.737917679124599,1.5502859957938386,3.4679132500406977,-7.576064648061639
0.04510515420185942,-0.4279329938956969,6.753420539082537,1.4745253493132222,3.5269143538026086,-7.728835800521997
0.04082582426290245,-0.3926638503576708,6.768165792575669,1.3972369913080023,3.565761278814994,-7.854715699593546
0.03689918575932574,-0.3570062375695209,6.7821381624887485,1.3186898343120668,3.5876646825530276,-7.957637242188579
0.03332912338363053,-0.3211295907439906,6.795325060831869,1.239113461890181,3.595577752127346,-8.04117067236144
0.030117827476190625,-0.2851738132227172,6.807716195450771,1.1587017551665666,3.5921713302588527,-8.108497646438236
0.027266089343963452,-0.24925209992012864,6.819303213002437,1.0776167787021842,3.579827560436852,-8.162409573765663
0.024773568344762166,-0.21345382431576013,6.830079380789458,0.9959926829645276,3.5606463723917545,-8.205322523544016
0.022639030101604566,-0.17784736059184258,6.8400393076191035,0.9139394577290875,3.5364601958857294,-8.239302479451787
0.02086055649568614,-0.1424827586329853,6.849178702196395,0.8315464329345696,3.5088533440367726,-8.266096178773457
0.019435728909356288,-0.10739422519261757,6.85749416652574,0.7488854711468351,3.479183443254338,-8.287164054765089
0.018361786657430112,-0.07260239076007419,6.864983021237208,0.6660138305991843,3.4486030617761125,-8.303712854825624
0.01763576274982937,-0.03811636014231306,6.8716431595432,0.582976702050928,3.418080296705132,-8.316726327907665
0.01725459914840624,-0.003935557175261742,6.877472926563709,0.49980943877185136,3.388417534854657,-8.326992984878082
0.017215243576653622,0.029948618173284827,6.882471020951428,0.41653950892307057,3.3602679291815276,-8.335130369167095
0.01751472975838647,0.0635512974651001,6.886636416040659,0.33318820523139964,3.334149355753016,-8.341605568115162
0.01815024273303747,0.09689279102263026,6.889968298092973,0.249772149550248,3.310455759953044,-8.34675188118164
0.019119170643263773,0.12999734862216072,6.8924660195884755,0.1663046307384316,3.28946588550797,-8.350781667879495
0.02041914412948538,0.16289200747724042,6.89412906589586,0.08279681405963665,3.2713494226325373,-8.353795448805142
0.022048064204257783,0.19560550170356578,6.894957034036456,-0.0007411404284147771,3.256170625404848,-8.355787345388066
0.024004119221293443,0.22816720795761425,6.894949622632172,-0.08429901388229544,3.2438894437540453,-8.356646931943738
0.026285791300869586,0.2606061023951547,6.894106632493349,-0.16786548320173283,3.234360200451246,-8.356157548301598
0.02889185232482113,0.29294970439966717,6.892427977661332,-0.2514270586847488,3.227327825160595,-8.353991091883403
0.0318213493688178,0.32522298265127314,6.889913707074484,-0.33496696960358285,3.222421642276419,-8.349699283019017
0.03507357919533053,0.3574471990740373,6.886564037378449,-0.41846396243377304,3.219146703439358,-8.342701385126277
0.038648051186070904,0.3896386661084309,6.882379397754111,-0.5018909762850359,3.216872666649994,-8.332268371981126
0.04254443784715521,0.42180739277493084,6.87736048799126,-0.5852136600048471,3.2148202607149248,-8.317503579688186
0.04676251177490452,0.4539555953820801,6.871508351391212,-0.668388695801729,3.212045447540015,-8.297319976278438
0.05130206772872532,0.4860760498574802,6.864824464433195,-0.7513618955645134,3.207421519514072,-8.270414346192075
0.05616282822730013,0.518150265052621,6.857310845477549,-0.8340660390264342,3.1996195620427295,-8.235238943768111
0.061344330877826335,0.5501464606730483,6.848970185087285,-0.9164184284641153,3.18708799235239,-8.18997154706638
0.06684579548455682,0.5820173405965722,6.839806000802644,-0.998318143934779,3.1680322771410485,-8.132485371650535
0.07266596889052254,0.6136976633679827,6.8298228193632955,-1.0796429976512845,3.1403964551585157,-8.060321013704385
0.07880294552420238,0.6451016279195678,6.819026389386782,-1.1602462077883282,3.1018487626835594,-7.970663506406803
0.08525396180339806,0.6761201155464034,6.807423927308899,-1.2399528428523963,3.0497744829756273,-7.860328698083358
0.0920151629588621,0.7066178603761597,6.795024398880375,-1.3185561298332298,2.9812800919110187,-7.725764465121201
0.0990813415626237,0.7364306612952699,6.781838837582042,-1.3958137744844419,2.8932137842917736,-7.563073667130768
0.1064456481755764,0.7653627991381876,6.767880699837198,-1.4714445111557495,2.782208406051139,-7.368067056220924
0.11409927616695828,0.793184883198699,6.753166254725641,-1.5451251817179588,2.6447534646606576,-7.136355263307214
0.12203112499894526,0.8196324178453055,6.737715002908462,-1.616488734351031,2.4773029141758838,-6.863489050927043
0.1302274491773983,0.8444054469870643,6.721550115564951,-1.6851236248603014,2.2764243774681963,-6.5451556463773874
0.13867150364726896,0.8671696907617463,6.704698879316348,-1.7505751813240753,2.0389928758195515,-6.177435461980598
0.14734320055488642,0.8875596195199419,6.687193127503107,-1.8123495359438813,1.762427522101417,-5.757117231595067
0.15621879675008585,0.9051838947409561,6.669069632143668,-1.869920708259832,1.4449627551296622,-5.282060206405405
0.1652706356974954,0.9196335222922527,6.6503704250610705,-1.922741310323886,1.0859367830521067,-4.751579876745021
0.1744669709204179,0.9304928901227738,6.631143011957832,-1.9702571090913361,0.6860699504757832,-4.166820077619778
0.18377189982164566,0.9373535896275317,6.611440440866918,-2.011925309867534,0.24769666892407613,-3.531061938287142
0.19314543571792098,0.9398305563167725,6.5913211877682425,-2.0472359292504057,-0.22509088445215622,-2.849912753293819
0.2025437412810887,0.9375796474722509,6.5708488284757385,-2.0757350567833437,-0.726427818539481,-2.131319706362942
0.2119195377558112,0.9303153692868561,6.550091477907905,-2.0970482538469732,-1.2488204936160565,-1.385367712831841
0.22122269144867976,0.9178271643506956,6.529120995369436,-2.1109019309752917,-1.7834597289015741,-0.6238479788675704
0.23040096309218672,0.8999925670616798,6.508011976059683,-2.1171404107639673,-2.320686821079,0.14037935951066566
0.23940088876280352,0.8767856988508899,6.486840571952043,-2.1157366171688605,-2.8505678161423234,0.8941666590877465
0.24816874575131243,0.8482800206894666,6.465683205780355,-2.1067949505779833,-3.3635092421260753,1.6249121850967652
0.2566515459582071,0.8146449282682059,6.444615256274575,-2.0905458287270156,-3.8508387083998046,2.3213405021237876
0.26479799524088915,0.7761365411842078,6.423709797987304,-2.0673324237057775,-4.3052796723663045,2.9741335358579333
0.27255936065273123,0.7330837444605448,6.403036473750246,-2.0375910883471984,-4.721269815058009,3.5763442429237644
0.2798901980973367,0.6858710463099648,6.382660562866774,-2.001827645917961,-5.095101170950603,4.123564639892312
0.28674890856043633,0.6349200346004588,6.362642286407595,-1.9605919995190377,-5.4248897123624165,4.6138606316649255
0.29309810890644095,0.5806711374768346,6.343036366412404,-1.9144533932023884,-5.710405563175716,5.0475181043411
0.2989048202812093,0.5235670818450775,6.32389183248038,-1.8639782121589774,-5.952808362616265,5.426662618584526
0.30414049109966007,0.46403899821891487,6.30525205035879,-1.809711585973132,-6.154334989320113,5.754818155963807
0.3087808810818492,0.4024956483257137,6.287154934499059,-1.752163404413494,-6.317981133032811,6.036461947606734
0.3128058375651063,0.3393158369953856,6.269633300454924,-1.6917987849374265,-6.447207630986247,6.2766174483962365
0.3161989959350602,0.27484376068552313,6.25271531260555,-1.6290326104534643,-6.545690561383206,6.480510857660823
0.3189474335419154,0.20938685507169108,6.236424986501015,-1.564227501876856,-6.617123361694646,6.653301737705954
0.3210413020926323,0.14321562145474462,6.220782711482246,-1.4976944844997966,-6.665071070320235,6.799887074684664
0.32247345830717977,0.07656491075154226,6.205805766637249,-1.42969561375295,-6.692871507492756,6.924770971092258
0.3232391074146952,0.009636195676614695,6.191508810499719,-1.3604479040420274,-6.703575483247905,7.031988555394076
0.32333546937146135,-0.05739955915586435,6.177904331459298,-1.2901280184880868,-6.699917311825029,7.125071735117791
0.3227614737799027,-0.12439873227411465,6.165003051274417,-1.218877301136909,-6.684307346364466,7.207045153428669
0.32151748645716155,-0.1912418057377593,6.152814278263048,-1.1468068496026222,-6.658839352124843,7.280442337334766
0.319605068399784,-0.25783019925900774,6.141346209767022,-1.0740024262292747,-6.6253068937830335,7.34733397257447
0.3170267664071939,-0.3240832681968381,6.130606185504729,-1.00052908650353,-6.585224257803171,7.409362144075337
0.3137859337252255,-0.38993551077486976,6.1206008946396935,-0.9264354650627765,-6.539848620956372,7.4677760491784655
0.3098865786174768,-0.4553339969844335,6.111336539989066,-0.8517577045709919,-6.490201152325654,7.523466048511
0.30533323864763245,-0.52023600850769,6.102818962943355,-0.7765230440858819,-6.437085492702089,7.576993963460559
0.30013087856255555,-0.5846068634347109,6.095053732502497,-0.7007531044512763,-6.381102614885755,7.628618295133275
0.29428480992820844,-0.6484178895835685,6.088046201457984,-0.6244669214999435,-6.322661466345744,7.67831357932793
0.28780063103237274,-0.711644504247026,6.081801532242984,-0.5476837857066642,-6.261985070454451,7.725783460854018
0.28068418598990247,-0.7742643549515704,6.076324694385918,-0.470425951098124,-6.199111951096474,7.7704673211636965
0.27294154244038676,-0.8362554744625351,6.071620434874937,-0.39272127788648703,-6.1338928817591585,7.811540473676973
0.26457898769576144,-0.8975944032801267,6.067693222096072,-0.31460587314971733,-6.06598307521747,7.847908094906344
0.25560304366296016,-0.9582542340323015,6.064547163364575,-0.2361267922006539,-5.994830052808629,7.878193227374512
0.24602050132263714,-1.0182025345603878,6.0621858954425685,-0.15734485992690878,-5.919657591878152,7.900719412580839
0.23583847597703325,-1.0773991104791694,6.060612446843299,-0.07833766580110038,-5.839446376047405,7.913488830332226
0.22506448487224157,-1.1357935742396434,6.059829070185288,0.0007972225022218754,-5.75291229692625,7.9141572781946286
0.21370654912984513,-1.193322697208906,6.059837042410311,0.07993879528416817,-5.6584838103249675,7.900007966612251
0.20177332215775606,-1.2499075353121556,6.060636430363153,0.1589388749502907,-5.554280366049908,7.867926974108178
0.1892742468046345,-1.3054503389726546,6.062225819112656,0.23761814469137246,-5.43809473204631,7.814384335334374
0.17621974341490795,-1.3598312862931177,6.064602000559569,0.3157619880447162,-5.307383027704534,7.735426130219138
0.16262143055197678,-1.412905116570163,6.067759620440016,0.3931162493469076,-5.159267440747334,7.626684565059047
0.14849237938627516,-1.4644977909776362,6.071690782933485,0.4693830949974981,-4.990557843713805,7.483414765872697
0.1338474014764988,-1.5144033694147743,6.0763846138834605,0.5442172426562251,-4.797799679960281,7.30056859893065
0.11870336778235105,-1.562381366214377,6.081826786310023,0.6172229286455315,-4.577356268057596,7.072916885943499
0.10307955412020728,-1.608154928894953,6.087999015596478,0.6879520975049666,-4.325533649489238,6.795231287315088
0.08699800483125775,-1.6514102653898455,6.094878536571527,0.7559044103781174,-4.038754712782732,6.462535090423233
0.0704839021773593,-1.6917978125176727,6.102437580675309,0.8205297612823498,-3.7137859246391347,6.0704272581692145
0.053565924052182565,-1.728935671764064,6.110642878288132,0.881234033864042,-3.3480140099473084,5.615475562736242
0.036276567334541925,-1.7624158118635371,6.119455218626773,0.9373887894914044,-2.9397610952438633,5.095662107493068
0.01865240921590655,-1.7918134228159757,6.128829106521687,0.9883454105663351,-2.488615584483976,4.510848636960654
0.0007342749877467941,-1.8166995786608153,6.138712560627351,1.0334538969359417,-1.9957438250681667,3.8632118214935556
-0.01743272079886136,-1.836657016911497,6.14904709959671,1.0720860151508773,-1.464137124055921,3.1575839780559005
-0.035799290967976335,-1.8512983881520564,6.159767959748219,1.1036618549314363,-0.8987435697664684,2.40162765713739
-0.0543122748494969,-1.860285823849721,6.170804578297534,1.1276781315028102,-0.30643823799461856,1.6057786004373324
-0.0729151330879941,-1.8633502062296672,6.182081359612562,1.1437359175071835,0.3041987530232746,0.782914309341836
-0.09154863515029077,-1.8603082186994344,6.193518718787634,1.1515650606006018,0.9232996574699698,-0.05225578180260905
-0.11015171733728511,-1.8510752221247346,6.20503436939364,1.1510425027825757,1.5402911923077744,-0.8840340746155044
-0.12866246955853244,-1.835672310201657,6.216544794421465,1.1422021620364207,2.1445775093621067,-1.6967212603862507
-0.14701919266054903,-1.814226535108036,6.227966816041829,1.1252349494325582,2.726237684328836,-2.4756222449278495
-0.16516145801162938,-1.7869641582647477,6.239219165536155,1.1004787269832796,3.27664640126575,-3.207941390107432
-0.18303109959427685,-1.7541976942520903,6.250223952805988,1.0683993130822054,3.7889411841197354,-3.883457832272289
-0.20057307653679776,-1.7163082824108928,6.26090794593681,1.0295647347594825,4.258289654218616,-4.494914482150322
-0.21773615936090668,-1.6737253858687067,6.2712035932844055,0.9846155899379793,4.681947144508505,-5.038106709654937
-0.23447341321959375,-1.6269059144236215,6.281049749183786,0.9342345228414299,5.059128750460784,-5.51170473864887
-0.25074247236382996,-1.5763146269190136,6.2903920944122,0.8791174754549412,5.390743127064691,-5.916876897339379
-0.2665056186330201,-1.5224071956483667,6.299183269166749,0.8199487064815474,5.6790450200153675,-6.256794772955073
-0.28172969058950376,-1.465616745448213,6.307382756231564,0.7573807587519966,5.927260914060345,-6.536097776639752
-0.2963858580439859,-1.4063441363076095,6.314956563819084,0.6920197809855991,6.139231278266678,-6.760379266610461
-0.31044929940706195,-1.3449518235249427,6.32187676162894,0.6244159883194945,6.319098394244858,-6.935735869221878
-0.3238988176423114,-1.2817608395824942,6.328120921512135,0.5550586296272757,6.471054570448455,-7.068401513071841
-0.33671642603813634,-1.2170502938780097,6.333671507808408,0.4843746144965573,6.599154069121177,-7.164471360115026
-0.3488869289769164,-1.151058753186798,6.338515253953373,0.412729900895407,6.707184211953458,-7.229709587315093
-0.3603975165087844,-1.0839869110672633,6.342642552962327,0.3404328050222561,6.798586725968807,-7.269428632954148
-0.371237385619457,-1.0160010438075753,6.346046881012549,0.2677385186927146,6.876418716834447,-7.288425057851144
-0.38139739605753276,-0.9472368566392309,6.3487242661994765,0.19485426811420314,6.943342827480664,-7.290957336851251
-0.3908697646239251,-0.8778034283644243,6.350672808880619,0.12194469474569064,7.0016373585471126,-7.280752563713876
-0.39964779890756935,-0.8077870547789532,6.3518922558280755,0.049137169108551884,7.0532187913152695,-7.261031369020372
-0.4077256694553589,-0.7372548668658004,6.352383627519161,-0.02347314458165184,7.099670868530046,-7.234542754049649
-0.41509821812401687,-0.6662581581804999,6.352148896073344,-0.09581857212214832,7.14227593208977,-7.203602716267952
-0.42176079970582186,-0.5948353988596022,6.351190710352123,-0.16785459928482785,7.182045491289523,-7.1701323423846155
-0.42770915369441787,-0.523014943946707,6.3495121643592745,-0.23955592270867399,7.2197479817541,-7.135692442407856
-0.43293930313388496,-0.450817464129166,6.347116605132188,-0.3109128471327526,7.255932397089952,-7.101512823963412
-0.4374474777751766,-0.3782581401582665,6.3440074766608605,-0.3819279753723867,7.290946975613618,-7.068515019416847
-0.4412300591767593,-0.3053486704021303,6.340188196907136,-0.4526131255665552,7.324952451364248,-7.0373277459132595
-0.44428354588078056,-0.23209914588848785,6.335662065651471,-0.5229864030256878,7.357929577902679,-7.008294664518348
-0.44660453733966543,-0.15851985010946107,6.330432201621214,-0.5930693496708712,7.389680746218633,-6.981474166862442
-0.44818973584076005,-0.08462304264727474,6.324501508124506,-0.6628840913394957,7.4198255807421765,-6.956631007187909
-0.4490359662672328,-0.01042478683985297,6.317872667211111,-0.7324504014113747,7.447790443250406,-6.933219661394087
-0.4491402141356313,0.06405311759265109,6.310548163196997,-0.8017825980253156,7.472791836091816,-6.910359378767394
-0.4484996829597048,0.13878103595356925,6.302530337216744,-0.8708861918129895,7.493813808688391,-6.886801046142637
-0.44711187260016916,0.21371917404045315,6.293821475298614,-0.9397542022744159,7.509579675064056,-6.860886265323
-0.4449746808597646,0.2888149707910937,6.28442393327587,-1.0083630649276458,7.518518693320692,-6.830499520823268
-0.44208653115185365,0.3640001577243006,6.274340302626594,-1.0766680601358785,7.518728897835112,-6.793015067617465
-0.43844652957461067,0.43918744670265175,6.263573622025235,-1.1445982108120532,7.507938076928289,-6.745241290581073
-0.4340546551075842,0.5142668274719346,6.252127639917115,-1.2120506237178639,7.483466021027409,-6.683366876045206
-0.42891198683286486,0.5891014876822087,6.240007133679936,-1.278884292478316,7.442192686895026,-6.602915275029869
-0.42302097195604277,0.6635234145511589,6.227218290755153,-1.3449134452286147,7.380538855768053,-6.4987166632810265
-0.4163857378105312,0.7373288031088394,6.213769156302867,-1.409900611861425,7.2944681557570785,-6.3649098468838625
-0.4090124497794428,0.8102734846664102,6.199670150184253,-1.4735497103302637,7.179521785788863,-6.194990067746393
