th1 (rad),w1 (rad/s),th2 (rad),w2 (rad/s),a1 (rad/s^2),a2 (rad/s^2)
5.61729966203483,2.441476942350033,5.557432259849067,-2.521885615177636,4.861484123527061,2.0081196881689323
5.64171443145833,2.4900917835853034,5.53221340369729,-2.5018044182959467,3.6796674964426437,3.7070080561212846
5.666615349294183,2.5268884585497298,5.507195359514331,-2.464734337734734,2.5275767816746955,5.382235972893462
5.69188423387968,2.5521642263664766,5.482548016136983,-2.4109119780057995,1.4504166607367424,6.969270268468999
5.717405876143345,2.566668392973844,5.458438896356925,-2.3412192753211096,0.4839831181702602,8.416051318611617
5.743072560073084,2.5715082241555467,5.435026703603714,-2.2570587621349936,-0.34873822228916923,9.687885430325158
5.768787642314639,2.568020841932655,5.412456115982364,-2.160179907831742,-1.038260163949679,10.768565636101586
5.794467850733966,2.557638240293158,5.390854316904046,-2.0524942514707263,-1.5869650136522646,11.658250055819243
5.820044233136898,2.5417685901566354,5.370329374389339,-1.9359117509125339,-2.0060944742279605,12.369387388440337
5.845461919038464,2.521707645414356,5.350970256880213,-1.8122178770281305,-2.3123636422751113,12.92208523228064
5.870678995492608,2.498584008991605,5.332848078109932,-1.682997024705324,-2.5249414955841494,13.339957622602101
5.895664835582524,2.4733345940357636,5.316018107862879,-1.5495974484793031,-2.6631708365757913,13.646977413578673
5.920398181522882,2.4467028856700055,5.300522133378086,-1.4131276743435164,-2.7450927611506306,13.865431489519356
5.944865210379581,2.4192519580584992,5.286390856634651,-1.2744733594483229,-2.7866584910659458,14.014822525399708
5.969057729960166,2.39138537314784,5.273646123040168,-1.1343251341943257,-2.8014431107964963,14.111464630425834
5.992971583691645,2.3633709420398747,5.262302871698225,-0.9932104878900674,-2.800679965049565,14.168524599058097
6.016605293112044,2.335364142389379,5.2523707668193245,-0.8515252418994864,-2.7934715611244347,14.19631078653794
6.039958934535938,2.307429426778135,5.243855514400329,-0.7095621340341071,-2.7870767233665807,14.202671669088135
6.063033228803719,2.279558659544469,5.236759893059988,-0.5675354173432257,-2.7872116870447163,14.193418168091949
6.0858288153991635,2.251686542674022,5.231084538886556,-0.4256012356623062,-2.7983308174407036,14.172722234547352
6.108345680825904,2.223703234499615,5.226828526529933,-0.28387401331683265,-2.823871185840256,14.1434696291288
6.1305827131709005,2.1954645226412124,5.223989786396764,-0.14243931702554466,-2.866456438519502,14.107560178799304
6.152537358397312,2.1667999582560173,5.222565393226509,-0.0013637152375516326,-2.9280615274946595,14.066157159052281
6.174205357979873,2.137519342981071,5.222551756074133,0.13929785635297118,-3.010142788177115,14.019891393010399
6.195580551409684,2.1074179150992998,5.223944734637663,0.2794967702830752,-3.1137388752469404,13.969027000390629
6.216654730560677,2.0762805263468302,5.226739702340494,0.4191870402869815,-3.2395480725683248,13.9135956681543
6.237417535824146,2.043885045621147,5.230931572743363,0.5583229969685245,-3.387987006898902,13.853505584468119
6.257856386280357,2.0100051755521577,5.236514802713049,0.6968580528132057,-3.5592351226762333,13.788630200865523
6.277956438035879,1.9744128243253953,5.2434833832411805,0.8347443548218609,-3.753268577619073,13.718880990567166
6.297700566279133,1.9368801385492047,5.251830826789399,0.9719331647275327,-3.9698865724253407,13.644267463180892
6.317069367664625,1.8971812728249513,5.261550158436674,1.1083758393593417,-4.208732560574765,13.564946920605406
6.336041180392875,1.8550939472192036,5.272633916830268,1.2440253085653958,-4.469312298801234,13.48126580364721
6.354592119865067,1.8104008242311913,5.285074169915921,1.378837966601868,-4.751010285567714,13.39379397377134
6.372696128107378,1.762890721375514,5.29886254958194,1.5127759063395814,-5.0531057792208625,13.303352881776048
6.390325035321133,1.7123596635833054,5.3139903086453355,1.6458094351573418,-5.374789273442609,13.211038274110285
6.407448631956966,1.6586117708488792,5.330448402996909,1.7779198178984446,-5.715180019339542,13.118237855876862
6.424034749665455,1.6014599706554837,5.348227601175894,1.9091021964572132,-6.073344905578169,13.026644143977629
6.44004934937201,1.5407265215997021,5.3673186231404655,2.0393686378969895,-6.448318724646172,12.938262578913914
6.455456614588007,1.4762433343532404,5.3877123095194355,2.168751263686129,-6.839125547186809,12.855414789997457
6.47021904793154,1.4078520788813722,5.4093998221562964,2.2973054115861036,-7.244800576249536,12.780736689927851
6.484297568720353,1.3354040731188768,5.432372876272158,2.4251127784853823,-7.664411431340126,12.717170763995313
6.497651609451542,1.2587599588054754,5.456624004057011,2.5522844861253353,-8.097077279599796,12.667951453672577
6.510239209039597,1.1777891860094774,5.482146848918265,2.678964000662061,-8.541983532948832,12.636581827513941
6.522017100899691,1.092369350679989,5.508936488924886,2.8053298189372007,-8.998388885684934,12.626798663160336
6.532940794406491,1.0023854618231396,5.5369897871142575,2.931597805568804,-9.465620161489937,12.64252146262885
6.542964649024722,0.9077292602082402,5.566305765169946,3.0580230201950926,-9.943048606842734,12.68777854907302
6.552041941626805,0.8082987741398129,5.596885995371897,3.184900805685823,-10.43003867600669,12.766599910834756
6.560124929368203,0.703998387379746,5.628735003428756,3.3125668047941703,-10.925856678216864,12.882861404033983
6.567164913242,0.5947398205975774,5.661860671476697,3.44139541883451,-11.429521468812137,13.040057675122437
6.573112311447976,0.480444605909456,5.696274625665042,3.5717959955857346,-11.939572117545136,13.24097092301088
6.5779167575070705,0.3610488847340046,5.731992585620899,3.7042057048158434,-12.453717560311352,13.48718845910234
6.58152724635441,0.2365117091308911,5.769034642669058,3.839077589406867,-12.968320094828744,13.778403076087454
6.583892363445719,0.10682850818260364,5.807425418563127,3.9768616201677416,-13.477648157260733,14.111406226313218
6.584960648527545,-0.027947973390003683,5.847194034764804,4.117975682430874,-13.972815458809265,14.478656491663248
6.5846811687936455,-0.16767612797809633,5.888373791589113,4.262762247347506,-14.440307937892799,14.866280807555249
6.583004407513864,-0.3120792073570243,5.931001414062588,4.4114250554230585,-14.859998784270891,15.251358944292537
6.579883615440294,-0.4606791951997332,5.975115664616818,4.563938644865984,-15.202590149957384,15.598386911344523
6.575276823488297,-0.6127050966993071,6.020755051065478,4.719922513979429,-15.426546169732614,15.854978216188579
6.569149772521303,-0.7669705583966332,6.067954276205272,4.878472296141315,-15.474876309307456,15.947255234113825
6.561480066937337,-0.9217193214897077,6.116738999166685,5.037944848482454,-15.272701098264019,15.776161224324818
6.55226287372244,-1.0744463324723479,6.16711844765151,5.1957064607257015,-14.727472372083604,15.217215515659653
6.541518410397717,-1.221721056193184,6.219075512258767,5.347878615882298,-13.734926621576598,14.12791351776167
6.529301199835785,-1.35907032240895,6.27255429841759,5.489157751059914,-12.194687582989078,12.368179002417785
6.515710496611695,-1.4810171982388407,6.327445875928189,5.612839541084092,-10.038336051005416,9.837858516873933
6.500900324629307,-1.5814005587488948,6.38357427133903,5.711218126252832,-7.267489331592287,6.528106064715012
6.485086319041818,-1.6540754520648178,6.440686452601558,5.776499186899982,-3.9893094766026396,2.569676974101658
6.46854556452117,-1.693968546830844,6.498451444470558,5.802195956640999,-0.4270834238717287,-1.7522633769436171
6.451605879052861,-1.6982393810695613,6.556473404036968,5.784673322871562,3.113824799134763,-6.0436143272953045
6.434623485242166,-1.6671011330782137,6.6143201372656835,5.724237179598609,6.321249148271394,-9.902339204097743
6.417952473911384,-1.6038886415954998,6.67156250906167,5.625213787557632,8.959023610510554,-13.02901371679808
6.401913587495429,-1.5142984054903943,6.727814646937246,5.4949236503896515,10.915413251581054,-15.290227412853962
6.3867706034405245,-1.4051442729745838,6.782763883441143,5.342021376261112,12.199814966759643,-16.712050959713793
6.372719160710779,-1.2831461233069874,6.836184097203754,5.174900866663974,12.903300127273193,-17.425534348347668
6.359887699477709,-1.1541131220342555,6.887933105870394,5.000645523180498,13.151480375057426,-17.603110258860085
6.348346568257367,-1.0225983182836813,6.937939561102199,4.824614420591897,13.06927081203791,-17.41203489542336
6.33812058507453,-0.8919056101633022,6.9861857053081176,4.650494071637663,12.762482436835233,-16.99092200174397
6.329201528972897,-0.7642807857949498,7.032690646024494,4.480584851620224,12.312373982733815,-16.44366292101096
6.321558721114948,-0.6411570459676117,7.077496494540696,4.3161482224101135,11.777344338466113,-15.842657508244946
6.315147150655272,-0.5233836025829506,7.1206579767647975,4.157721647327664,11.197367449135685,-15.23539914558324
6.309913314629442,-0.4114099280915937,7.162235193238074,4.005367655871831,10.598740376425358,-14.651207286593769
6.305799215348526,-0.30542252432734013,7.202288869796793,3.8588555830058935,9.998130204081226,-14.10682897329435
6.302744990105253,-0.20544122228652786,7.240877425626852,3.71778729327295,9.405671968028576,-13.610650222887804
6.300690577882388,-0.1113845026062421,7.278055298559582,3.581680791044072,8.82719975182081,-13.165680715172185
6.299576732856325,-0.02311250508803399,7.313872106470022,3.45002398389235,8.26579317984881,-12.77159052738208
6.299345607805445,0.05954542671045411,7.348372346308945,3.3223080786185295,7.722821735909036,-12.426063819313041
6.299941062072549,0.13677364406954445,7.381595427095131,3.198047440425399,7.198636044719269,-12.125680392649768
6.3013087985132445,0.20876000451673715,7.413575901499384,3.0767906364989015,6.693017353816464,-11.866479497675932
6.303396398558412,0.2756901780549018,7.4443438078643736,2.958125841522142,6.205464175523165,-11.64431366696503
6.306153300338961,0.3377448198101335,7.473925066279595,2.841682704852492,5.735370545873437,-11.455065695204404
6.309530748537062,0.39509852526886785,7.502341893328119,2.7271320479004477,5.2821328175336895,-11.294777455763327
6.313481733789751,0.44791985344420476,7.5296132138071235,2.6141842733428144,4.8452097578542075,-11.159722560403143
6.317960932324193,0.49637195102274684,7.555755056540551,2.502587047738783,4.424152474555506,-11.046443692143239
6.322924651834421,0.5406134757683019,7.58078092701794,2.3921226108173506,4.018615152807841,-10.951768047790148
6.328330786592104,0.5807996272963802,7.604702153126113,2.282604930339449,3.628353891228753,-10.872809478244463
6.334138782865067,0.6170831662086678,7.627528202429508,2.1738768355570044,3.2532184643000637,-10.80696275741671
6.340309614527154,0.6496153508516684,7.649266970785078,2.065807207982837,2.8931402017199552,-10.751893368352414
6.34680576803567,0.678546752868868,7.669925042864906,1.958288274299313,2.5481180839411954,-10.70552488449287
6.353591235564359,0.70402793370828,7.6895079256078995,1.8512330254543843,2.2182044231706115,-10.666025191462817
6.360631514901442,0.7262099779399861,7.7080202558624435,1.744572773539756,1.903491008433203,-10.631792273554044
6.367893614680842,0.7452448880243181,7.725465983597841,1.6382548508042156,1.604096261515688,-10.601439969523726
6.375346063561085,0.761285850639475,7.741848532105883,1.5322404511089784,1.320153724773946,-10.573783912427272
6.38295892206748,0.7744873878872144,7.757170936616973,1.4265026119847057,1.0518020471100322,-10.54782776066501
6.390703795946352,0.7850054083583147,7.7714359627368195,1.3210243343780557,0.7991765279962372,-10.5227497712191
6.398553850029935,0.792997173638277,7.7846462060806,1.2157968366658647,0.5624022061502746,-10.497889740904684
6.406483821766318,0.7986211956997797,7.796804174447259,1.1108179392568178,0.3415884293540891,-10.472736334173895
6.414470033723315,0.8020370799933206,7.807912353839828,1.0060905759150789,0.13682480829221016,-10.446914818123108
6.4224904045232485,0.8034053280762428,7.817973259598978,0.9016214277338478,-0.051821564340160275,-10.420175231530298
6.430524457804011,0.8028871124328412,7.826989473876317,0.7974196754185449,-0.22430776094857485,-10.3923810217427
6.438553328928339,0.8006440348233554,7.834963670630502,0.6934958652011178,-0.3806156699108125,-10.363498189180355
6.446559769276573,0.7968378781242473,7.841898629282514,0.5898608833093143,-0.5207517887243939,-10.333584983159312
6.454528148057816,0.7916303602370034,7.847797238115607,0.4865250334777212,-0.6447462950759915,-10.302782194291954
6.462444451660185,0.7851828972862435,7.852662488450385,0.38349721153480165,-0.752651525742198,-10.271304087873332
6.470296280633048,0.7776563820288215,7.856497460565732,0.2807841706560683,-0.8445399854381433,-10.239430019598776
6.478072844453336,0.7692109821744401,7.859305302272293,0.17838987046008054,-0.9205019985744537,-10.207496769964186
6.48576495427508,0.7600059621886955,7.8610892009768945,0.07631490276043867,-0.9806431069765826,-10.175891627083967
6.493365013896967,0.7501995311189297,7.861852350004499,-0.025444013510401,-1.0250813065195323,-10.145046239697628
6.500867009208156,0.7399487180537343,7.861597909869395,-0.1268944759073773,-1.053944205856498,-10.115431253027422
6.508266496388694,0.7294092759951694,7.8603289651103205,-0.22804878843765153,-1.0673661814784923,-10.087551729993907
6.515560589148645,0.7187356141803845,7.858048477225944,-0.32892430573759057,-1.0654855957471603,-10.061943349056145
6.522747945290449,0.7080807582229128,7.854759234168569,-0.42954373922815203,-1.04844213884424,-10.039169357415169
6.529828752872678,0.6975963368344704,7.850463796776287,-0.5299354328023037,-1.0163743523967064,-10.019818244095624
6.536804716241023,0.6874325933105033,7.845164442448264,-0.63013361524326,-0.9694173925983562,-10.00450208084263
6.543679042174128,0.6777384193845197,7.838863106295832,-0.7301786360516862,-0.9077010948591108,-9.993855458863123
6.550456426367973,0.6686614084359286,7.8315613199353145,-0.8301171906403174,-0.8313484115207523,-9.988534924823592
6.557143040452333,0.6603479243207211,7.823260148028911,-0.9300025398885533,-0.7404743104740042,-9.989218788282566
6.56374651969554,0.652943181215981,7.813960122630026,-1.029894727771379,-0.6351852475630339,-9.996607132289123
6.5702759515077,0.6465913287403507,7.803661175352312,-1.1298607990942702,-0.5155793620806844,-10.011421805703055
6.576741864795103,0.6414355351195439,7.792362567361369,-1.2299750171513006,-0.38174759592350876,-10.034406105152604
6.583156220146298,0.6376180591603088,7.780062817189856,-1.3303190782028267,-0.23377600774145624,-10.066323760077228
6.589532400737902,0.6352802990828942,7.766759626407828,-1.430982315803599,-0.07174964989040923,-10.107956707472189
6.595885203728731,0.6345628025839901,7.752449803249792,-1.532061882878321,0.10424149355880606,-10.160100972349102
6.602230831754571,0.6356052175195782,7.7371291844210095,-1.633662892601812,0.29409383413011486,-10.223559740358727
6.608586883929767,0.6385461558608794,7.720792555494992,-1.7358984900053993,0.49767786322933055,-10.299132400380097
6.6149723454883755,0.6435229344931727,7.703433570594938,-1.8388898140092003,0.7148209722122648,-10.387597920785998
6.621407574833308,0.6506711442152953,7.685044672454846,-1.9427657932170603,0.9452837719074104,-10.489690369405736
6.627914286275461,0.6601239819343694,7.665617014522676,-2.0476626969111176,1.1887277275349823,-10.606063650596873
6.6345155260948045,0.6720112592097192,7.645140387553565,-2.153723333417086,1.4446712077903012,-10.73724155998078
6.641235638686902,0.6864579712876222,7.623603154219394,-2.261095749016894,1.7124301179104209,-10.883547985808441
6.648100218399778,0.7035822724667264,7.600992196729225,-2.3699312288749783,1.9910381019089018,-11.045010448547334
6.655136041124445,0.7234926534858155,7.5772928844404746,-2.4803813333604516,2.2791398230201203,-11.221228107642943
6.662370967659303,0.7462840517160166,7.55248907110687,-2.592593614436881,2.5748490564259168,-11.411192851171972
6.669833808176463,0.7720325422802758,7.526563134962501,-2.7067055429486007,2.875561315450419,-11.613049181700998
6.677554133599266,0.80078815543478,7.4994960795330154,-2.8228360347656105,3.1777086835532153,-11.82377556611372
6.6855620151536135,0.8325652422703121,7.471267719185359,-2.941073790426748,3.476442909580227,-12.038767331365937
6.693887667576317,0.8673296713661144,7.4418569812810915,-3.0614614637404074,3.7652325907283117,-12.25130030920869
6.702560964289979,0.9049819972733975,7.4112423666436875,-3.1839744668324945,4.035363167211496,-12.45185760069899
6.711610784262713,0.9453356289455124,7.379402621975363,-3.3084930428394843,4.275337493700887,-12.627313113213487
6.721064140552168,0.9880890038825212,7.346317691546968,-3.434766173971619,4.470194735394851,-12.759991467675878
6.730945030590994,1.0327909512364697,7.311970029807252,-3.562366088648378,4.600803219844639,-12.826674060220741
6.741272940103358,1.078798983434916,7.276346368920769,-3.6906328292505854,4.6432473216349015,-12.797707544324638
6.7520609299377075,1.1252314566512651,7.239440040628263,-3.8186099046938318,4.568527150168041,-12.636504720545721
6.76331324450422,1.1709167281529456,7.201253941581324,-3.944974951899289,4.342922161282202,-12.299908691502276
6.775022411785749,1.2143459497657676,7.161804192062331,-4.067974038814311,3.92951224479963,-11.740087856627218
6.787165871283407,1.2536410722137639,7.121124451674189,-4.185374917380583,3.291433502534083,-10.908748603389
6.799702282005545,1.2865554072391048,7.0792707025003825,-4.294462403414474,2.3973370294245173,-9.764311695322796
6.812567836077936,1.3105287775333498,7.036326078466238,-4.392105520367702,1.2290335433714492,-8.282044894393742
6.82567312385327,1.3228191129670643,6.9924050232625605,-4.474925969311639,-0.20968635383523626,-6.465797455071841
6.838901314982941,1.320722249428712,6.947655763569444,-4.5395839438623575,-1.8854226004242807,-4.358138733274
6.852108537477228,1.3018680234244693,6.902259924130821,-4.583165331195097,-3.7321578886198816,-2.044259860610616
6.865127217711473,1.2645464445382704,6.85642827081887,-4.603607929801203,-5.656002103808348,0.3545755083747805
6.877772682156856,1.207986423500187,6.810392191520858,-4.600062174717456,-7.5484098620429965,2.698940057843811
6.889852546391857,1.132502324879757,6.764391569773683,-4.573072774139018,-9.30475349552046,4.856190459798577
6.901177569640655,1.0394547899245523,6.718660842032293,-4.524510869541031,-10.842151778371198,6.7241261376848325
6.911572117539901,0.9310332721408403,6.673415733336882,-4.457269608164183,-12.110589763927894,8.245321475234316
6.92088245026131,0.8099273745015614,6.6288430372552405,-4.37481639341184,-13.094678628114917,9.40870154050597
6.928981724006325,0.6789805882204122,6.585094873321122,-4.2807293780067805,-13.807564540235271,10.240609962907076
6.935771529888529,0.5409049428180595,6.542287579541054,-4.17832327837771,-14.280935659621196,10.790861308498226
6.94118057931671,0.3980955862218475,6.500504346757277,-4.070414665292728,-14.555023888692451,11.119084095427263
6.945161535178928,0.25254534733492295,6.45980020010435,-3.9592238243384554,-14.670936885769436,11.284451076792465
6.947686988652277,0.10583597847722859,6.4202079618609655,-3.8463793135705306,-14.665960425253788,11.339559176649288
6.94874534843705,-0.04082362577530929,6.38174416872526,-3.732983721804038,-14.571400919023798,11.327783005217784
6.9483371121792965,-0.1865376349655473,6.3444143315072195,-3.61970589175186,-14.412156630291253,11.28294262879458
6.946471735829641,-0.3306592012684598,6.308217272589701,-3.506876465463914,-14.2072549060168,11.230225388494365
6.943165143816956,-0.4727317503286278,6.273148507935062,-3.3945742115789703,-13.970805309415931,11.187612492062557
6.9384378263136695,-0.6124398034227871,6.239202765819273,-3.282698086658345,-13.713036516002017,11.167368611510756
6.932313428279442,-0.7495701685828073,6.206375784952689,-3.1710244005432373,-13.441247949622703,11.177378140126436
