th1 (rad),w1 (rad/s),th2 (rad),w2 (rad/s)
5.887790688967938,1.0435129151271125,2.6309836305311056,-1.447475808598937
5.898225818119209,1.0722165404720758,2.616508872445116,-1.4681077521197403
5.908947983523929,1.0980899407188216,2.601827794923919,-1.4932195953284957
5.919928882931117,1.1211512506122887,2.5868955989706337,-1.5228258896873705
5.93114039543724,1.1414512135188257,2.57166734007376,-1.556903691481071
5.942554907572428,1.1590742965139016,2.556098303158949,-1.5953914154535642
5.954145650537567,1.174139075782773,2.5401443890044133,-1.6381887945133475
5.965887041295395,1.1867978313919307,2.52376250105928,-1.6851580243164697
5.977755019609314,1.1972353250528875,2.5069109208161153,-1.736126118625462
5.989727372859843,1.2056667738656939,2.4895496596298607,-1.790888442699925
6.0017840405984995,1.2123350745651105,2.4716407752028613,-1.849213331850359
6.0139073913441505,1.2175073733691926,2.4531486418843578,-1.9108476455201302
6.026082465077843,1.2214711128466043,2.4340401654291566,-1.975523058759191
6.038297176206308,1.2245297161891344,2.4142849348415645,-2.042962857102771
6.0505424733682,1.2269980884233964,2.3938553062705368,-2.11288898096347
6.062812454252434,1.2291981218870358,2.372726416460902,-2.1850290634458593
6.075104435471304,1.2314543893486065,2.3508761258264435,-2.2591232209875525
6.08741897936479,1.2340901932834842,2.328284893616568,-2.3349303876569194
6.099759881297625,1.2374241159197386,2.3049355897399986,-2.412234028054393
6.112134122456823,1.2417671844258245,2.2808132494594546,-2.490847116328505
6.124551794301081,1.2474207321463306,2.2559047782961694,-2.5706163251735883
6.137026001622544,1.2546750032614866,2.2301986150444337,-2.6514254243533384
6.1495727516551595,1.2638085174945164,2.2036843608009002,-2.7331979395198966
6.162210836830105,1.2750881857852037,2.1763523814057013,-2.8158991661500195
6.174961718687957,1.2887701487353345,2.148193389744201,-2.8995376687957624
6.1878494201753105,1.3051012979171284,2.119198013056243,-2.984166422251848
6.200900433154482,1.324321435962097,2.0893563488337246,-3.0698837694337175
6.214143647514103,1.3466660343434425,2.0586575111393874,-3.156834382307008
6.227610307857537,1.372369557223806,2.0270891673163174,-3.245210419209725
6.241334003429775,1.4016693347959681,1.99463706312422,-3.3352530767236543
6.255350696777734,1.4348099893135222,1.9612845323569834,-3.4272547392718256
6.26969879667087,1.4720484406761272,1.927011984964265,-3.5215619370722924
6.284419281077631,1.513659545260284,1.8917963655935421,-3.618579334862141
6.299555876530234,1.5599424509108166,1.8556105722449208,-3.7187749912910677
6.315155301039342,1.6112277815974074,1.81842282233201,-3.8226871526124193
6.331267578855316,1.667885795394489,1.7801959508058858,-3.930932873418827
6.347946436809261,1.7303356856818801,1.7408866220716974,-4.044218788353954
6.36524979366608,1.7990562109748576,1.700444434188158,-4.163354384128424
6.383240355775828,1.8745978304314515,1.6588108903468737,-4.289268124530541
6.401986334080143,1.9575964649149822,1.6159182091015682,-4.423026730593567
6.421562298729293,2.0487888507870373,1.5716879417956326,-4.565857752759979
6.442050187237163,2.149029118489431,1.526029364268033,-4.719175176854343
6.463540478422057,2.259305549584137,1.4788376124994895,-4.884606965632442
6.486133533917898,2.3807551472640776,1.429991542843165,-5.064021751061565
6.509941085390539,2.5146711500624463,1.3793513253325493,-5.259548614057248
6.535087796891163,2.6624939289638507,1.326755839191977,-5.473577646604759
6.561712736180802,2.825767042267099,1.2720200627259293,-5.708717303863501
6.589970406603473,3.0060244701316834,1.2149328896872942,-5.967663080421012
6.6200306513047895,3.204547199448425,1.1552562588830841,-6.252893726509214
6.652076123299274,3.4218806399726347,1.092727321617992,-6.566046417397799
6.686294929699001,3.6569344939200286,1.027066857444014,-6.9067243298784025
6.722864274638201,3.9054097379321426,0.95799961414523,-7.270379955301313
6.761918372017522,4.157305053955271,0.885295814592217,-7.6449204946798766
6.803491422557075,4.393635080997832,0.8088466096454182,-8.006195379724797
6.847427773367053,4.583821834760885,0.7287846558481702,-8.314352275660033
6.893265991714662,4.687784225515117,0.6456411330915699,-8.51659177774533
6.940143833969813,4.668039886821349,0.5604752153141166,-8.56364044051108
6.986824232838027,4.5101181579483605,0.4748388109090058,-8.437557204852329
7.03192541441751,4.2347079944916395,0.3904632388604825,-8.16799394948753
7.074272494362427,3.8862316044720635,0.3087832993656072,-7.816062232492576
7.113134810407148,3.5089832223860964,0.23062267704068146,-7.441579228589389
7.148224642631009,3.1328196869967084,0.15620688475478756,-7.083920569431694
7.179552839500976,2.7726659626593815,0.08536767906047062,-6.761878235629832
7.207279499127569,2.433648351953029,0.01774889670417229,-6.480993800011946
7.231615982647099,2.1158414574756477,-0.04706104129594717,-6.240138435793667
7.252774397221856,1.817181176021705,-0.10946242565388384,-6.035468548529964
7.270946208982073,1.5349522564001201,-0.1698171111391835,-5.862395342565305
7.286295731546074,1.2664623538288844,-0.22844106456483654,-5.7164408941403515
7.298960355084363,1.0093098306778379,-0.28560547350624005,-5.593548798396205
7.309053453391141,0.7614643215647924,-0.3415409614902021,-5.490150216428615
7.316668096606789,0.5212673945696581,-0.3964424636544882,-5.403130516510136
7.321880770552486,0.28740312826165815,-0.45047376881958956,-5.329762740960554
7.324754801835103,0.05886058708999306,-0.5037713962291951,-5.2676365070425755
7.3253434077060025,-0.16510285021479545,-0.5564477612996208,-5.2145936817194825
7.323692379203854,-0.38499428304132965,-0.6085936981168156,-5.168674514289978
7.319842436373441,-0.6011137665132946,-0.6602804432597154,-5.128074683317495
7.313831298708308,-0.8135790792469709,-0.7115611900928903,-5.091112476277821
7.305695507915838,-1.0223477156079863,-0.7624723148556685,-5.056204940445947
7.2954720307597585,-1.2272370455345292,-0.813034364260128,-5.02185180371561
7.283199660304414,-1.4279434531277364,-0.863252882297284,-4.9866260332138905
7.268920225773136,-1.6240610756541192,-0.913119142629423,-4.94916998108088
7.252679615016595,-1.8151005564589682,-0.9626108424402318,-4.9081961271670504
7.234528609452005,-2.0005080190185014,-1.0116928037119022,-4.862491463832868
7.21452352926182,-2.1796842782376418,-1.0603177183502308,-4.810924588069342
7.1927266864794435,-2.3520041398442157,-1.1084269642309241,-4.75245458529177
7.169206645081001,-2.5168355086499177,-1.1559515100838418,-4.68614082191547
7.144038289994501,-2.673557938892884,-1.2028129183029965,-4.6111528215334685
7.117302710605572,-2.821580219014298,-1.2489244465183311,-4.526779488194116
7.089086908415429,-2.9603565888818895,-1.2941922414002722,-4.432437059516508
7.05948334252661,-3.08940123456481,-1.3385166119954373,-4.327675315396688
7.028589330180962,-3.208300784562191,-1.381793365149404,-4.212181722881684
6.99650632233534,-3.3167246287510124,-1.423915182378221,-4.085783349484021
6.96333907604783,-3.4144329826508613,-1.4647730158730612,-3.9484465106941626
6.929194746221321,-3.501282711172465,-1.504257480980003,-3.8002742203952975
6.894181919109596,-3.5772309971618754,-1.542260223183956,-3.6415015781048212
6.858409609137977,-3.642336984812994,-1.578675238965004,-3.4724892537895067
6.821986239289847,-3.6967615458752636,-1.6134001315028992,-3.2937152253787114
6.785018623831094,-3.7407653121610487,-1.6463372837566863,-3.1057648974245478
6.747610970709484,-3.7747050997241924,-1.6773949327309319,-2.909319696244012
6.709863919712243,-3.7990288288515526,-1.706488129693372,-2.7051442123400635
6.671873631423727,-3.8142690301619635,-1.7335395718167728,-2.4940719574588757
6.633730941122107,-3.8210350289106363,-1.7584802913913615,-2.276989828895154
6.595520590833001,-3.820003921512568,-1.781250189680313,-2.0548214287436566
6.557320551617875,-3.8119105001361535,-1.8017984039677495,-1.828509465046906
6.519201446616513,-3.7975363381885834,-1.8200834986182186,-1.5989975536641168
6.481226083234628,-3.7776983131573214,-1.8360734741548599,-1.3672118288159443
6.443449100103054,-3.7532369030779638,-1.8497455924430193,-1.134042840253993
6.405916731072274,-3.7250046383077624,-1.8610860208455593,-0.9003282514771832
6.368666684689196,-3.6938551126565273,-1.8700893033603312,-0.6668368466342995
6.331728133562631,-3.660632952094489,-1.876757671826674,-0.43425430036825685
6.2951218040416865,-3.6261651043514114,-1.8811002148303566,-0.2031710684153753
6.258860152998173,-3.5912537521425802,-1.8831319255145103,0.02592737308982962
6.2229476154767465,-3.5566710733416023,-1.8828726517836119,0.2526678610416009
6.18738090474333,-3.5231559820325438,-1.8803459731731957,0.47679452613269446
6.1521493449230045,-3.4914128942470892,-1.8755780279118688,0.6981716373808736
6.117235215980534,-3.462112479330187,-1.86859631153806,0.9167846445983174
6.082614091187232,-3.435894287763558,-1.8594284650920767,1.1327398376047197
6.048255148309597,-3.413371090973896,-1.8481010667160296,1.3462630868276773
6.014121437399858,-3.3951347262239033,-1.8346384358477528,1.5576981338136058
5.9801700901376185,-3.3817632036941183,-1.8190614545096166,1.7675048592128755
5.9463524581006775,-3.3738287915875373,-1.801386405917488,1.9762578643051085
5.912614170184802,-3.371906729897522,-1.781623827274437,2.184645547167526
5.878895102885827,-3.3765841056611983,-1.7597773718027616,2.3934696096999444
5.845129261829215,-3.3884682074969192,-1.7358426757057621,2.603644547463711
5.811244579754246,-3.4081932946099367,-1.709806230231125,2.8161960635671828
5.777162646808146,-3.4364240527353522,-1.6816442695954532,3.0322563627743624
5.742798406280793,-3.4738528864667177,-1.6513217059677097,3.253052678259865
5.708059877416125,-3.521186328784168,-1.618791179185111,3.479882767784174
5.6728480141282835,-3.5791127962966947,-1.5839923515072694,3.714066879260113
5.6370568861653165,-3.648239052105647,-1.5468516827146683,3.9568589445178577
5.60057449564426,-3.7289752701855687,-1.5072830932694898,4.209289402523135
5.563284742942404,-3.8213378967430205,-1.4651901992442584,4.47189716691455
5.525071363974973,-3.924626216824719,-1.420471227575113,4.744289659368077
5.485825101806726,-4.036917626279115,-1.3730283309814322,5.024454325585646
5.445455925543935,-4.154334297842647,-1.3227837877255757,5.3077550479575795
5.403912582565508,-4.270099568996487,-1.269706237246,5.585637009662851
5.361211586875543,-4.373596901451818,-1.2138498671493714,5.844332623193399
5.3174756178610245,-4.450033447536439,-1.1554065409174374,6.0644009533336
5.2729752833856605,-4.481779111783719,-1.0947625313841014,6.222583528905437
5.228157492267823,-4.452383837429705,-1.032536696095047,6.297360852107435
5.183633653893526,-4.352677294488149,-0.9695630875739727,6.277364337964302
5.140106880948645,-4.1855522138113,-0.9067894441943296,6.167905739419313
5.098251358810532,-3.9653791639567717,-0.8451103868001365,5.990017430506773
5.058597567170964,-3.7120414524472585,-0.7852102124950687,5.7720634395402834
5.021477152646492,-3.4440902634499433,-0.7274895780996659,5.540232940805644
4.987036250011992,-3.174971355316099,-0.6720872486916094,5.3133845777838085
4.955286536458831,-2.9126360515693617,-0.6189534029137713,5.102609559769932
4.926160175943138,-2.6608403318155656,-0.567927307316072,4.91311213053727
4.899551772624982,-2.420686615726243,-0.5187961860106993,4.746391502952314
4.87534490646772,-2.191810443692739,-0.4713322709811762,4.601904846486332
4.853426802030793,-1.9731400458745756,-0.42531322251631287,4.478122863674317
4.833695401572047,-1.763333630668255,-0.3805319938795697,4.3731312677249665
4.816062065265364,-1.5610123195298362,-0.33680068120232004,4.284946005613051
4.800451942070066,-1.3648747255724463,-0.29395122114618955,4.211663481934991
4.7868031948143415,-1.1737468793435135,-0.25183458632683964,4.151521056992394
4.775065726020906,-0.986598574220563,-0.2103193757569157,4.102911169304715
4.7651997402787005,-0.8025433201023778,-0.16929026406386855,4.064372974304296
4.757174307077677,-0.6208311000176436,-0.1286465343208256,4.034574255425682
4.7509659960775,-0.44083867639144836,-0.08830079176656877,4.012290212796037
4.7465576093135855,-0.26205977053251317,-0.0481778896386084,3.9963824175271205
4.74393701160826,-0.08409613999043405,-0.008214065463337188,3.985779469392202
4.743096050208355,0.0933501060988838,0.03164372923058483,3.9794599972945375
4.744029551269344,0.2704829658659699,0.07143832920353022,3.9764382000869953
4.746734380928004,0.4474179640422377,0.11120271120440017,3.9757519237050465
4.751208560568426,0.6241867970924636,0.15096023044145063,3.97645319146166
4.757450428539351,0.8007414976944617,0.19072476235606722,3.977601083757506
4.7654578435162955,0.9769584126068068,0.2305007731936423,3.978256866759464
4.775227427642363,1.1526422723185588,0.2702833418612369,3.977481278250849
4.786753850365549,1.3275306046504376,0.3100581546437454,3.97433388325856
4.800029156412053,1.5012987102411706,0.34980149347633105,3.9678744077514008
4.815042143514465,1.6735653769171466,0.3894802375538451,3.9571659443272607
4.831777797283637,1.8438994633578505,0.4290518969971177,3.9412799000267293
4.850216791917216,2.011827431558088,0.468464695997385,3.9193025252535336
4.870335066232797,2.1768418541741315,0.5076577212499204,3.8903428271641527
4.892103484774538,2.33841086923596,0.5465611495215619,3.8535416341741175
4.915487593466898,2.495988503516364,0.585096565863303,3.808081543764746
4.940447478502061,2.6490257396426755,0.6231773813009505,3.7531974564149704
4.966937735898488,2.7969821629732583,0.6607093558651002,3.6881873761519746
4.9949075575282205,2.939337993713199,0.6975912296266199,3.612423143597004
5.024300937465353,3.075606288060577,0.7337154610625899,3.525360759836708
5.0550570003459585,3.205345078632047,0.7689690686609569,3.426549957203687
5.087110451132279,3.328169217421068,0.8032345682329938,3.315642673703771
5.12039214330649,3.443761682085323,0.8363909949700314,3.1924000891132165
5.154829760127344,3.551884106658857,0.8683149958611636,3.0566978814269947
5.190348601193932,3.652386299985951,0.8988819746754335,2.9085293629247024
5.226872464193792,3.7452145199523676,0.9279672683046806,2.748006158502657
5.264324609393316,3.8304182814603394,0.9554473298897072,2.5753561002609127
5.302628792207919,3.9081554952904924,0.9812008908923163,2.390918038401842
5.3417103471608245,3.9786957688435294,1.0051100712763348,2.195133316315242
5.38149730484926,4.042421753589347,1.0270614044394872,1.98853373270693
5.421921522385153,4.099828501835998,1.0469467417665566,1.771725917546456
5.462919807403513,4.151520898392043,1.0646640009420212,1.5453721778683893
5.504435016387434,4.198209358305151,1.080117722720705,1.3101680141752103
5.546417109970485,4.24070412349622,1.0932194028624571,1.066816652486314
5.588824151205447,4.279908638595667,1.1038875693873202,0.8160010608063102
5.631623237591404,4.3168126272868355,1.1120475799953833,0.5583540004931852
5.674791363864272,4.3524856124253555,1.117631120000315,0.29442668373190256
5.718316219988526,4.388071715368218,1.120575386837634,0.024656555575708117
5.762196937142208,4.424786624618098,1.120821952393391,-0.250665409592496
5.806444803388389,4.463917636191928,1.1183152982974662,-0.5314277010072542
5.851083979750308,4.5068276332360675,1.1130010212873938,-0.8177315891709969
5.896152256082669,4.554963778955854,1.1048237053956838,-1.1099250234599465
5.941701893872227,4.609871514238252,1.0937244551610843,-1.4086374902069838
5.987800609014609,4.673214106116463,1.0796380802590144,-1.7148160993870065
6.034532750075774,4.7467973264201655,1.0624899192651442,-2.0297625610649948
6.082000723339976,4.832597525738405,1.0421922936544943,-2.3551691314904355
6.130326698597361,4.932788759002863,1.01864060233959,-2.69314813676671
6.1796545861873895,5.04975945277857,0.9917091209719229,-3.046242555280757
6.230152180715176,5.186098954293721,0.9612466954191153,-3.4173909792819654
6.282013170258113,5.344514615621762,0.9270727856262957,-3.8097927387840267
6.33545831641433,5.527602705500062,0.8889748582384555,-4.226566710524701
6.390734343469331,5.737328392526849,0.8467091911332084,-4.670002197742595
6.4481076273946,5.973956287699293,0.8000091691557825,-5.14004133470606
6.507847190271592,6.234019073528908,0.7486087558087219,-5.63141770285517
6.570187381006881,6.506831607501213,0.6922945787801702,-6.12876567881731
6.6352556970818934,6.769511761768691,0.6310069219919971,-6.599656121267146
6.70295081469958,6.982573143514497,0.5650103607793256,-6.988473414340119
6.772776546134725,7.092814742852239,0.49512562663592447,-7.220593161008236
6.8437046935632475,7.052876842880001,0.4229196950258421,-7.230004034487456
6.914233461992048,6.8529939616765825,0.35061965468096756,-7.004001516702773
6.982763401608813,6.533501488915595,0.2805796395139398,-6.600670676193373
7.048098416497969,6.158290370819588,0.2145729327520061,-6.111385147477799
7.109681320206165,5.7795581428537295,0.1534590812772281,-5.611104450650172
7.167476901634702,5.425573564159381,0.09734803677072637,-5.1410686127786756
7.221732637276296,5.106409607523519,0.04593735064293961,-4.716788323040741
7.272796733351531,4.822587386106923,-0.001230532587467796,-4.340171341351635
7.3210226072126,4.570742840840525,-0.044632246000984144,-4.0074986685278855
7.366730035621005,4.346430037580727,-0.084707232686263,-3.713391554681823
7.410194335996812,4.1452939929059065,-0.12184114823308123,-3.4524889223271495
7.451647275925871,3.9634761523602124,-0.15636603745635272,-3.220042419628451
7.491282037449473,3.797696009486821,-0.18856646165263724,-3.012050885627291
7.529258997544341,3.645210600538919,-0.21868697050891014,-2.825218066346718
7.56571110354973,3.503737478709792,-0.24693915117237733,-2.656854750500744
7.600748478336828,3.371375047757541,-0.2735076986773848,-2.5047738270844104
7.634462228814404,3.246532075799547,-0.2985554369482289,-2.367195630826607
7.666927549572399,3.1278692053871926,-0.32222739325649497,-2.2426681295772037
7.698206241626272,3.0142518680859554,-0.344654074552267,-2.130001584253213
7.7283487603071315,2.904712938614497,-0.3659540903947991,-2.0282157013520736
7.757395889693276,2.7984233187442014,-0.38623624740831985,-1.9364970203738865
7.785380122880718,2.6946688281360034,-0.4056012176120587,-1.8541644891645221
7.812326811162078,2.592832052808068,-0.4241428625037039,-1.7806415283912402
7.8382551316901585,2.4923780676695566,-0.44194927778761633,-1.7154332345621495
7.8631789123668545,2.3928431768459966,-0.4591036101332378,-1.6581076722819899
7.887107344135314,2.2938259993619985,-0.4756846868560577,-1.6082804509700492
7.910045604128935,2.1949803725049444,-0.4917674913657582,-1.565601973182758
7.931995407853984,2.0960096577928007,-0.5074235110975858,-1.529746889325065
7.9529555044319125,1.9966621217252625,-0.5227209799908364,-1.500405405562389
7.972922125649165,1.896727131226667,-0.5377250340464603,-1.4772761757741368
7.991889396961432,1.7960319565501979,-0.5524977958042017,-1.460060570670406
8.009849716526935,1.6944390160198266,-0.5670984015109057,-1.4484581626889574
8.026794106687133,1.5918434300994537,-0.5815829831377953,-1.4421632978781351
8.042712540988127,1.488170778994862,-0.5960046161165766,-1.4408626486598557
8.057594248778075,1.3833749799087431,-0.6104132426031752,-1.444233656478409
8.071427998577162,1.2774362184020276,-0.6248555791679593,-1.4519437826703256
8.084202360761182,1.1703588840023966,-0.6393750169946626,-1.46365049082957
8.095905949601207,1.062169473959569,-0.6540115219029583,-1.4790018855811393
8.106527644340803,0.952914441413469,-0.6688015407587697,-1.4976379318878397
8.116056788754937,0.84265797559688,-0.6837779200776481,-1.5191921765245155
8.124483368510907,0.7314797122776855,-0.6989698418428933,-1.543293889793923
8.131798165633684,0.6194723825632243,-0.7144027807408326,-1.569570541510804
8.137992889459317,0.5067394174230057,-0.7300984861559406,-1.5976505213039724
8.143060283633547,0.39339253370908833,-0.7460749913689804,-1.6271660099260425
8.146994208970638,0.27954933485125444,-0.7623466514682408,-1.6577559060446738
8.14978970231915,0.16533096550431786,-0.7789242105286875,-1.6890687124082513
