th1 (rad),w1 (rad/s),th2 (rad),w2 (rad/s)
0.3473570442973493,3.052778469720969,5.931442530792027,-1.627810752050535
0.377884828994559,2.942801216290263,5.915164423271522,-1.4498939964950206
0.40731284115746164,2.836236771873869,5.900665483306572,-1.277597288119307
0.4356752088762003,2.733070308934763,5.887889510425379,-1.1112593370110933
0.46300591196554797,2.633121451344829,5.876776917055268,-0.950969981631807
0.48933712647899624,2.5361116253617557,5.8672672172389495,-0.7966641543168185
0.5146982427326138,2.44170988838955,5.859300575695781,-0.6481856598527632
0.5391153416165093,2.3495632908275947,5.852818719097253,-0.5053291577610195
0.5626109745247853,2.2593164758552122,5.847765427519643,-0.3678669140117924
0.5852041392833374,2.170623956305427,5.844086758379524,-0.23556515418037796
0.6069103788463917,2.0831574902738086,5.84173110683772,-0.10819344636565587
0.6277419537491298,1.9966102190744994,5.8406491723740634,0.014470509061418682
0.6477080559398748,1.9106986905410315,5.8407938774646775,0.132639059334209
0.6668150428452851,1.8251635154193064,5.84212026805802,0.24651465135945771
0.6850666779994782,1.7397691487582603,5.844585414571615,0.35629102003724566
0.7024643694870608,1.654303115993557,5.848148324771987,0.4621550229000153
0.7190074006469964,1.5685748886881725,5.8527698750009876,0.5642887976895781
0.7346931495338781,1.4824145391884538,5.858412762977883,0.6628720320228914
0.7495172949257627,1.3956712540254208,5.865041483298112,0.7580842103771475
0.7634740074660169,1.3082117540386677,5.872622325401884,0.8501067552102877
0.7765561250064036,1.2199186490313074,5.881123392953986,0.9391250141874262
0.7887553114967166,1.1306887423052634,5.890514643095861,1.0253300696062213
0.8000621989197693,1.0404312930064192,5.900767943791923,1.1089203627991295
0.8104665118498334,0.9490662400420704,5.911857147419914,1.1901031379137685
0.8199571742502542,0.8565223892342406,5.923758178799051,1.2690957175882727
0.8285223981425965,0.7627355645722502,5.936449135974934,1.3461266286420526
0.836149753788319,0.6676467244501626,5.949910402261355,1.4214365996027434
0.8428262210328207,0.5712000443596696,5.964124768257382,1.4952794540176408
0.8485382214764173,0.4733409685694282,5.979077562797559,1.5679229241655046
0.8532716311621116,0.3740142349242565,5.994756792039214,1.6396494089131577
0.8570117735113542,0.27316187926488744,6.011153286128346,1.7107566967737557
0.859743392304003,0.17072122950520938,6.028260853096084,1.7815586702079669
0.8614506045990551,0.06662290474399152,6.0460764397981634,1.8523859990461435
0.862116833646495,-0.039211157120792664,6.064600299788625,1.923586818354364
0.8617247220752872,-0.14686960758074924,6.083836167972168,1.9955273672722054
0.8602560259994797,-0.2564534774489634,6.103791441644891,2.06859253760251
0.8576914912249901,-0.3680777670794174,6.124477367020916,2.143186240277923
0.8540107135541959,-0.4818727148394534,6.145909229423695,2.2197314385323956
0.8491919864058014,-0.5979845620985443,6.168106543809019,2.2986696104128357
0.843212140784816,-0.7165755457392079,6.1910932399131475,2.380459278396349
0.8360463853274239,-0.8378227225595691,6.214897832697111,2.465573063741324
0.8276681581018283,-0.9619150476629036,6.239553563334524,2.554492464895345
0.8180490076251992,-1.0890478693602386,6.265098487983478,2.6476991921897977
0.8071585289315968,-1.219413638922462,6.291575479905376,2.745661376359432
0.7949643925423722,-1.353187133578241,6.31903209366897,2.8488122616037095
0.7814325212065898,-1.490502827612778,6.347520216285007,2.9575180544271125
0.766527492930462,-1.6314212131737482,6.3770953968292785,3.0720304164427787
0.7502132807987245,-1.775879926289329,6.407815700993706,3.1924177388688664
0.7324544815358313,-1.9236246772990078,6.439739878382395,3.3184680977758094
0.7132182347628412,-2.0741147170881695,6.472924559360153,3.4495563553861674
0.6924770875919595,-2.226398923475107,6.507420122914015,3.5844696855506286
0.6702130983572084,-2.378963422129197,6.543264819769521,3.7211924626649613
0.6464234641359164,-2.5295627739445234,6.580476744396171,3.8566669160345595
0.6211278363964712,-2.6750672774666806,6.619043413556517,3.986574620350793
0.5943771636218044,-2.8113895950338113,6.658909159760024,4.105226898895935
0.5662632676714663,-2.933587083567735,6.699961428748984,4.2056989990211004
0.5369273968357889,-3.03624789822566,6.742018418739195,4.280359965988081
0.5065649178535323,-3.1142184691150856,6.784822018399076,4.321880522118086
0.47542273316238143,-3.163586485488257,6.828040823620257,4.32460149009488
0.44378686830749886,-3.1826346083661563,6.871286838521206,4.285867407613621
0.4119605222238373,-3.1723660471047186,6.914145512597342,4.206769725545242
0.3802368617527901,-3.1363263374154067,6.956213209852795,4.091914450439692
0.348873598378636,-3.0797818526373715,6.997132354357191,3.948296667775259
0.3180757798522623,-3.008621795442958,7.036615321034944,3.7837903306582517
0.28798956189783276,-2.928401343449194,7.074453224341526,3.605832305491531
0.2587055484633408,-2.843759485305649,7.110511547396441,3.4206236967637498
0.23026795361028432,-2.758217964035308,7.144717784364079,3.232856505028269
0.20268577396993123,-2.6742408029722413,7.177046349414361,3.0457983416278087
0.17594336594020882,-2.5934182576413765,7.20750433283064,2.8615470058768073
0.15000918336379504,-2.5166788673182117,7.236119802889408,2.6813223158871238
0.12484239469061292,-2.4444796468298,7.262933026048279,2.5057268255607914
0.10039759822231492,-2.3769569545036457,7.287990294303888,2.3349518661475788
0.07662802867727847,-2.3140377580634355,7.311339812965364,2.168928906424621
0.053487651096644113,-2.255517855013162,7.33302910202961,2.0074354901687275
0.030932472546512494,-2.201114997748425,7.353103456931297,1.8501668063928647
0.008921322569028247,-2.1505039869727938,7.3716051249952255,1.696782644373954
-0.012583717300699692,-2.1033392632447403,7.388572951438965,1.5469373256270387
-0.033617109933147094,-2.0592690460805967,7.404042324695236,1.4002981428257955
-0.05420980039395306,-2.017943871354148,7.418045306123494,1.2565561764349178
-0.07438923910749454,-1.9790214846635272,7.430610867887843,1.1154321298589476
-0.09417945395412981,-1.9421694129394402,7.441765189186433,0.9766789531013479
-0.11360114808352421,-1.9070660967113844,7.451531978717447,0.840082425352192
-0.13267180905063805,-1.8734011660110772,7.459932802970969,0.7054604614376816
-0.15140582071074882,-1.8408752411264593,7.4669874075853455,0.5726616362068065
-0.16981457312201342,-1.8091995042908935,7.472714023947414,0.4415632417166606
-0.18790656816492235,-1.7780951981879995,7.47712965636458,0.3120690745324056
-0.20568752014680236,-1.74729314701267,7.480250347109904,0.1841070741108442
-0.22316045161692907,-1.716533355719468,7.482091417851013,0.057626884280990276
-0.24032578517412376,-1.6855647162934053,7.482667686693823,-0.06740262097852043
-0.2571814323370578,-1.6541448319230614,7.481993660484037,-0.19099582511356067
-0.2737228806562884,-1.6220399578768068,7.480083702232902,-0.31315285857395425
-0.2899432802350565,-1.589025049719815,7.476952173647162,-0.43386208496984413
-0.30583353073225467,-1.5548839039715072,7.472613552797464,-0.5531025810537517
-0.32138236977196977,-1.5194093725424724,7.4670825269869265,-0.6708466084565926
-0.3365764634973945,-1.4824036297523115,7.46037406090236,-0.7870620746286534
-0.3514004997949176,-1.4436784690540418,7.4525034401560735,-0.9017149793747262
-0.36583728448545805,-1.4030556055421268,7.443486290362326,-1.0147718421183916
-0.3798678405408793,-1.3603669597477783,7.4333385719411424,-1.1262021038548171
-0.3934715101383571,-1.315454898028084,7.422076550902594,-1.2359804968438637
-0.4066260591186379,-1.2681724049696455,7.409716745934156,-1.3440893745902895
-0.4193077831683344,-1.2183831636085243,7.396275852188253,-1.4505209946530764
-0.4314916148044196,-1.165961519884199,7.3817706422417215,-1.5552797473941447
-0.4431512300032616,-1.1107923085697637,7.36621784476778,-1.658384324973521
-0.45425915308895926,-1.0527705189292726,7.349634001518044,-1.7598698267659898
-0.464786858278252,-0.9918007795201725,7.332035303250384,-1.859789799944533
-0.47470486607345375,-0.9277966428552146,7.313437405250939,-1.9582182172670646
-0.4839828325020059,-0.8606796520316743,7.2938552230782685,-2.055251398117596
-0.4925896290223227,-0.7903781728920535,7.273302709097092,-2.151009883571129
-0.5004934107512432,-0.7168259767690522,7.251792610261381,-2.245640281621116
-0.5076616705189337,-0.6399605603713941,7.2293362074451695,-2.3393171046302315
-0.5140612761226476,-0.5597211908999894,7.2059430363988675,-2.432244627371468
-0.5196584880316475,-0.47604666611948965,7.181620590125153,-2.5246588004463644
-0.5244189546928424,-0.3888727810269189,7.156374002120689,-2.6168292599736644
-0.5283076825031116,-0.29812949531044997,7.130205709520952,-2.7090614795681143
-0.5312889774562161,-0.20373779961567462,7.103115094725271,-2.8016991137342355
-0.5333263554523728,-0.1056062848257536,7.075098103587929,-2.8951265812532885
-0.5343824183006304,-0.003627428924738829,7.046146837775396,-2.9897719303790655
-0.5344186925898777,0.10232636651132253,7.016249118471605,-3.0861100106310193
-0.5333954289247645,0.21240692884782758,6.9853880183652945,-3.18466594226873
-0.5312713596362862,0.3267945459596056,6.953541358942608,-3.2860188139710576
-0.5280034141766902,0.44570208694915975,6.920681170802897,-3.3908054356550514
-0.5235463933071985,0.5693786921523118,6.886773116446347,-3.4997238010732397
-0.5178526063856754,0.6981125028368457,6.851775878435614,-3.6135356331336705
-0.510871481357307,0.8322315650192057,6.815640522104277,-3.733066929638443
-0.5025491657071149,0.9721015073840509,6.778309852807893,-3.8592046980832118
-0.49282815063327445,1.118117750005836,6.739717805827061,-3.9928869111010554
-0.4816469731332161,1.270688684325651,6.69978893671605,-4.135080898279877
-0.4689400862899596,1.430204243605242,6.658438127733252,-4.2867425864939355
-0.45463804385390716,1.5969812597711952,6.615570701868313,-4.4487447832096025
-0.4386682312561952,1.7711726784870963,6.571083254036217,-4.621756624649563
-0.4209565044713242,1.9526220102320413,6.524865687789721,-4.806048241485336
-0.4014302843690038,2.140638123741385,6.476805205374868,-5.001185656285914
-0.38002390313158996,2.333661762087734,6.426793348812009,-5.205575152777019
-0.3566872855107126,2.528802308542234,6.374737597284239,-5.415825301393759
-0.3313992624252903,2.721259089699021,6.320579344270301,-5.625943091084661
-0.3041866715283001,2.9037349100569503,6.264319913359454,-5.82650875051675
-0.2751493224277306,3.066126574394476,6.206054825854287,-6.004218709431806
-0.24448805668378584,3.1960024262798874,6.146012638759969,-6.142499856226909
-0.21252803242098697,3.2804440896319487,6.0845876401977,-6.2239955713410176
-0.1797235915246675,3.309343173578468,6.02234768448429,-6.235056007022684
-0.1466301597888828,3.2790447087731636,5.959997124414063,-6.1707102788727655
-0.11383971270115117,3.1941870018003047,5.898290021625335,-6.037162536462665
-0.08189784268314812,3.066262636122872,5.837918396260708,-5.849795619898554
-0.051235216321919394,2.909753618540321,5.779420440061722,-5.627880457849482
-0.022137680136516184,2.738252279336485,5.723141635483227,-5.389314796745682
0.005244842656848669,2.5622769453151135,5.6692484875157705,-5.14771493136767
0.030867612109999804,2.3888629623645046,5.617771338202094,-4.911935068149571
0.05475624173364485,2.22214747349111,5.568651987520599,-4.686921033277563
0.07697771646855595,2.064220874228666,5.521782777187823,-4.474900258513679
0.0976199252108426,1.9158738229655252,5.4770337746026865,-4.276408263854353
0.11677866344049785,1.7771371461595158,5.434269691964143,-4.091020639154756
0.134550034902093,1.6476335127152633,5.393359485572596,-3.917823150785016
0.15102637002924563,1.5267918677175714,5.354181254064746,-3.7556935549041723
0.16629428870642135,1.4139717146659891,5.316624318515704,-3.6034612843958924
0.18043400585308125,1.3085315611604385,5.280589705671745,-3.4599925313871926
0.19351932146468565,1.2098640731783428,5.245989780357873,-3.3242315810200345
0.20561796219646908,1.117411963421591,5.212747464547673,-3.1952173685722336
0.216792081830685,1.0306730643691615,5.18079529086195,-3.0720865429129147
0.2270988124743766,0.9491995707295148,5.1500744254328215,-2.9540695877371537
0.23659080818167175,0.8725943413085112,5.12053372955545,-2.8404837225569364
0.24531675159475685,0.8005059055639324,5.092128892329881,-2.730724643739217
0.25332181065039616,0.7326230888897761,5.064821645892489,-2.62425820326043
0.26064804153929394,0.6686697453489004,5.038579063859885,-2.5206125726568334
0.2673347389927829,0.6083998419683596,5.013372938133316,-2.419371130541207
0.27341873741246653,0.5515930002559462,4.989179226827904,-2.3201661428400837
0.278934667415026,0.4980505241390059,4.965977565399503,-2.222673216225532
0.283915172656416,0.4475919030121972,4.943750833237248,-2.1266064623957113
0.288391091686538,0.40005175866708165,4.92248476861329,-2.031714293710122
0.2923916092732088,0.3552771965544266,4.902167625676189,-1.9377757675044183
0.29594438123875305,0.3131255198359108,4.882789868001145,-1.8445974004549963
0.29907563643711216,0.273462265966659,4.864343893996595,-1.7520103817946227
0.3018102590967787,0.23615952837436974,4.846823790178648,-1.6598681228471486
0.3041718543805224,0.20109452919782883,4.830225108950177,-1.568044089083356
0.30618279967250067,0.16814841250324566,4.814544668059344,-1.4764298690983033
0.3078642837975331,0.13720523065945034,4.799780369368361,-1.3849334422925335
0.3092363361041276,0.10815109951967722,4.785931034945436,-1.293477613504812
0.31031784709932436,0.08087350070667282,4.772996258810387,-1.2019985883905284
0.3111265821063911,0.055260711648432964,4.760976272926482,-1.1104446680164706
0.3116791892228754,0.031201346100740338,4.749871826246317,-1.0187750450229929
0.3119912026838828,0.00858398976066984,4.739684075796087,-0.9269586868722589
0.3120770425814895,-0.012703082740009086,4.730414488927365,-0.8349732942420722
0.31195001175408943,-0.03277212164021231,4.7220647559849445,-0.7428043246227312
0.3116222905376873,-0.05173605742955713,4.714636712738717,-0.6504440727093306
0.31110492996339173,-0.06970860729082702,4.708132272011624,-0.5578908003289639
0.3104078438904835,-0.0868043409118218,4.702553364008335,-0.46514790947076284
0.30953980048136526,-0.10313871289812446,4.697901884913627,-0.37222315256012245
0.308508413352384,-0.11882806805115853,4.694179653388026,-0.27912787449399173
0.3073201326718724,-0.13398962492280636,4.691388374643085,-0.18587628118240732
0.3059802364226443,-0.14874144232624598,4.6895296118312615,-0.09248472946629759
0.3044928219993819,-0.163202372880414,4.688604764536598,0.0010289666603066489
0.3028607982705777,-0.17749200719984448,4.6886150542032015,0.09464621857472137
0.3010858781985793,-0.19173061201837116,4.689561516388949,0.18834833934224765
0.2991685720783956,-0.20603906535804437,4.691444999782371,0.28211721886559604
0.29710818142481515,-0.2205387918249119,4.6942661719710275,0.37593600289602525
0.294902793506566,-0.2353517012297204,4.6980255319999875,0.4697897809165148
0.2925492764942688,-0.2506001339902109,4.7027234298091525,0.5636662878884056
0.29004327515436673,-0.2664068171662177,4.708360092688037,0.6575566248469494
0.2873792069827045,-0.2828948355009558,4.714935658936506,0.7514560033573661
0.28455025862769495,-0.3001876224819523,4.72245021897008,0.8453645189261407
0.28154838240287544,-0.3184089771824902,4.730903864159341,0.9392879586322768
0.27836429263105056,-0.33768311348859137,4.740296743745664,1.033238648534333
0.27498746149616465,-0.35813474924762717,4.750629130231007,1.1272363468593865
0.27140611400368836,-0.37988924388432826,4.761901493699601,1.221309189630692
0.26760722156484507,-0.4030727941122547,4.774114585595908,1.3154946962851366
0.26357649362372254,-0.4278126985204437,4.787269532558759,1.4098408440142456
0.25929836663851813,-0.4542377030356132,4.801367940998902,1.5044072210781338
0.254755989608162,-0.482478440551969,4.816412013209683,1.5992662712331993
0.24993120520264228,-0.5126679793861407,4.832404675922015,1.694504643719733
0.24480452540878087,-0.544942496654536,4.849349722359212,1.7902246660041596
0.2393551004422355,-0.579442094176925,4.867251969019254,1.8865459596754286
0.23356067950046627,-0.6163117760584105,4.886117428616008,1.9836072235416011
0.22739756173988218,-0.6557026086342106,4.905953500851424,2.0815682119998904
0.2208405356535401,-0.6977730848623582,4.926769182971422,2.1806119410232174
0.2138628048049165,-0.7426907163058505,4.948575302381655,2.2809471583541394
0.20643589764185802,-0.790633876185851,4.971384773965196,2.3828111182517495
0.1985295588799995,-0.8417939159807033,4.995212885147714,2.4864727035928995
0.19011161972019247,-0.8963775746459463,5.020077612183643,2.592235937938076
0.181147843973733,-0.9546096920277951,5.045999971563024,2.700443925112318
0.17160174705345507,-1.0167362236642106,5.073004410814147,2.811483240290887
0.16143438481681296,-1.0830275284446846,5.101119243217056,2.9257887686148463
0.1506041095323661,-1.1537818563515017,5.130377130903205,3.043848935430836
0.1390662909688511,-1.2293288892152248,5.160815620257513,3.166211180896779
0.12677300207669884,-1.310033064641324,5.192477732066481,3.293487375986274
0.1136726714302856,-1.3962962125155336,5.225412605826344,3.4263586167217057
0.09970970930513026,-1.488558707782901,5.259676191993561,3.5655784043977663
0.08482412222730125,-1.5872978181052082,5.295331976037539,3.711972519058254
0.06895114404624916,-1.693021084036992,5.332451701228122,3.8664327600279003
0.05202093320587924,-1.8062512338739158,5.371116028828401,4.02989991162355
0.033958420867140085,-1.9274970413804988,5.411415027944637,4.203328423409617
0.014683450453335096,-2.0572013188460376,5.4534483121787325,4.3876208571305595
-0.00588856273512528,-2.1956524712529535,5.4973245207500385,4.583513527744551
-0.027845087447654817,-2.3428394107994426,5.543159656027484,4.791385479784476
-0.051273481555649245,-2.4982215426329897,5.591073510825328,5.0109514651912574
-0.07625569698197915,-2.660378591698462,5.641183025477241,5.240789419698929
-0.10285948289896377,-2.826507329775076,5.69359091967423,5.477655121673798
-0.13112455619671454,-2.9917629392547234,5.748367470890968,5.715577701372961
-0.16104218558926178,-3.1485372970518055,5.805523247904698,5.944858742841094
-0.19252755855977982,-3.285967036074082,5.864971835333108,6.151373945138627
-0.22538722892052065,-3.390257863362295,5.926485574784494,6.316982918687947
-0.2592898075541436,-3.446583576268775,5.989655403971374,6.422093234547588
-0.29375564331683135,-3.4428558590746237,6.05387633631685,6.450788896027097
-0.3281842019075776,-3.3742012940517445,6.11838422527712,6.396918967637974
-0.361926214848095,-3.245462597661953,6.1823534149535,6.2674533263548895
-0.39438084082471453,-3.0696425766284166,6.245027948217049,6.080267234514292
-0.4250772665909987,-2.8632165821039295,6.305830620562192,5.857678582348461
-0.453709432412038,-2.641420112805905,6.364407406385677,5.620034044034673
-0.480123633540097,-2.415715308305696,6.420607746826024,5.382340375427917
-0.504280786623154,-2.1934630061659854,6.474431150580303,5.153921914621116
-0.5262154166848139,-1.978743944350405,6.525970369726514,4.939620334871876
-0.5460028561283179,-1.7734187904283427,6.575366573075233,4.741283982444971
-0.5637370440326013,-1.5780052899500867,6.622779412899683,4.55897965186489
-0.5795170969321022,-1.3922832693613905,6.668369209418332,4.391816937156237
-0.5934399296257161,-1.2156719874670163,6.7122873787898945,4.238454861007902
-0.6055966495003863,-1.0474502546276023,6.754671927399974,4.097392089716208
-0.6160711520466623,-0.8868777335874762,6.795645848297136,3.967122974191381
-0.6249399293825371,-0.7332574454326964,6.83531707803905,3.8462150307864627
-0.6322725038368641,-0.585964579313686,6.873779228346915,3.733342350182842
-0.638132149630001,-0.44445660566169326,6.911112651848743,3.6272953119510594
-0.6425767156866179,-0.3082733954601087,6.947385604968254,3.5269782727402927
-0.645659449641219,-0.17703228554425532,6.982655387695657,3.431401740373819
-0.6474297724966616,-0.05042083622777532,7.016969405099395,3.3396725681016846
