th1 (rad),w1 (rad/s),th2 (rad),w2 (rad/s),a1 (rad/s^2),a2 (rad/s^2)
0.2748449404968658,0.7289748223405668,1.9291197931948587,-2.262346735753331,-0.5159939295849155,-9.75014203451774
0.2821346887202715,0.7238148830447176,1.9064963258373253,-2.3598481560985087,-0.20994256417940893,-9.787360230360727
0.28937283755071863,0.7217154574029235,1.8828978442763402,-2.457721758402116,0.11110655695373413,-9.84477931702039
0.29658999212474785,0.7228265229724609,1.8583206266923191,-2.55616955157232,0.44769571627580895,-9.924214255630181
0.30381825735447243,0.727303480135219,1.832758931176596,-2.6554116941286217,0.8004892338724453,-10.0276612716398
0.3110912921558246,0.7353083724739434,1.8062048142353098,-2.7556883068450198,1.170282893879964,-10.157324070000223
0.318444375880564,0.747011201412743,1.7786479311668595,-2.857261547545022,1.5580125996567227,-10.315640395323692
0.32591448789469146,0.7625913274093102,1.7500753156914093,-2.960417951498259,1.9647609913101476,-10.505307581626198
0.3335404011687846,0.7822389373224117,1.7204711361764267,-3.065471027314521,2.3917599923745003,-10.729304816962152
0.3413627905420087,0.8061565372461567,1.6898164259032815,-3.1727640754841424,2.840386086346414,-10.990908407452663
0.34942435591447024,0.8345603981096208,1.65808878514844,-3.282673159558669,3.312143351782311,-11.29369408359266
0.3577699598955664,0.867681831627444,1.6252620535528535,-3.3956101003945953,3.808626593672685,-11.64151692275246
0.36644677821184085,0.9057680975641708,1.5913059525489075,-3.51202526962212,4.3314528266910814,-12.038454117086879
0.37550445918748254,0.9490826258310816,1.5561856998526864,-3.6324098107929887,4.88214318669337,-12.488687618318838
0.38499528544579337,0.9979040576980153,1.5198616017447566,-3.757296686976177,5.461928030537231,-12.996291188088366
0.3949743260227735,1.0525233380033876,1.4822886348749948,-3.8872595988570606,6.071434037741575,-13.564867469737536
0.40549955940280735,1.1132376783808033,1.4434160388864243,-4.022908273554436,6.710191501664788,-14.19695244994161
0.41663193618661537,1.1803395933974512,1.40318695615088,-4.164877798053852,7.375870112550803,-14.893063343562734
0.4284353321205899,1.2540982945229593,1.3615381781703415,-4.31380843148948,8.063109721238384,-15.6502074710339
0.44097631506581947,1.334729391735343,1.3184000938554468,-4.4703105061998185,8.761757622678338,-16.45959180226366
0.4543236089831729,1.4223469679621266,1.2736969887934486,-4.634906424222455,9.454260230415281,-17.30318054448548
0.4685470786627942,1.5168895702662795,1.227347924551224,-4.80793822966731,10.111904466115067,-18.148667161606436
0.483715974365457,1.6180086149274302,1.1792685422545508,-4.989424901283375,10.68961868062371,-18.942432346239332
0.4998960605147313,1.7249048017336672,1.129374293241717,-5.178849224745768,11.119254575908792,-19.600327590186282
0.517145108532068,1.836097347492755,1.0775858009942594,-5.374852500647631,11.301940238105024,-19.99701202867821
0.5355060820069956,1.9491167498738053,1.0238372759877832,-5.5748226209344125,11.101645538882149,-19.95666824485123
0.5549972495057336,2.060133205262627,0.968089049778439,-5.774389303382925,10.344992580040973,-19.251875816553092
0.5755985815583599,2.1635831310630365,0.9103451567446098,-5.966908061548456,8.836392053761667,-17.623006237092863
0.5972344128689903,2.251947051600653,0.8506760761291252,-6.1431381239193845,6.400282316182688,-14.834300341827683
0.6197538833849968,2.31594987476248,0.7892446948899313,-6.291481127337661,2.956691906208272,-10.775313694274946
0.6429133821326216,2.345516793824563,0.7263298836165547,-6.399234264280411,-1.3865628628773132,-5.585114693561365
0.6663685500708673,2.33165116519579,0.6623375409737506,-6.455085411216024,-6.278655637711468,0.27389375849341596
0.6896850617228252,2.2688646088186752,0.5977866868615904,-6.45234647363109,-11.1759535671523,6.085617742282029
0.712373707811012,2.1571050731471524,0.5332632221252795,-6.39149029620827,-15.510329102884025,11.109381371787615
0.7339447585424834,2.0020017821183123,0.46934831916319686,-6.280396482490393,-18.885145167324488,14.843490069979445
0.7539647763636665,1.8131503304450673,0.40654435433829295,-6.131961581790598,-21.17323370758956,17.15224201878146
0.7720962796681172,1.6014179933691717,0.34522473852038693,-5.960439161602784,-22.477413767754012,18.205797200462456
0.7881104596018089,1.3766438556916316,0.2856203469043591,-5.778381189598159,-23.018559264509687,18.32468795592397
0.8018768981587252,1.1464582630465348,0.22783653500837753,-5.595134310038919,-23.033940169406222,17.842125982301155
0.8133414807891906,0.9161188613524726,0.17188519190798834,-5.4167130502159075,-22.721674241280677,17.031176063645784
0.8225026694027153,0.6889021189396658,0.11771806140582927,-5.24640128957945,-22.225112692535955,16.08649997127127
0.8293916905921119,0.46665099201430627,0.06525404851003477,-5.085536289866737,-21.638325612022545,15.134060837858026
0.834058200512255,0.2502677358940808,0.014398685611367402,-4.9341956814881565,-21.018292880335153,14.249034444889698
0.8365608778711958,0.04008480709072926,-0.03494327120351416,-4.791705337039259,-20.396709986466902,13.472479876747004
0.8369617259421032,-0.16388229277393976,-0.08286032457390675,-4.656980538271789,-19.78911939512,12.823916091974285
0.8353229030143637,-0.36177348672513976,-0.12943012995662465,-4.528741377352046,-19.20126610477721,12.309871043755521
0.8317051681471124,-0.5537861477729119,-0.17471754373014511,-4.40564266691449,-18.633271270044332,11.929342841304964
0.8261673066693832,-0.7401188604733553,-0.21877397039929003,-4.28634923850144,-18.08227979286635,11.677141361660562
0.8187661180646496,-0.9209416584020188,-0.26163746278430444,-4.1695778248848345,-17.544103519755442,11.545861349228598
0.8095567014806294,-1.0963826935995733,-0.3033332410331528,-4.054119211392549,-17.01422550342483,11.52700612765388
0.7985928745446337,-1.2665249486338217,-0.3438744331470783,-3.93884915011601,-16.488405376280454,11.611600370965663
0.7859276250582955,-1.4314090023966262,-0.38326292464823836,-3.8227331464063536,-15.96303769935034,11.790505505994295
0.7716135350343293,-1.5910393793901296,-0.4214902561123019,-3.704828091346411,-15.435357039257164,12.054569912409033
0.755703141240428,-1.7453929497827012,-0.458538537025766,-3.5842823922223204,-14.903546616326205,12.394694605408626
0.738249211742601,-1.8944284159459632,-0.49438136094798923,-3.460335446168234,-14.366784490922067,12.801862992391888
0.7193049275831415,-2.038096260855184,-0.5289847154096716,-3.3323168162443153,-13.825247374105496,13.267163351596057
0.6989239649745896,-2.176348734596239,-0.5623078835721148,-3.1996451827283545,-13.280083937009811,13.781820211527444
0.6771604776286273,-2.3091495739663372,-0.5943043353993983,-3.06182698061308,-12.733364820237027,14.337242897787432
0.6540689818889639,-2.4364832221687074,-0.6249226052055291,-2.9184545516352056,-12.188014059616918,14.925094380782362
0.6297041496672768,-2.5583633627648767,-0.6541071507218812,-2.769203607827382,-11.647725489510394,15.537380140450544
0.604120516039628,-2.6748406176599806,-0.681799186800155,-2.6138298064228764,-11.116867305891287,16.16655443740753
0.5773721098630282,-2.7860092907188934,-0.7079374848643838,-2.452164262048801,-10.60037800239383,16.80563978133161
0.5495120169558393,-2.8920130707428315,-0.7324591274848719,-2.284107864235485,-10.103657081909986,17.44835430591572
0.520591886248411,-2.993049641561931,-0.7553002061272267,-2.109624321176328,-9.632454112929391,18.089241063865803
0.49066138983279173,-3.089374182691225,-0.77639644933899,-1.92873191053767,-9.19275970416228,18.723792844958616
0.4597676480058795,-3.181301779732848,-0.7956837684443667,-1.7414939820880837,-8.790701695264863,19.34856589021498
0.427954630208551,-3.2692087966854966,-0.8130987082652475,-1.5480083231859338,-8.432449192184345,19.961275685974147
0.39526254224169605,-3.35353328860734,-0.8285787914971069,-1.3483955663261924,-8.124125884195898,20.560867667544795
0.36172720935562264,-3.4347745474492988,-0.8420627471603688,-1.1427868896507445,-7.871732196438179,21.147554835081774
0.32737946388112965,-3.5134918694136807,-0.8534906160568763,-0.9313113412999268,-7.681073007473959,21.722812523854916
0.29224454518699283,-3.59030259948842,-0.8628037294698755,-0.7140832160613776,-7.557683509470928,22.28931719169608
0.2563415191921086,-3.6658794345831294,-0.8699445616304893,-0.4911900441444168,-7.506739698194763,22.850810069919035
0.21968272484627732,-3.740946831565077,-0.8748564620719335,-0.26268194344522644,-7.532930989553404,23.4118563601848
0.18227325653062654,-3.816276141460611,-0.8774832815063858,-0.02856337984337845,-7.6402590804455786,23.97745412124087
0.14411049511602042,-3.892678732265067,-0.8777689153048196,0.21121116136903026,-7.8317071652649295,24.552420842759354
0.10518370779336975,-3.9709958039177162,-0.8756568036911293,0.45673536979662377,-8.108693769736144,25.140445418623205
0.06547374975419258,-4.052082741615077,-0.8710894499931631,0.7081398239828558,-8.470181511740181,25.74263292118124
0.024952922338041805,-4.136784556732479,-0.8640080517533345,0.9655661531946682,-8.911248302159319,26.355282822196955
-0.016414923229282986,-4.225897039754073,-0.8543523902213879,1.229118981416638,-9.420843994131094,26.96652452738244
-0.058673893626823716,-4.320105479695384,-0.8420612004072215,1.4987842266904623,-9.97835516725091,27.551296285257575
-0.10187494842377756,-4.419889031367893,-0.8270733581403169,1.774297189543038,-10.548516299146119,28.064040324060215
-0.1460738387374565,-4.525374194359354,-0.8093303862448865,2.05493759278364,-11.074232013740176,28.428533414072408
-0.19132758068105005,-4.636116514496756,-0.7887810103170501,2.3392229269243643,-11.467241676569849,28.52480185121144
-0.23768874582601762,-4.750788931262454,-0.7653887810478064,2.6244709454364785,-11.597730651208089,28.17473949147313
-0.2851966351386422,-4.866766237774534,-0.7391440715934416,2.90621834035121,-11.286723830987293,27.13191101172054
-0.3338642975163875,-4.979633476084407,-0.7100818881899296,3.177537450468415,-10.310073187103022,25.08803170311927
-0.3836606322772316,-5.082734207955437,-0.6783065136852454,3.428417767499608,-8.429132910613236,21.71741185155573
-0.43448797435678593,-5.167025537061569,-0.6440223360102494,3.6455918860151653,-5.464732152764381,16.78262757963629
-0.48615822972740164,-5.221672858589213,-0.6075664171500977,3.813418161811528,-1.4139248310746215,10.300226924349625
-0.5383749583132937,-5.235812106899959,-0.5694322355319824,3.9164204310550246,3.438118260446688,2.698507443715028
-0.5907330793822934,-5.201430924295492,-0.5302680312214322,3.943405505492175,8.509679803590524,-5.172514074188392
-0.6427473886252483,-5.116334126259587,-0.4908339761665104,3.8916803647502913,13.089902053264435,-12.281147452376686
-0.6939107298878442,-4.985435105726943,-0.45191717251900754,3.7688688902265244,16.61274013267129,-17.805220703066247
-0.7437650809451136,-4.81930770440023,-0.4142284836167423,3.590816683195862,18.848598205146594,-21.406011278761078
-0.791958157989116,-4.630821722348764,-0.3783203167847837,3.376756570408251,19.896676500018042,-23.218426198146418
-0.8382663752126036,-4.431854957348584,-0.34455275108070116,3.144572308426787,20.039455953917425,-23.64413903490523
-0.8825849247860894,-4.23146039780941,-0.3131070279964333,2.9081309180777346,19.59153936746848,-23.135474829715967
-0.9248995287641835,-4.0355450041347245,-0.28402571881565597,2.6767761697805748,18.81393222917419,-22.07168342976572
-0.9652549788055307,-3.8474056818429827,-0.2572579571178502,2.4560593354829177,17.890440640678776,-20.723632835912518
-1.0037290356239605,-3.6685012754361948,-0.23269736376302103,2.2488230071237925,16.936747458669593,-19.265474055187422
-1.0404140483783224,-3.4991338008494988,-0.2102091336917831,2.0561682665719183,16.01900886171065,-17.80038534347116
-1.0754053863868174,-3.338943712232392,-0.18964745102606392,1.8781644131372066,15.171036675440677,-16.38470714163893
-1.1087948235091414,-3.1872333454779853,-0.17086580689469186,1.7143173417208173,14.406970680072865,-15.045904548089238
-1.1406671569639213,-3.0431636386772567,-0.1537226334774837,1.5638582962399248,13.729663102387153,-13.79455287403522
-1.1710987933506938,-2.9058670076533852,-0.13808405051508443,1.4259127674995726,13.135886871489351,-12.63185321952024
-1.2001574634272276,-2.774508138938492,-0.12382492284008871,1.2995942353043701,12.619435408823806,-11.554157158924792
-1.2279025448166125,-2.6483137848502536,-0.11082898048704501,1.1840526637151223,12.172903050386017,-10.555604490422857
-1.2543856826651152,-2.5265847543463935,-0.09898845384989378,1.0784966188108938,11.788669113204337,-9.629611218259003
-1.2796515302085791,-2.40869806321435,-0.08820348766178485,0.9822005066283037,11.459413370219972,-8.769673072405759
-1.3037385108407227,-2.29410392951215,-0.0783814825955018,0.8945037759042461,11.178361846758323,-7.969769205802984
-1.3266795501358442,-2.182320311044567,-0.06943644483645935,0.8148060838462163,10.93938121803333,-7.224536949726745
-1.3485027532462899,-2.0729264988642333,-0.06128838399799719,0.7425607143489489,10.736991081053704,-6.52931892409395
-1.3692320182349322,-1.9655565880536963,-0.053862776854507695,0.6772675251080094,10.566334098277562,-5.880141923928727
-1.3888875841154693,-1.8598932470709206,-0.0470901016034276,0.6184661058687221,10.423126716008085,-5.273662041776414
-1.4074865165861785,-1.7556619799108397,-0.04090544054474038,0.5657294854509579,10.303603034806,-4.707095699520886
-1.425043136385287,-1.6526259495627798,-0.0352481456902308,0.518658528455749,10.204458535921058,-4.178147550011503
-1.4415693958809146,-1.5505813642035693,-0.03006156040567331,0.476877052955634,10.122797003189298,-3.6849411055486727
-1.4570752095229502,-1.4493533941716763,-0.025292789876116967,0.44002764190014726,10.05608208840411,-3.2259549868117423
-1.471568743464667,-1.3487925732876351,-0.020892513457115493,0.40776809203202985,10.002093936848956,-2.7999659879952716
-1.4850566691975433,-1.2487716339191455,-0.016814832536795193,0.3797684321520771,9.958890756272982,-2.40599920237825
-1.4975443855367347,-1.1491827263564156,-0.013017148215274423,0.3557084401282946,9.924774963429522,-2.043284938940065
-1.509036212800299,-1.0499349767221204,-0.009460063813991476,0.33527559073889396,9.898263451679018,-1.7112219020761514
-1.5195355625675202,-0.9509523422053303,-0.006107307906602536,0.31816337171813247,9.878061517514595,-1.409345994716073
-1.5290450859895734,-0.8521717270301844,-0.0029256741894212114,0.30406991177097176,9.86304002054882,-1.137304076394871
-1.5375668032598753,-0.7535413268246962,0.00011502492828850642,0.2926968710070231,9.852215406181571,-0.8948320246989745
-1.5451022165281223,-0.6550191727628805,0.003041993638358737,0.2837485507600333,9.844732279369225,-0.6817364893325537
-1.551652408255751,-0.5565718499691882,0.00587947914595907,0.2769311858667078,9.839848274529555,-0.4978797804621131
-1.5572181267554428,-0.4581733672238926,0.008648791004626148,0.27195238806208666,9.836921017249963,-0.3431673901082242
-1.5617998604276817,-0.359804157051393,0.011368314885247015,0.2685207141610044,9.835397016841627,-0.21753770347593956
-1.5653979019981956,-0.2614501868829767,0.01405352202685706,0.26634533712624503,9.83480236479007,-0.12095351441068335
-1.5680124038670253,-0.16310216323507604,0.01671697539811951,0.2651358019821382,9.8347351432899,-0.05339501484821208
-1.569643425499376,-0.06475481180217704,0.019368333417940895,0.2646018518336561,9.834859471092843,-0.014853981995637295
-1.5702909736173978,0.03359378290875138,0.022014351936277456,0.2644533120136997,9.834901131710192,-0.005328939153500233
-1.5699550357883103,0.1319427942258533,0.024658885056414455,0.2644000226221647,9.834644742453289,-0.02482111684700083
-1.5686356078460517,0.23028924165038622,0.0273028852826361,0.2641518114536947,9.833932432676514,-0.07333109063317239
-1.5663327154295479,0.3286285659771514,0.02994440339717305,0.263418500547363,9.832664006649415,-0.15085602096790482
-1.5630464297697764,0.42695520604364556,0.03257858840264668,0.26190994033768394,9.830798571413794,-0.25738746922108613
-1.5587768777093398,0.5252631917577835,0.03519768780602352,0.25933606564547307,9.828357613426961,-0.3929098126565405
-1.553524245791762,0.6235467678920531,0.03779104846247825,0.2554069675189077,9.825429510392416,-0.5573993302338918
-1.5472887781128415,0.7218010629959772,0.04034511813766733,0.24983297421656875,9.822175467093787,-0.7508240806642923
-1.5400707674828817,0.8200228176669151,0.04284344787983302,0.24232473340992583,9.818836866987736,-0.9731447444041165
-1.5318705393062126,0.9182111863367924,0.04526669521393228,0.23259328596588466,9.815744035567876,-1.2243166522478526
-1.5226884274428447,1.0163686266924712,0.047592628073591124,0.22035011944340613,9.813326417977036,-1.5042932748221594
-1.51252474117592,1.1145018908722415,0.04979612926802519,0.20530718669518452,9.812124183025762,-1.8130314993973053
-1.5013797222671976,1.2126231327024992,0.051849201134977034,0.18717687170121147,9.812801279782242,-2.1504990726777224
-1.4892534909401727,1.3107511455003216,0.053720969851989146,0.16567188097443425,9.816159992417827,-2.5166846400730347
-1.4761459794851695,1.4089127454244998,0.05537768866173349,0.1405050345737039,9.823157065203388,-2.9116108625779193
-1.4620568520309245,1.5071443160765337,0.05678273900747053,0.1113889259479247,9.834921503490522,-3.335351140590135
-1.4469854088701593,1.6054935311114389,0.05789662826694977,0.07803541454202334,9.852774198828,-3.788050517900273
-1.430930473559045,1.7040212730997188,0.05867698241237001,0.04015490936302061,9.878249576925386,-4.269951375722222
-1.4138902608280477,1.8028037688689726,0.05907853150600022,-0.0025446043942016147,9.913119524423827,-4.781424551154079
-1.395862223139358,1.9019349641132108,0.0590530854620582,-0.05035884990574241,9.95941991035047,-5.32300651882396
-1.3768428734982259,2.0015291632167154,0.058549496963000776,-0.10358891509398202,10.019480072571172,-5.895443245223728
-1.3568275818660587,2.101723963942427,0.057513607812060955,-0.1625433475462193,10.095955673547778,-6.499741239779636
-1.3358103422266343,2.2026835206779047,0.05588817433659876,-0.22754075994401568,10.191865317084348,-7.137226147199611
-1.3137835070198554,2.3046021738487483,0.053612766737158604,-0.2989130214160118,10.310631214001335,-7.809608888823655
-1.2907374852813678,2.4077084859887616,0.050623636522998484,-0.37700911030424833,10.456123915232652,-8.519058761250276
-1.26666040042148,2.5122697251410884,0.046853545419956004,-0.4621996979167511,10.632710571744731,-9.268281863483358
-1.2415377031700692,2.618596830858536,0.0422315484407885,-0.5548825165515847,10.845305126676882,-10.060601459333254
-1.2153517348614837,2.727049882125305,0.03668272327527265,-0.6554885311449172,11.099416956787879,-10.900033910021891
-1.1880812360402306,2.8380440516931835,0.03012783796382348,-0.7644888702451361,11.401191196573714,-11.79134883960849
-1.1597007955232987,2.9520559636589208,0.02248294926137212,-0.8824023586412211,11.757428372047503,-12.74009391285561
-1.1301802358867095,3.0696302473793957,0.01365892567495991,-1.009803297769777,12.175561512044645,-13.752550852464486
-1.0994839334129156,3.191385862499842,0.003560892697262138,-1.147328806294422,12.663553078175333,-14.835566558145421
-1.067570074787917,3.3180213932815956,-0.007912395365682083,-1.2956844718758762,13.22964776169112,-15.996165653881647
-1.0343898608551012,3.4503178708985067,-0.020869240084440847,-1.4556461284146927,13.881873865027288,-17.240789270158114
-0.9998866821461161,3.5891366095487798,-0.035425701368587775,-1.6280540211162737,14.627115394621258,-18.573905078426968
-0.9639953160506283,3.7354077634949925,-0.05170624157975051,-1.8137930719005435,15.46946412484778,-19.995574640563134
-0.9266412384156784,3.8901024047434705,-0.06984417229875595,-2.013748818306175,16.40738620710346,-21.497319020537457
-0.8877402143682437,4.054176266814505,-0.08998166048181769,-2.2287220085115496,17.428983243361188,-23.05526782482199
-0.8471984517000987,4.2284660992481164,-0.11226888056693318,-2.4592746867597697,18.50429943200752,-24.619121314875674
