th1 (rad),w1 (rad/s),th2 (rad),w2 (rad/s),a1 (rad/s^2),a2 (rad/s^2)
4.2244734337894325,2.4576281176222587,0.5216452123293208,1.9993272434878957,9.806660354502968,0.20423879568581654
4.249049714965655,2.5556947211672885,0.5416384847641997,2.0013696314447538,9.678378105003382,-0.38391838628764247
4.2746066621773275,2.6524785022173223,0.5616521810786472,1.9975304475818774,9.531308515440724,-1.0066508073812903
4.3011314471995,2.7477915873717293,0.581627485554466,1.9874639395080644,9.364568245683534,-1.664731749990559
4.328609363073218,2.841437269828565,0.6015021249495466,1.9708166220081589,9.177446581127693,-2.358691938465126
4.357023735771503,2.933211735639842,0.6212102911696281,1.9472297026235077,8.969466037400862,-3.0887418069542836
4.386355853127902,3.0229063960138505,0.6406825881958632,1.9163422845539648,8.740450577000647,-3.854687617238857
4.4165849170880405,3.110310901783857,0.6598460110414028,1.8777954083815762,8.49060016557774,-4.655844528438283
4.447688026105879,3.1952169034396345,0.6786239651252186,1.8312369630971934,8.22056960932549,-5.490950969975745
4.479640195140275,3.2774225995328896,0.6969363347561905,1.776327453397436,7.931548741656487,-6.358089993819054
4.512414421135604,3.3567380869494543,0.714699609290165,1.7127465534592454,7.625340128765077,-7.254624571264346
4.545981802005099,3.432991488237105,0.7318270748247574,1.640200307746602,7.304429632651216,-8.177154899696705
4.58031171688747,3.506035784563617,0.7482290779022234,1.558428758749635,6.972044530607265,-9.121506503787536
4.615372074733107,3.5757562298696897,0.7638133654897197,1.4672136937117597,6.632193590681759,-10.082758038203826
4.651129637031803,3.6420781657765073,0.7784855024268372,1.3663861133297215,6.289683702181011,-11.05531701435383
4.687550418689568,3.7049750027983173,0.7921493635601344,1.2558329431861832,5.950108504733004,-12.033050016134705
4.724600168717552,3.7644760878456474,0.8047076929919963,1.1355024430248362,5.619806050615716,-13.009471267739386
4.762244929596008,3.8206741483518045,0.8160627174222447,1.0054077303474422,5.305784896246185,-13.977989744303297
4.800451671079526,3.8737319973142665,0.8261167947257191,0.8656278329044093,5.015621064366658,-14.932210632491246
4.839188991052668,3.923888207957933,0.8347730730547632,0.7163057265794968,4.757331837503327,-15.866282310675325
4.878427873132248,3.9714615263329662,0.8419361303205581,0.5576429034727435,4.539236006208568,-16.775275757693933
4.918142488395578,4.016853886395052,0.8475125593552856,0.3898901458958042,4.369813591724464,-17.655580146912655
4.958311027259528,4.060552022312296,0.8514114608142436,0.21333434442667762,4.257580767358307,-18.505297058134946
4.998916547482651,4.10312782998588,0.8535448042585103,0.02828137384532814,4.210997365166539,-19.32461681696945
5.03994782578251,4.145237803637545,0.8538276179969636,-0.16496479432436637,4.238424787296964,-20.11616425102487
5.081400203818885,4.187622051510514,0.85217797005372,-0.3661264368346151,4.348151389503938,-20.885307584342566
5.12327642433399,4.2311035654055535,0.8485167056853739,-0.5749795126780408,4.548500770041453,-21.640432865307424
5.165587459988045,4.276588573105968,0.8427669105585934,-0.7913838413311151,4.8480364068903565,-22.393196538904732
5.208353345719105,4.325068937174872,0.8348530721452823,-1.0153158067201624,5.2558743974865605,-23.15877966847938
5.251604035090853,4.377627681149738,0.8246999140780806,-1.2469036034049563,5.782115305520223,-23.95617798521404
5.295380311902351,4.43544883420494,0.812230878044031,-1.4864653832570967,6.438406716132656,-24.8085714948153
5.3397348002444005,4.499832901366267,0.7973662242114601,-1.7345510982052497,7.23864991060254,-25.743824708771548
5.384733129258064,4.572219400472292,0.7800207132294076,-1.9919893452929651,8.199865887521407,-26.79517176651367
5.430455323262787,4.654218059347507,0.7601008197764779,-2.259941062958102,9.34323443784766,-28.002135484593826
5.4769975038562615,4.7476504037259835,0.7375014091468969,-2.5399624178040403,10.69530737352549,-29.41170570850153
5.524474007893521,4.8546034774612385,0.7121017849688565,-2.8340794748890556,12.28935615047211,-31.079737327560633
5.5730200426681336,4.97749703896596,0.683760990219966,-3.144876848164662,14.166707406212643,-33.07237044388294
5.622795013057793,5.119164113028086,0.6523122217383194,-3.4756005526034914,16.37766494132324,-35.466910158754565
5.673986654188074,5.282940762441318,0.6175562162122845,-3.8302696541910373,18.981032791287067,-38.350779303491755
5.726816061812487,5.472751090354189,0.5792535196703741,-4.213777447225954,22.03994749103467,-41.815323624996196
5.7815435727160285,5.693150565264536,0.5371157451981146,-4.631930683475916,25.60885674493096,-45.937227263092375
5.838475078368674,5.949239132713846,0.4907964383633554,-5.091302956106841,29.700341422438417,-50.73169825897251
5.897967469695812,6.2462425469382294,0.439883408802287,-5.598619938696566,34.208083234612964,-56.044224972215225
5.960429895165195,6.588323379284359,0.38389720941532135,-6.159062188418718,38.74066497048099,-61.31742365554102
6.026313128958038,6.97573002898917,0.32230658753113417,-6.772236424974128,42.29856444315434,-65.13824792398223
6.09607042924793,7.398715673420713,0.25458422328139285,-7.423618904213951,42.77386850084645,-64.5372459368316
6.1700575859821365,7.826454358429178,0.18034803423925333,-8.068991363582267,36.62674126099203,-54.53802876249309
6.248322129566429,8.192721771039098,0.09965812060343066,-8.614371651207199,20.159812473013883,-29.95467040654393
6.33024934727682,8.394319895769236,0.013514404091358664,-8.913918355272639,-5.810787295475397,8.038698661548114
6.414192546234513,8.336212022814482,-0.07562477946136772,-8.833531368657157,-31.90545767021087,46.22456009513287
6.497554666462658,8.017157446112375,-0.1639600931479393,-8.371285767705828,-47.167751829591744,69.17290448799932
6.5777262409237816,7.545479927816457,-0.24767295082499757,-7.679556722825835,-50.025733217593604,74.63291035354729
6.653181040201946,7.045222595640521,-0.32446851805325594,-6.933227619290362,-45.872168232024706,70.13751748258395
6.723633266158351,6.586500913320274,-0.39380079424615955,-6.231852444464522,-39.54046622460993,62.457999126222035
6.789498275291554,6.191096251074175,-0.4561193186908048,-5.6072724532023015,-33.3154096164399,54.80991723721865
6.8514092378022955,5.857942154909776,-0.5121920432228279,-5.059173280830115,-27.91880728281148,48.22309216098224
6.909988659351393,5.5787540820816615,-0.562783776031129,-4.5769423592202925,-23.43929527941228,42.837529832337054
6.96577620017221,5.344361129287539,-0.6085531996233319,-4.148567060896922,-19.7678847670704,38.5114302079645
7.019219811465086,5.146682281616835,-0.6500388702323011,-3.763452758817277,-16.75919892834105,35.04705961966424
7.070686634281254,4.979090292333424,-0.6876733978204739,-3.4129821626206347,-14.281951184352353,32.26213219317863
7.1204775372045885,4.836270780489901,-0.7218032194466802,-3.0903608406888483,-12.230147907117821,30.006258985186502
7.168840245009488,4.7139693014187225,-0.7527068278535687,-2.790298250836983,-10.521836220094363,28.15987738526354
7.215979938023675,4.608750939217779,-0.7806098103619385,-2.5086994769843476,-9.094751166045965,26.628757246134036
7.262067447415853,4.517803427557319,-0.805696805131782,-2.2424119045230073,-7.901873286052136,25.338336405932445
7.307245481691426,4.438784694696798,-0.8281209241770121,-1.989028540463683,-6.907699394538805,24.22904797619084
7.351633328638394,4.36970770075141,-0.8480112095816489,-1.7467380607017744,-6.085306139227565,23.25277909395659
7.395330405645908,4.308854639359134,-0.8654785901886666,-1.5142102697622084,-5.414083328121575,22.3703035022183
7.4384189520395,4.254713806077918,-0.8806206928862886,-1.2905072347400255,-4.87798583262435,21.549476230107086
7.48096609010028,4.205933947751674,-0.8935257652336889,-1.0750124724389547,-4.464176557948167,20.76399724157908
7.523025429577796,4.161292182172192,-0.9042758899580784,-0.8673725000231639,-4.161966434323033,19.992584318122987
7.564638351399518,4.119672517828962,-0.9129496149583101,-0.667446656841934,-3.9619872397356257,19.21842624920141
7.605835076577807,4.080052645431606,-0.9196240815267294,-0.4752623943499199,-3.8555558616316183,18.42881239217995
7.646635603032123,4.04149708681529,-0.9243767054702285,-0.2909742704281204,-3.834204130238774,17.614855071994132
7.687050573900276,4.003155045512902,-0.9272864481745098,-0.11482571970817909,-3.889357390818078,16.77123924165119
7.727082124355405,3.9642614716047215,-0.9284347053715916,0.05288667270833283,-4.012148644116768,15.895950985370726
7.766724739071453,3.9241399851635537,-0.9279058386445083,0.2118461825620401,-4.193354691032537,14.989953576728357
7.805966138923089,3.8822064382532284,-0.9257873768188879,0.3617457183293237,-4.423437746977095,14.05679671627932
7.844788203305621,3.8379720607834575,-0.9221699196355947,0.5023136854921169,-4.692671991125724,13.102160337570718
7.883167923913455,3.7910453408722002,-0.9171467827806735,0.6333352888678241,-4.991330935523416,12.133347682701169
7.921078377322178,3.7411320315169663,-0.9108134298919953,0.7546687656948358,-5.309909489058006,11.158751956786052
7.958489697637347,3.6880329366263864,-0.903266742235047,0.8662562852626963,-5.639354832207855,10.18732595612315
7.995370027003611,3.6316393883043077,-0.89460417938242,0.9681295448239278,-5.971282843287561,9.228084478292617
8.031686420886654,3.5719265598714323,-0.8849228839341807,1.060410389606854,-6.298161452609589,8.289665624272867
8.067405686485369,3.5089449453453363,-0.8743187800381121,1.1433070458495826,-6.6134482153396315,7.379970416757898
8.102495135938822,3.44281046319194,-0.8628857095796163,1.2171067500171615,-6.9116757009475185,6.505891903766842
8.136923240570741,3.373693706182465,-0.8507146420794447,1.28216566905483,-7.1884841618751185,5.673136504721999
8.170660177632566,3.301808864563714,-0.8378929853888963,1.33889703410205,-7.440605735149375,4.886132944146208
8.203678266278203,3.2274028072122203,-0.8245040150478758,1.3877583635435122,-7.665807796848393,4.148018460442682
8.235952294350325,3.1507447292437365,-0.8106264314124407,1.429238548147939,-7.862804958558248,3.4606883936352455
8.267459741642762,3.072116679658154,-0.7963340459309614,1.4638454320842915,-8.031149717947349,2.8248936913559777
8.298180908439344,2.9918051824786804,-0.7816955916101185,1.4920943689978512,-8.171111242002732,2.2403710098414504
8.32809896026413,2.910094070058653,-0.7667746479201399,1.5144980790962657,-8.283550515404611,1.705991473718631
8.357199900964718,2.827258564904607,-0.7516296671291773,1.531557993833452,-8.369798458867356,1.219916316440387
8.385472486613764,2.7435605803159335,-0.7363140871908428,1.5437571569978559,-8.431541887757364,0.7797501252129039
8.412908092416924,2.65924516143836,-0.7208765156208642,1.5515546582499848,-8.470720539379444,0.3826849264173363
8.439500544031308,2.5745379560445656,-0.7053609690383643,1.5553815075141582,-8.489436971744906,0.025630641950793686
8.465245923591754,2.4896435863271167,-0.6898071539632228,1.5556378139336662,-8.489879986444757,-0.2946706065410031
8.490142359455024,2.404744786462669,-0.6742507758238862,1.5526911078682561,-8.474261363981585,-0.5815473213344693
8.514189807319651,2.3200021728228535,-0.6587238647452036,1.5468756346549115,-8.444765100207889,-0.8383184034119046
8.53738982904788,2.2355545218207746,-0.6432551083986545,1.5384924506207924,-8.403507958459388,-1.0682289040524588
8.559745374266088,2.151519442236181,-0.6278701838924466,1.527810161580268,-8.352509957933597,-1.2744002792243911
8.58126056868845,2.067994342656845,-0.612592082276644,1.515066158788024,-8.293673359814973,-1.4597934084624695
8.601940512115018,1.985057609058695,-0.5974414206887637,1.5004682247033994,-8.228768748410587,-1.627182551469036
8.621791088205605,1.9027699215745892,-0.5824367384417297,1.484196399188709,-8.159426901783977,-1.7791384509572243
8.64081878742135,1.8211756525567495,-0.5675947744498426,1.4664050146791368,-8.0871352789543,-1.918018906375732
8.659030543946917,1.7403042997672065,-0.5529307243030512,1.4472248256153795,-8.013238099300574,-2.0459653066566363
8.67643358694459,1.6601719187742008,-0.5384584760468974,1.426765172548813,-7.938939140780732,-2.1649037961387796
8.693035306132332,1.5807825273663934,-0.5241908243214093,1.4051161345874252,-7.865306527993111,-2.276549938759639
8.708843131405995,1.5021294620864623,-0.510139662975535,1.382350635199829,-7.793278913577198,-2.382415929754246
8.72386442602686,1.4241966729506903,-0.49631615662353673,1.3585264759022864,-7.723672574174124,-2.483819574227475
8.738106392756368,1.346959947208949,-0.48273089186451384,1.3336882801600116,-7.6571890441573665,-2.581894404161215
8.751575992228458,1.2703880567673753,-0.46939400906291373,1.3078693361183995,-7.594422996810519,-2.677600438106156
8.764279872796132,1.19444382679927,-0.45631531570172973,1.2810933317373379,-7.535870154520094,-2.7717352009848146
8.776224311064125,1.1190851252540692,-0.44350438238435635,1.2533759797274897,-7.481935068221269,-2.864944716091874
8.787415162316666,1.0442657745718567,-0.43097062258708146,1.224726532566571,-7.43293865332175,-2.9577342590875375
8.797857820062385,0.9699363880386391,-0.41872335726141574,1.1951491899756956,-7.389125406201927,-3.050478726392575
8.807557183942771,0.8960451339766199,-0.40677186536165877,1.16464440271177,-7.350670253658015,-3.1434325198456965
8.816517635282537,0.8225384314400397,-0.3951254213345411,1.133210077513313,-7.317685008719819,-3.236738887673819
8.824743019596937,0.7493615813528415,-0.38379332055940796,1.1008426886365748,-7.290224421398575,-3.3304386905348475
8.832236635410466,0.6764593371388558,-0.3727848936730422,1.0675383017312263,-7.268291823228755,-3.4244785822528456
8.839001228781854,0.6037764189065682,-0.36210951065572994,1.0332935159086978,-7.251844370945864,-3.518718609339046
8.845038992970919,0.5312579751971096,-0.351776575496643,0.9981063298153073,-7.240797898151803,-3.612939242776167
8.85035157272289,0.4588499962155916,-0.3417955121984899,0.9619769373875456,-7.235031385105263,-3.706847860974808
8.854940072685045,0.38649968236453897,-0.3321757428246145,0.9249084587777976,-7.234391056482787,-3.800084705282983
8.85880506950869,0.3141557717997111,-0.32292665823683653,0.8869076117249678,-7.2386941156422875,-3.8922283298041145
8.861946627226688,0.24176883064328825,-0.31405758211958684,0.8479853284269266,-7.247732122063392,-3.9828005663017407
8.864364315533122,0.1692915094226543,-0.3055777288353176,0.8081573227639093,-7.261274016645107,-4.071271023280434
8.866057230627348,0.09667876925620324,-0.2974961556076785,0.767444612531105,-7.279068797758941,-4.157061136482781
8.86702401831991,0.023888081278613818,-0.28982170948236746,0.7258740011662772,-7.300847849672033,-4.239547786494207
8.867262899132696,-0.049120397218106515,-0.2825629694707047,0.6834785233013352,-7.32632692441019,-4.318066498290842
8.866771695160514,-0.12238366646220841,-0.27572818423769135,0.6402978583184268,-7.355207778513444,-4.391914237716784
8.865547858495892,-0.19593574424734284,-0.26932520565450707,0.5963787159412589,-7.387179467594499,-4.460351821288789
8.86358850105342,-0.2698075389232878,-0.2633614184950945,0.551775197728371,-7.421919304249303,-4.522605958589261
8.860890425664186,-0.3440267319657808,-0.25784366651781077,0.5065491381424784,-7.459093488758845,-4.577870950955174
8.857450158344529,-0.41861766685336926,-0.252778175136386,0.4607704286329266,-7.498357427200902,-4.625310076280491
8.853263981675996,-0.4936012411253783,-0.24817047085005675,0.4145173278701217,-7.539355758069183,-4.664056697549701
8.848327969264743,-0.5689947987060702,-0.24402529757135555,0.3678767608946247,-7.581722116260674,-4.693215142186903
8.842638021277681,-0.6448120198686769,-0.2403465299624093,0.32094460947275566,-7.625078672305117,-4.711861410366785
8.836189901078994,-0.7210628065917281,-0.23713708386768173,0.2738259953690878,-7.669035494917487,-4.7190437829659375
8.828979273013076,-0.7977531615409029,-0.23439882391399086,0.22663555753942843,-7.713189796283135,-4.713783413657033
8.821001741397666,-0.8748850595037343,-0.23213246833859658,0.1794977234028581,-7.757125131838651,-4.695075004519573
8.812252890802629,-0.9524563108221208,-0.230337491104568,0.13254697335766236,-7.800410639570944,-4.661887680142264
8.802728327694409,-1.0304604172178302,-0.2290120213709914,0.0859280965562397,-7.842600417863308,-4.613166191110312
8.79242372352223,-1.1088864213964633,-0.228152740405429,0.03979643464513658,-7.8832331554652955,-4.547832593478337
8.781334859308265,-1.1877187529511162,-0.22775477605897762,-0.005681891289646794,-7.921832141980826,-4.46478856565718
8.769457671778754,-1.2669370743709245,-0.2278115949718741,-0.050329776946218596,-7.95790580199416,-4.362918537241892
8.756788301035046,-1.346516132390866,-0.22831489274133626,-0.09395896231863751,-7.990948910110848,-4.241093814623365
8.743323139711137,-1.4264256214919746,-0.22925448236452264,-0.13636990046487116,-8.020444657162157,-4.098177894451593
8.729058883496217,-1.5066300680635962,-0.23061818136917137,-0.1773516794093871,-8.045867748818988,-3.9330331565731655
8.713992582815582,-1.5870887455517861,-0.23239169816326524,-0.21668201097511874,-8.066688725899535,-3.744529121062624
8.698121695360063,-1.6677556328107814,-0.23455851827301644,-0.254127302185745,-8.082379699538537,-3.5315524372175937
8.681444139031955,-1.7485794298061668,-0.23709979129487388,-0.2894428265579209,-8.092421692703256,-3.2930187434133047
8.663958344733894,-1.8295036467331993,-0.23999421956045308,-0.322373013992054,-8.09631377068563,-3.0278864928141656
8.645663308266561,-1.9104667844400556,-0.2432179497003736,-0.3526518789201956,-8.093584125419369,-2.735172778305699
8.62655864042216,-1.9914026256942492,-0.24674446848957557,-0.3800036067032526,-8.083803249962955,-2.413971107897339
8.606644614165218,-2.072240658193879,-0.2505445045566081,-0.404143317782226,-8.066599298545317,-2.063470976834553
8.585922207583279,-2.152906651179332,-0.25458593773443033,-0.42477802755057154,-8.041675672782308,-1.6829789529974302
8.564393141071486,-2.233323407907155,-0.25883371800993604,-0.44160781708054586,-8.008830805208257,-1.2719408371926337
8.542059906992414,-2.3134117159592376,-0.2632497961807415,-0.45432722545247217,-7.967980027214348,-0.8299642806064633
8.51892578983282,-2.393091516231381,-0.26779306843526623,-0.4626268682585368,-7.9191793112452515,-0.35684104104370673
8.494994874670507,-2.4722833093438332,-0.2724193371178516,-0.4661952786689739,-7.862650569822776,0.14743215664498724
8.470272041577068,-2.550909815042061,-0.27708128990454134,-0.46472095710252403,-7.798808081943443,0.682635413549673
8.444762943426648,-2.6288978958614955,-0.28172849947556655,-0.45789460296702733,-7.728285508442881,1.2483115784185914
8.418473964468033,-2.7061807509459244,-0.28630744550523685,-0.4454114871828414,-7.651962862538113,1.843757970628797
8.391412156958573,-2.7827003795713057,-0.29076156037706524,-0.42697390747655345,-7.570992733102505,2.4680257359144626
8.36358515316286,-2.8584103069023308,-0.29503129945183076,-0.4022936501174088,-7.486825031730602,3.119928768153312
8.335001050093837,-2.9332785572196367,-0.29905423595300484,-0.3710943624358757,-7.4012295672528765,3.7980641569049607
8.30566826452164,-3.0072908528921656,-0.3027651795773636,-0.33311372086682606,-7.316315860338217,4.5008460565917225
8.275595355992719,-3.0804540114955477,-0.30609631678603183,-0.2881052603009088,-7.234549812237485,5.226554711162438
8.244790815877764,-3.1527995096179224,-0.3089773693890409,-0.23583971318928443,-7.158767148673885,5.973402110098189
8.213262820781585,-3.224387181104661,-0.31133576652093375,-0.17610569208830254,-7.09218398080894,6.73961541394861
8.18101894897054,-3.2953090209127507,-0.3130968234418168,-0.10870953794881644,-7.038405362577255,7.5235389033202935
8.148065858761411,-3.365693074538523,-0.3141839188213049,-0.0334741489156135,-7.001433373535301,8.323754826015945
8.114408928016026,-3.4357074082738763,-0.31451866031046105,0.04976339934454595,-6.985677009112959,9.139223212986217
8.080051853933288,-3.505564178365006,-0.3140210263170156,0.14115563147440813,-6.995967002890441,9.969440591414067
