th1 (rad),w1 (rad/s),th2 (rad),w2 (rad/s)
4.387389670094186,-2.1461105796495947,1.7976078383995673,0.7319992104007816
4.365928564297691,-2.050273463790671,1.8049278305035752,0.742266743239663
4.345425829659784,-1.957331884358762,1.812350497935972,0.7477102127780911
4.325852510816197,-1.8671515311425222,1.8198276000637528,0.7484488918726734
4.307180995504772,-1.7795761760547744,1.8273120889824794,0.7446425783544933
4.289385233744224,-1.694436082979151,1.8347585147660244,0.7364789260611098
4.272440872914433,-1.6115547748729184,1.8421233040266354,0.7241633641739699
4.256325325165704,-1.5307543545657936,1.8493649376683752,0.7079112698624884
4.241017781620045,-1.4518595863826984,1.856444050367,0.68794204855366
4.226499185756218,-1.3747009397287777,1.8633234708525368,0.664474790761687
4.21275217635893,-1.2991167796930567,1.8699682187601536,0.6377252038392902
4.199761008562,-1.22495486842833,1.8763454707985465,0.607903553637902
4.187511459877716,-1.1520733179437785,1.8824245063349256,0.5752133897018097
4.175990726698278,-1.0803411122110076,1.8881766402319438,0.5398508649902694
4.165187315576168,-1.009638295446925,1.8935751488818464,0.502004495347041
4.155090932621699,-0.9398559047737348,1.8985951938353167,0.4618552341258778
4.145692373573962,-0.8708957094126416,1.9032137461765755,0.4195767632863356
4.136983416479836,-0.802669805116447,1.907409513809439,0.3753359240453422
4.128956718428672,-0.735100101501143,1.9111628730498924,0.3292932281729234
4.121605717413661,-0.668117731031421,1.9144558053316216,0.2816034057205984
4.114924540103346,-0.6016624013539988,1.9172718393888275,0.23241595685616512
4.108907916089806,-0.5356817071622422,1.9195959989573892,0.18187568501433501
4.103551099018183,-0.4701304135422052,1.9214147558075325,0.13012319617799473
4.098849794882761,-0.40496971954924166,1.9227159877693125,0.07729535514227076
4.094800097687268,-0.34016650838299217,1.9234889413207352,0.023525694387466066
4.091398432603438,-0.27569258878572395,1.9237241982646098,-0.031055225053025673
4.0886415067155815,-0.2115239310331461,1.9234136460140796,-0.08631949839678728
4.08652626740525,-0.14763989999307875,1.9225504510301117,-0.14214160296288147
4.085049868405319,-0.08402248709447825,1.9211290350004828,-0.1983981586817735
4.084209643534374,-0.020655542596837315,1.9191450534136651,-0.2549677155527992
4.084003088108405,0.04247599078431999,1.9165953762581371,-0.3117305593782233
4.084427848016248,0.10538684210219051,1.9134780706643548,-0.3685685264579096
4.08548171643727,0.16809217368107318,1.9097923853997758,-0.42536481756173067
4.087162638174081,0.23060833952126902,1.9055387372241586,-0.482003801385643
4.089468721569293,0.2929536404096391,1.9007186992103022,-0.5383707978317303
4.0923982579733895,0.3551490756889885,1.895334991231985,-0.5943518318346416
4.09594974873028,0.41721909173848953,1.8893914729136385,-0.6498333491022614
4.100121939647664,0.479192327227692,1.8828931394226158,-0.7047018860783599
4.1049138629199415,0.5411023550737726,1.8758461205618322,-0.7588436877198999
4.110324886470679,0.6029884206816566,1.8682576836846332,-0.8121442683863378
4.116354770677496,0.6648961753828516,1.8601362410007698,-0.864487913368015
4.123003732431325,0.7268784028875906,1.8514913618670896,-0.9157571214793927
4.130272516460201,0.7889957348704185,1.8423337906522956,-0.9658319929019361
4.138162473808905,0.8513173493280959,1.8326754707232762,-1.0145895713303013
4.146675647302186,0.9139216418433974,1.8225295750099733,-1.0619031557721126
4.15581486372062,0.9768968550730504,1.8119105434522522,-1.1076416054722245
4.16558383227135,1.0403416453152543,1.80083412739753,-1.15166867185768
4.175987248724502,1.104365556515515,1.7893174406789532,-1.1938424046939902
4.187030904289657,1.1690893611153026,1.7773790166320131,-1.234014696440576
4.19872179790081,1.2346452133032089,1.7650388696676074,-1.2720310497591478
4.2110682500338426,1.3011765431030133,1.7523185591700159,-1.3077306788879641
4.224080015464873,1.3688375990714203,1.7392412523811362,-1.3409470866015523
4.237768391455587,1.437792523203038,1.7258317815151207,-1.3715092948045207
4.252146316687617,1.508213814471366,1.7121166885670756,-1.3992439478367535
4.267228454832331,1.5802800086007447,1.698124249088708,-1.4239785515160723
4.283031254918338,1.654172373720619,1.6838844635735473,-1.4455461542548795
4.2995729786555446,1.7300703988019766,1.6694290020309985,-1.4637918131374854
4.316873682643564,1.8081458408448623,1.6547910838996236,-1.4785812080585476
4.334955141052013,1.8885551071609938,1.640005271819038,-1.4898117570247724
4.353840692123622,1.9714297933885365,1.6251071542487905,-1.4974265268432911
4.3735549900575075,2.0568652914823837,1.6101328889803577,-1.5014311025718916
4.394123642972331,2.1449075415677115,1.5951185779546388,-1.5019133507639228
4.415572718388008,2.2355382421207177,1.5800994444469996,-1.499065662255606
4.437928100809215,2.328659162123936,1.5651087878244434,-1.493208776519318
4.461214692430454,2.4240766093834663,1.5501767000592501,-1.4848156793992322
4.485455458524289,2.521487569737305,1.5353285432652577,-1.4745333727822159
4.510670334221662,2.620469478700816,1.5205832095374356,-1.4631996304985113
4.53687502900867,2.7204759209244065,1.5059512132324506,-1.4518513263275523
4.5640797882179145,2.820840646289367,1.4914326999691752,-1.4417207398044656
4.592288194680808,2.9207920118221105,1.4770154925711305,-1.4342166192390335
4.621496114799029,3.0194792068398346,1.4626733263787401,-1.4308878702113075
4.651690906867428,3.116010377980735,1.448364447676627,-1.433369584504666
4.682851010647235,3.2095011483184352,1.4340307518315805,-1.4433135855763715
4.71494602213042,3.2991302661341524,1.4195976159758168,-1.4623083844700433
4.747937324791761,3.384197576024145,1.4049745321311164,-1.491795882768138
4.781779300552002,3.4641785557657574,1.3900565733034351,-1.5329937379269647
4.81642108610966,3.5387696014557792,1.3747266359241654,-1.5868325427853929
4.851808782124218,3.6079191821332555,1.3588583104963115,-1.653915659438867
4.88788797394555,3.6718418002190196,1.3423191539019228,-1.7345068473816956
4.92460639194774,3.731014049504555,1.3249740854281058,-1.8285472421935902
4.961916532442785,3.7861544977053545,1.30668861300617,-1.9356994958405898
4.999778077419839,3.83819117577778,1.287331618047764,-2.0554137255386853
5.0381599891776165,3.8882217896465066,1.2667774807923773,-2.1870079051610825
5.077042207074082,3.937472233004722,1.2449074017407664,-2.32975474017877
5.116416929404129,3.987258630057871,1.2216098543389786,-2.4829678323191646
5.1562895157047075,4.038957195082073,1.196780176015787,-2.6460817377744577
5.196679087655529,4.093984966958702,1.1703193586380425,-2.8187228911098052
5.237618937325116,4.153793268355226,1.1421321297269444,-3.0007708482312307
5.279156870008668,4.2198747957497025,1.1121244212446322,-3.1924115509603603
5.321355617966165,4.293784720359946,1.0802003057350287,-3.394186155172955
5.364293465169764,4.377176133098705,1.0462584441832992,-3.6070403828728783
5.408065226500751,4.471850593079179,1.0101880403545704,-3.832380471165941
5.452783732431543,4.5798253915532054,0.971864235642911,-4.072142777898077
5.498581986347075,4.703420341853374,0.9311428078639302,-4.328885133531356
5.545616189765608,4.845368303222923,0.8878539565286167,-4.605909148701466
5.594069872797838,5.008954890035306,0.841794865041602,-4.907423604018093
5.644159421698191,5.198192980668457,0.792720629001421,-5.238758613723019
5.696141351504876,5.418034280755962,0.7403330428641909,-5.606635169775126
5.750321694312436,5.674606997744455,0.6842666911664397,-6.019476225302465
5.80706776428988,5.975429533084406,0.624071928913415,-6.487691294110208
5.866822059620724,6.329444379912689,0.5591950159723129,-7.023720049712411
5.9301165034198515,6.7464441493474085,0.4889578154751888,-7.64124194524366
5.9975809449133255,7.234792119683253,0.4125453960227522,-8.35202525100879
6.069928866110158,7.794836496398637,0.3290251435126643,-9.156786521127353
6.147877231074144,8.40281826762551,0.2374572783013908,-10.022783582349971
6.2319054137503995,8.979569704439347,0.1372294424778911,-10.840125174983006
6.321701110794793,9.358120653165246,0.02882819072806103,-11.376477756023172
6.4152823173264455,9.332379212544945,-0.0849365868321707,-11.345078556394778
6.508606109451895,8.860046617601716,-0.19838737239611848,-10.687971578441136
6.597206575627912,8.15400712567077,-0.30526708818052983,-9.702260087507739
6.67874664688462,7.447019248946885,-0.40228968905560725,-8.711179509110721
6.753216839374089,6.836919983044672,-0.48940148414671447,-7.849809360963729
6.8215860392045355,6.334389770885818,-0.5678995777563518,-7.132528757338821
6.884929936913394,5.923320792489886,-0.63922486532974,-6.536938713080412
6.944163144838292,5.584721508461048,-0.7045942524605441,-6.036863704372438
7.000010359922903,5.302729506777497,-0.7649628895042685,-5.61057425494196
7.0530376549906775,5.06517140174844,-0.8210686320536881,-5.241515221252657
7.103689369008162,4.862882534252534,-0.8734837842662146,-4.917354581588593
7.152318194350688,4.688932272581467,-0.9226573300821006,-4.628921552056242
7.199207517076502,4.538001088367712,-0.968946545602663,-4.369365276588465
7.244587527960179,4.405921972109776,-1.0126401983685476,-4.133546679910859
7.288646747681277,4.2893507809917155,-1.0539756651676562,-3.9176116866515316
7.331540255491194,4.185529502204227,-1.0931517820341714,-3.7186936273694298
7.373395550513236,4.0921152174050635,-1.1303387183078657,-3.534704421024784
7.4143167026872865,4.007056190396524,-1.1656857625181136,-3.3641851480952663
7.454387264591252,3.9285031457331465,-1.1993276139990663,-3.2061946380754387
7.493672296048583,3.854748538522277,-1.2313895603798206,-3.0602200834409983
7.532219781433806,3.784189799815836,-1.2619917612142306,-2.9260973630887794
7.570061679431965,3.715314432989245,-1.2912527348451184,-2.8039315989645064
7.607214823761857,3.6467055412325147,-1.3192920508347634,-2.694011236384164
7.643681879174182,3.5770659220027152,-1.346232163198605,-2.596712194182918
7.67945253839421,3.5052573674437495,-1.372199285140434,-2.512392637727981
7.714505112068647,3.4303495555636645,-1.3973232115177139,-2.4412835099498134
7.748808607624284,3.351670492551708,-1.421736046617212,-2.3833844093902212
7.7823253125498,3.2688487233153887,-1.445569890711114,-2.3383775754726592
7.815013799782954,3.181837377756108,-1.4689536664658407,-2.305573351599008
7.846832173560515,3.0909121863884756,-1.4920093999818307,-2.2838976857947935
7.8777412954244,2.9966398494590627,-1.5148483768397787,-2.271926101911845
7.907707693918991,2.8998187321657776,-1.5375676378588972,-2.2679604434670386
7.936705881240648,2.80139931882535,-1.5602472422935676,-2.2701367733381743
7.964719874428902,2.7023956331188357,-1.5829486100269494,-2.27654742964689
7.9917438307600905,2.6037998928657426,-1.6057140843234183,-2.2853588937654
8.017781829688747,2.506510916540022,-1.6285676732610723,-2.294909923770887
8.042846938854147,2.4112830342971283,-1.6515167724987811,-2.30378011540735
8.066959769197119,2.318697770126834,-1.6745545736528546,-2.3108257351151056
8.090146746898387,2.2291565970030667,-1.6976628310040056,-2.3151854926770272
8.112438312868418,2.1428904147796257,-1.7208146859307758,-2.3162627465708083
8.133867217016215,2.059980273793434,-1.743977313396484,-2.3136921906435455
8.154467019754149,1.980384019377734,-1.7671142353029194,-2.307298755118834
8.174270859947926,1.9039644922589387,-1.7901872228541078,-2.2970549834835223
8.193310504870515,1.8305162070934378,-1.813157772688943,-2.283041230799349
8.21161566694145,1.7597886869326278,-1.8359881849969364,-2.2654111904225362
8.229213553810776,1.6915056536457693,-1.8586422969011618,-2.244363779901619
8.246128610347235,1.6253799956366306,-1.881085934700178,-2.220121391113295
8.262382410303601,1.561124873330101,-1.903287148611311,-2.192913898489898
8.277993659036902,1.4984615396711392,-1.92521628759621,-2.1629675297286313
8.292978274433613,1.4371245161045212,-1.9468459628934962,-2.130497632560185
8.30734951959466,1.3768647346065235,-1.9681509392190981,-2.095704430229172
8.321118166940725,1.317451178773819,-1.9891079835213898,-2.058770981546347
8.334292678728463,1.2586714621264374,-2.0096956933368535,-2.0198627054518714
8.346879393349727,1.200331687756925,-2.029894320391372,-1.9791279697182436
8.358882710227297,1.1422558495777935,-2.0496856000885546,-1.9366993661424368
8.370305268723074,1.0842849653369067,-2.069052593749979,-1.892695395806002
8.381148118376442,1.0262760756381368,-2.087979547708039,-1.8472223677958515
8.391410879132824,0.9681012000892609,-2.1064517713859976,-1.8003763755315405
8.401091891133717,0.9096463093885719,-2.124455535141313,-1.7522452597447702
8.410188354227603,0.8508103485376327,-2.1419779877387604,-1.702910499470373
8.41869645771298,0.7915043294939487,-2.159007092733464,-1.6524489950730932
8.426611501007919,0.7316504998175598,-2.175531582684195,-1.6009347228131294
8.433928006006095,0.6711815859042798,-2.191540929912326,-1.5484402507164579
8.440639821865139,0.610040104215427,-2.207025332419491,-1.4950381120902998
8.446740222907293,0.5481777307393523,-2.221975713540394,-1.4408020370636248
8.452222000214686,0.48555471718475696,-2.23638373391103,-1.385808044891586
8.457077547386534,0.4221393416960435,-2.250241814359946,-1.3301354010619897
8.461298940803495,0.35790738189976,-2.263543168370566,-1.273867443923585
8.464878014622492,0.29284159862685977,-2.2762818428098015,-1.2170922859279079
8.46780643060876,0.22693121955703655,-2.2884527656690805,-1.1599033948458828
8.470075742804331,0.16017141319005274,-2.300051799617539,-1.102400060619917
8.471677456936233,0.09256274488452934,-2.311075800223738,-1.0446877539189905
8.472603084385078,0.02411060815565777,-2.321522677762928,-0.9868783830146539
8.472844190466635,-0.04517537405965219,-2.3313914615930744,-0.929090456296424
8.472392436726038,-0.11528198192025733,-2.3406823661560385,-0.8714491585809684
8.471239616906836,-0.1861930672018432,-2.3493968577418483,-0.8140863503108522
8.469377686234818,-0.25789025855867753,-2.357537721244957,-0.7571404997458429
8.466798783649232,-0.33035370285451066,-2.365109126242415,-0.7007565592773918
8.463495246620687,-0.4035628405842902,-2.372116691835189,-0.6450857979968169
8.459459618214844,-0.4774972122265804,-2.378567549815157,-0.5902856035716166
8.454684646092577,-0.5521372913288223,-2.384470405850873,-0.5365192672855159
8.44916327317929,-0.6274653392480789,-2.3898355985237285,-0.4839557667324045
8.442888619786808,-0.7034662757574712,-2.3946751561910524,-0.43276956108197556
8.435853957029234,-0.7801285591857847,-2.399002851801872,-0.38314041401928767
8.428052671437376,-0.8574450693805422,-2.402834255942065,-0.33525325936927014
8.41947822074357,-0.935413986561499,-2.4061867885357575,-0.2892981240216747
8.410124080877956,-1.0140396590420309,-2.4090797697759743,-0.24547012204648455
8.399983684287536,-1.0933334528112901,-2.4115344709964393,-0.20396953281082722
8.389050349759422,-1.1733145760515982,-2.4135741663245476,-0.165001974453359
8.377317203998906,-1.2540108717643483,-2.4152241860690813,-0.12877868221742278
8.364777095281262,-1.33545957173395,-2.4165119728912554,-0.0955168988635488
8.351422499563922,-1.4177080050023303,-2.4174671418798908,-0.0654403816428992
8.337245419513899,-1.5008142537746596,-2.41812154569632,-0.0387800270750628
8.322237276976152,-1.5848477491383601,-2.4185093459670703,-0.01577461098293683
8.306388799484768,-1.669889798050914,-2.4186670920768996,0.003328363174792473
8.289689901504259,-1.7560340316287306,-2.4186338084451515,0.01827171975484903
8.272129561187972,-1.8433867627355869,-2.418451091247603,0.02878758818612255
8.253695693560616,-1.9320672381099366,-2.4181632153657415,0.03459632694411603
8.234375021179517,-2.022207766674888,-2.4178172520963,0.035405427145241766
8.214152943512769,-2.113953701144069,-2.4174631978248478,0.03090843791557804
8.193013406501327,-2.207463244495068,-2.417154113445692,0.02078396636620336
8.170938774056376,-2.302907046292075,-2.4169462737820298,0.004694817251601011
8.147909703593456,-2.4004675462226084,-2.416899325609514,-0.01771264871142414
8.12390502813123,-2.500338013679123,-2.4170764520966284,-0.04680884333641027
8.098901647994438,-2.602721222998582,-2.4175445405299927,-0.08298085470821806
8.072874435764453,-2.707827694475788,-2.418374349077075,-0.12663179649016093
8.045796158819694,-2.815873422118813,-2.4196406670419766,-0.1781794546494014
8.017637424598506,-2.9270770012341045,-2.4214224615884707,-0.2380540658284947
7.988366654586165,-3.0416560635818115,-2.4238030022467556,-0.3066950465757001
7.9579500939503465,-3.1598229267001052,-2.4268699527125124,-0.3845464827123007
7.926351864683346,-3.281779369164694,-2.4307154175396355,-0.47205118653695327
7.893534070991699,-3.4077104575406527,-2.435435929405005,-0.5696431404591347
7.859456966416292,-3.5377773764173512,-2.4411323608095965,-0.6777381738881451
7.8240791926521185,-3.6721092530903547,-2.447909742548478,-0.7967227711468846
7.787358100121215,-3.8107940257508206,-2.4558769702599466,-0.9269409871679859
7.749250159863706,-3.953868480152554,-2.4651463801316265,-1.0686795592225755
7.709711475062181,-4.101307674667129,-2.475833175723852,-1.222151449296303
7.6686983983155095,-4.253014084831617,-2.4880546902168152,-1.3874782316982819
7.626168257467193,-4.4088069198282,-2.501929472533798,-1.5646719474508914
7.582080188268911,-4.568412184421059,-2.517576192008307,-1.753617267410484
7.5363960664247,-4.7314541658284845,-2.535112364682412,-1.9540550184516252
7.489081524766416,-4.89744909711341,-2.5546529148669284,-2.16556830230056
7.4401070337952815,-5.0658017662710035,-2.576308597889934,-2.3875725400739585
7.389449016132572,-5.235805783889914,-2.600184323290674,-2.619310771438335
7.337090958293673,-5.40664807829292,-2.626377431005057,-2.8598553950952397
7.283024477510743,-5.577417952008332,-2.6549759849560095,-3.108117239819894
7.227250297990659,-5.747120718177179,-2.6860571573542082,-3.3628624061761263
7.169779090808888,-5.9146955669765475,-2.7196857814159694,-3.622736747770756
7.110632135139122,-6.079036931509188,-2.755913148893677,-3.8862972229493837
7.04984176582403,-6.239018279580453,-2.7947761211231708,-4.152048718499586
6.987451583028225,-6.393517001621913,-2.8362966083081664,-4.418484409323786
6.923516413012006,-6.5414389343059405,-2.8804814524014044,-4.68412734727838
6.8581020236689465,-6.681741073267709,-2.927322725874188,-4.947570819995923
6.79128461293627,-6.813451181904551,-2.9767984340741473,-5.207515103510657
6.723150101117224,-6.935683268571117,-3.028873585109254,-5.462798530149831
6.653793268431513,-7.04764823728748,-3.083501570410752,-5.712421252466461
6.583316786058638,-7.148659366578607,-3.1406257829354165,-5.955560632253048
6.511830192392852,-7.238132590818487,-3.200181389257947,-6.191577744121157
6.439448866484667,-7.315581814855659,-3.2620971666991583,-6.4200149896098075
6.36629304833611,-7.380609669595738,-3.3262973165952565,-6.640585225045145
6.292486951640153,-7.43289421521995,-3.392703168845708,-6.853153094415347
6.218158009487953,-7.472172136114148,-3.4612346997898618,-7.057709431426079
6.143436288126812,-7.498218973438514,-3.5318117941041227,-7.254339675857397
6.068454098392427,-7.5108269383237625,-3.6043551908626967,-7.443187274125856
5.993345829009189,-7.509780872135328,-3.6787870636039552,-7.624413044680659
5.918248020287836,-7.494832998849088,-3.755031194050762,-7.79815152911283
5.843299690299345,-7.465677272697671,-3.83301270934189,-7.964465461278981
5.768642917572368,-7.421924380090382,-3.91265736395468,-8.123299706375628
5.694423673771464,-7.363078817673715,-3.9938903610184364,-8.27443637889164
5.620792885594727,-7.28851993367507,-4.076634724807353,-8.417453358406933
5.547907686257976,-7.197489360738226,-4.1608092583914225,-8.551689078120106
5.475932792650594,-7.089087825290456,-4.246326149172623,-8.676217218566277
5.40504191439769,-6.96228478444109,-4.333088321358286,-8.789835698812757
5.335419066553279,-6.815944552364404,-4.420986678346414,-8.891074946511608
5.267259621029635,-6.648872311707486,-4.50989742781153,-8.978230589870368
5.20077089791256,-6.459882402271647,-4.599679733710233,-9.049425120434547
