th1 (rad),w1 (rad/s),th2 (rad),w2 (rad/s),a1 (rad/s^2),a2 (rad/s^2)
3.243080679561443,-2.7659411256780935,2.573452476208121,2.4990692350524095,-1.0680264279493827,0.3129287334239534
3.215421268304662,-2.776621389957587,2.5984431685586453,2.502198522386649,-1.261476451019808,0.42449997244489085
3.187655054405086,-2.789236154467785,2.623465153782512,2.506443522111098,-1.4548967400425687,0.5360520875196864
3.1597626928604083,-2.8037851218682106,2.648529589003623,2.5118040429862947,-1.6456046089888954,0.642724301914485
3.1317248416417263,-2.8202411679580996,2.673647629433486,2.5182312860054394,-1.8300048342691573,0.7383649419525771
3.1035224299621453,-2.8385412163007913,2.6988299422935405,2.525614935424965,-2.0035856872741205,0.8155128505876169
3.0751370177991375,-2.8585770731735325,2.72408609164779,2.533770063930841,-2.1610371754183033,0.8655535197742387
3.046551247067402,-2.8801874449277154,2.7494237922870983,2.5424255991285833,-2.296540833399641,0.8791201905298618
3.017749372618125,-2.903152853261712,2.774848048278384,2.551216801033882,-2.404267384561455,0.8467917744268141
2.988717844085508,-2.9271955271073264,2.800360216288723,2.55968471877815,-2.479083220535467,0.7600893049343563
2.9594458888144346,-2.951986359312681,2.8259570634765043,2.5672856118274936,-2.517406680930347,0.612687504321134
2.9299260252213077,-2.977160426121985,2.8516299195947794,2.573412486870705,-2.518080009182116,0.401651304308873
2.900154420960088,-3.002341226213806,2.8773640444634863,2.577428999913794,-2.483057987663089,0.12841471634224116
2.8701310086979497,-3.0271718060904367,2.903138334462624,2.578713147077216,-2.417696345036743,-0.2008066015300573
2.8398592906370452,-3.051348769540804,2.9289254659333963,2.5767050810619154,-2.3304828345383033,-0.575393666877164
2.809345802941637,-3.074653597886187,2.9546925167440157,2.5709511443931437,-2.2321918498101003,-0.9815229002080157
2.7785992669627753,-3.096975516384288,2.9804020281879473,2.5611359153910636,-2.1346159474065054,-1.4039702396936429
2.7476295117989324,-3.1183216758583527,3.006013387341858,2.547096212994127,-2.0491614154112425,-1.8281152965445062
2.716446295040349,-3.138813290012465,3.0314843494717993,2.528815060028682,-1.9856277573544334,-2.2416925026752867
2.6850581621402245,-3.1586695675860095,3.056772500072086,2.506398135001929,-1.9514104642047856,-2.6359488143372545
2.6534714664643646,-3.1781836722280574,3.0818364814221053,2.4800386468585565,-1.951217134752062,-3.006078048563836
2.621689629742084,-3.1976958435755782,3.106636867890691,2.449977866372918,-1.9872390460667453,-3.3510112536380086
2.5897126713063283,-3.2175682340362455,3.13113664655442,2.416467753836538,-2.0596276892483663,-3.672774109480308
2.557536988965966,-3.238164510928729,3.155301324092785,2.3797400127417347,-2.1671039450375784,-3.9756541492800532
2.5251553438566785,-3.2598355503791048,3.1790987242202027,2.3399834712489342,-2.3075588223242693,-4.26537722820138
2.4925569883528875,-3.2829111386023473,3.202498558932692,2.2973296989669203,-2.4785587576677344,-4.548416727509054
2.459727876966864,-3.3076967261790244,3.225471855922361,2.2518455316918295,-2.677720290031205,-4.831485893484134
2.426650909705074,-3.3344739290793366,3.2479903112392794,2.203530672756988,-2.9029557186536907,-5.121211572047626
2.3933061704142804,-3.3635034862658735,3.270025617966849,2.1523185570365118,-3.152611085824071,-5.4239593863999085
2.3596711355516216,-3.3950295971241142,3.2915488035372142,2.0980789631725125,-3.4255242609166316,-5.745770881172223
2.3257208395803803,-3.4292848397332807,3.3125295931689394,2.0406212543607904,-3.721029290540653,-6.0923749443814605
2.2914279911830477,-3.4664951326386872,3.3329358057125473,1.9796975049169758,-4.038927916273529,-6.469242720299298
2.256763039856661,-3.5068844118014226,3.352732780761717,1.9150050777139829,-4.379443077085992,-6.881663229845298
2.221694195738647,-3.5506788425722826,3.371882831538857,1.84618844541553,-4.743163753403878,-7.334823952462384
2.186187407312924,-3.5981104801063215,3.3903447159930122,1.772840205890906,-5.130986189132557,-7.833885935360896
2.1502063025118607,-3.649420341997647,3.4080731180519215,1.6945013465372971,-5.544053355573328,-8.384046540067695
2.113712099091884,-3.7048608755533805,3.4250181315172945,1.61066088113662,-5.983692290965493,-8.990584979526767
2.07666349033635,-3.7646977984630356,3.441124740328661,1.5207550313413525,-6.451347407369668,-9.658886688865929
2.03901651235172,-3.829211272536732,3.4563322906420746,1.4241661644526933,-6.948506780456095,-10.394442632603019
2.0007243996263524,-3.898696340341293,3.4705739522866015,1.320221738126663,-7.4766176668990045,-11.202819149352736
1.9617374362229394,-3.973462517010283,3.483776169667868,1.2081935466331357,-8.036986936221597,-12.08959309414258
1.9220028110528367,-4.053832386372499,3.4958581051341993,1.08729761569171,-8.630661733548878,-13.060246058394222
1.8814644871891117,-4.140139003707988,3.5067310812911163,0.9566951551077678,-9.258285545849866,-14.120010537617757
1.8400630971520318,-4.232721859166487,3.516298032842194,0.8154950497315903,-9.919925030144231,-15.273660326916975
1.797735878560367,-4.331921109467929,3.52445298333951,0.6627584464624205,-10.614863645755229,-16.525237474399052
1.7544166674656876,-4.438069745925482,3.531080567804134,0.49750607171843003,-11.341359544317028,-17.877709223474326
1.7100359700064327,-4.551483341368652,3.5360556285213183,0.3187289794836867,-12.096367592165787,-19.332551033983414
1.6645211365927461,-4.67244701729031,3.5392429183161553,0.1254034691438526,-12.875229132795738,-20.889256568569554
1.617796666419843,-4.801199308618267,3.540496953007594,-0.08348909654184294,-13.671338408081489,-22.5447830454905
1.5697846733336605,-4.937912692699082,3.5396620620421753,-0.30893692699674796,-14.475801575868578,-24.29295103523038
1.5204055464066697,-5.082670708457767,3.5365726927722076,-0.5518664373490518,-15.277112836445268,-26.123831697030937
1.469578839322092,-5.23544183682222,3.5310540283987173,-0.8131047543193612,-16.060881691503226,-28.023171021784503
1.4172244209538698,-5.396050653737253,3.522922980855524,-1.0933364645372063,-16.809654523881335,-29.971918244852773
1.3632639144164973,-5.564147198976066,3.5119896162101516,-1.393055646985734,-17.502880424990302,-31.94594123912575
1.3076224424267366,-5.739176003225969,3.498059059740294,-1.7125150593769916,-18.117072670128465,-33.916020958205266
1.2502306823944769,-5.920346729927254,3.480933909146524,-2.0516752689590443,-18.62621019864779,-35.848214311348315
1.1910272150952044,-6.106608831913732,3.4604171564569337,-2.4101574120725275,-19.002405004252555,-37.704654539867526
1.129961126776067,-6.296632881956258,3.4363155823362086,-2.7872039574712026,-19.216830143703593,-39.44481621398805
1.0669947979565044,-6.488801183393294,3.4084435427614967,-3.181652119611083,-19.240860746581756,-41.02720834832141
1.0021067861225714,-6.6812097908591115,3.376627021565386,-3.591924203094297,-19.04733262478457,-42.411379989045784
0.9352946882139803,-6.871683117106957,3.340707779534443,-4.016038002984755,-18.611779660323876,-43.56004125801899
0.8665778570429108,-7.057800913710196,3.3005473995045955,-4.451638415564944,-17.913484547423295,-44.44103833580386
0.7959998479058088,-7.236935759184429,3.2560310153489462,-4.896048798922983,-16.936179530660638,-45.02889386453732
0.7236304903139645,-7.406297554491036,3.207070527359716,-5.346337737568357,-15.668271600660663,-45.30565059552655
0.6495675147690542,-7.5629802704976425,3.153607149984033,-5.799394243523622,-14.102539024947463,-45.260840575661454
0.5739377120640777,-7.704005660747117,3.0956132075487965,-6.252002649280237,-12.235342689402492,-44.89053515312167
0.4968976554566066,-7.8263590876411415,3.0330931810559942,-6.700908000811453,-10.065499194877015,-44.19559024449923
0.41863406458019514,-7.927014079589911,2.96608410104788,-7.142863903256446,-7.593053774251337,-43.1793579861384
0.33936392378429603,-8.002944617332425,2.8946554620153155,-7.5746574831178295,-4.818254059489397,-41.845263538918836
0.2593344776109718,-8.051127157927318,2.8189088871841372,-7.993110118507018,-1.7410510961812824,-40.194726339407865
0.1788232060316986,-8.068537668889132,2.738977785999067,-8.395057381901097,1.638562269373507,-38.225930024376176
0.09813782934280728,-8.052152046195397,2.6550272121800558,-8.777316682144859,5.319126382876539,-35.93391126531185
0.017616308880853304,-7.998960782366632,2.5672540453586072,-9.136655794797978,9.295066223975438,-33.312339213785044
-0.062373298942813016,-7.9060101201268775,2.4758874874106276,-9.469779186935828,13.552858483944844,-30.357180882050706
-0.1414334001440818,-7.770481535287429,2.3811896955412695,-9.773350995756335,18.06630581271653,-27.072174778527046
-0.21913821549695608,-7.5898184771602635,2.283456185583706,-10.044072743541605,22.791536226755312,-23.475655023757724
-0.2950364002685587,-7.36190311489271,2.1830154581482897,-10.278829293779182,27.66270783286937,-19.607804114570758
-0.3686554314174858,-7.085276036564016,2.080227165210498,-10.47490733492489,32.58970239544869,-15.536949735938009
-0.43950819178312595,-6.7593790126095294,1.9754780918612491,-10.63027683228427,37.45918471496372,-11.363219985932467
-0.5071019819092213,-6.384787165459892,1.8691753235384063,-10.743909032143595,42.1401196351686,-7.217939700578999
-0.5709498535638202,-5.963385969108206,1.7617362332169704,-10.816088429149385,46.49407511969503,-3.257757543194643
-0.6305837132549023,-5.4984452179112555,1.6535753489254765,-10.848666004581332,50.389474896141046,0.34635438583751604
-0.6855681654340148,-4.994550468949845,1.545088688879663,-10.845202460722957,53.71770998131711,3.4236409808543047
-0.7355136701235132,-4.457373369136674,1.4366366642724335,-10.810966050914415,56.40815618232495,5.818800795834272
-0.78008740381488,-3.893291807313424,1.3285270037632895,-10.752778042956072,58.439114369380306,7.404531356559739
-0.8190203218880142,-3.308900663619621,1.2209992233337288,-10.678732729390475,59.842634546617596,8.088449141834664
-0.8521093285242104,-2.710474318153445,1.114211896039824,-10.597848237972128,60.7028200263546,7.812757660925985
-0.8792140717057448,-2.103446117889899,1.0082334136601028,-10.519720661362868,61.14893903626787,6.546674293462197
-0.9002485328846438,-1.4919567275272203,0.9030362070464741,-10.454253918428247,61.34589062192426,4.272962060345659
-0.915168100159916,-0.8784978213079777,0.7984936678621917,-10.41152429782479,61.484944424002705,0.970530216430183
-0.9239530783729958,-0.26364837706795063,0.6943784248839437,-10.40181899566049,61.77721519732976,-3.40504446012767
-0.9265895621436753,0.35412377490534697,0.5903602349273388,-10.435869440261767,62.45123261964007,-8.941650386995716
-0.9230483243946218,0.9786361011017477,0.4860015405247211,-10.525285944131724,63.7542094972059,-15.789863601204434
-0.9132619633836043,1.6161781960738066,0.3807486810834039,-10.683184580143768,65.95335094914743,-24.177196368784134
-0.8971001814228663,2.275711705565281,0.2739168352819662,-10.924956543831609,69.32579497558513,-34.40408035925711
-0.8743430643672134,2.9689696553211324,0.1646672698436501,-11.26899734742418,74.1050621012654,-46.780653985263605
-0.8446533678140021,3.7100202763337866,0.05197729636940829,-11.736803887276817,80.29613412843676,-61.386685346500215
-0.8075531650506642,4.512981617618154,-0.06539074250335988,-12.350670740741819,87.13167781379242,-77.342150737229
-0.7624233488744827,5.384298395756078,-0.18889744991077806,-13.12409224811411,91.67307768667816,-90.89479771866066
-0.7085803649169219,6.30102917262286,-0.32013837239191917,-14.033040225300716,86.05790634843805,-91.59995422492734
-0.6455700731906933,7.161608236107241,-0.4604687746449263,-14.94903976754999,56.02206974442837,-60.14974451300588
-0.5739539908296208,7.721828933551524,-0.6099591723204262,-15.55053721268005,-5.810530784110467,13.566942279798365
-0.4967357014941056,7.6637236257104195,-0.7654645444472267,-15.414867789882067,-70.36864296077806,90.22708076350524
-0.42009846523700145,6.960037196102639,-0.9196132223460474,-14.512596982247015,-97.68807660184207,116.7504244037384
-0.35049809327597503,5.983156430084218,-1.0647391921685174,-13.34509273820963,-93.85225648579569,102.93495023713018
-0.29066652897513284,5.0446338652262614,-1.1981901195506137,-12.315743235838328,-81.35419399639413,79.27004914292988
-0.24022019032287023,4.23109192526232,-1.321347551908997,-11.523042744409029,-69.94166944713132,58.19104004992618
-0.19790927107024703,3.531675230791007,-1.4365779793530873,-10.941132343909768,-61.42712234142768,41.53159299855894
-0.16259251876233696,2.9174040073767302,-1.545989302792185,-10.52581641392418,-55.494800337162104,28.498152821289345
-0.13341847868856965,2.362456004005109,-1.6512474669314268,-10.240834885711285,-51.53852668185603,18.07025579352525
-0.10979391864851856,1.8470707371865487,-1.7536558157885396,-10.060132327776033,-49.049056468435964,9.458570052184538
-0.09132321127665308,1.356580172502189,-1.8542571390662999,-9.965546627254188,-47.64645962738581,2.116905609567517
-0.07775740955163118,0.880115576228331,-1.9539126053388418,-9.944377571158514,-47.045332497795705,-4.315184153193788
-0.06895625378934787,0.409662251250374,-2.0533563810504267,-9.987529412690451,-47.01656245771889,-10.061905285601885
-0.06485963127684413,-0.060503373326814935,-2.1532316751773313,-10.08814846554647,-47.35628383676405,-15.24328628984809
-0.06546466501011228,-0.5340662116944555,-2.254113159832796,-10.24058132844495,-47.86173895274365,-19.89339605662203
-0.07080532712705684,-1.0126836012218918,-2.356518973117246,-10.43951528901117,-48.312762786885926,-23.969849928816306
-0.08093216313927576,-1.495811229090751,-2.4609141260073577,-10.679213788299334,-48.45888561714903,-27.359548837100622
-0.09589027543018327,-1.9804000852622412,-2.567706263890351,-10.95280927667034,-48.01380069969703,-29.885685228181487
-0.11569427628280568,-2.4605380922592115,-2.6772343566570544,-11.251666128952156,-46.66056601460529,-31.321415807961646
-0.1402996572053978,-2.9271437524052644,-2.789751017946576,-11.564880287031773,-44.071714290475946,-31.415490988156698
-0.16957109472945045,-3.3678608953100237,-2.9053998208168936,-11.87903519691334,-39.94736510226324,-29.933340754305583
-0.2032497036825507,-3.7673345463326564,-3.024190172786027,-12.178368604456397,-34.07032033154902,-26.712486317627548
-0.24092304914587725,-4.108037749648147,-3.145973858830591,-12.445493467632673,-26.36977057620329,-21.723665849488736
-0.2820034266423587,-4.37173545541018,-3.270428793506918,-12.66273012612756,-16.976769344316725,-15.12121172347092
-0.32572078119646053,-4.541503148853347,-3.3970560947681934,-12.81394224336227,-6.249905493458468,-7.263002947974014
-0.371135812684994,-4.604002203787932,-3.525195517201816,-12.88657227284201,5.2461335702363145,1.3136844004212365
-0.41717583472287334,-4.551540868085569,-3.654061239930236,-12.873435428837798,16.812218120161813,9.959558254999154
-0.462691243403729,-4.38341868688395,-3.782795594218614,-12.773839846287807,27.72164776549096,18.007357689126167
-0.5065254302725686,-4.106202209229041,-3.910533992681492,-12.593766269396545,37.33461745445907,24.86787247532368
-0.547587452364859,-3.73285603468445,-4.036471655375458,-12.345087544643308,45.19121674402258,30.10536101035053
-0.5849160127117035,-3.280943867244224,-4.15992253082189,-12.044033934539803,51.06250531460038,33.47822642522365
-0.6177254513841457,-2.7703188140982205,-4.280362870167289,-11.709251670287566,54.952938821444874,34.94074664540871
-0.6454286395251279,-2.2207894258837717,-4.397455386870164,-11.359844203833479,57.061257289462475,34.61086321768943
-0.6676365337839656,-1.650176852989147,-4.511053828908499,-11.013735571656584,57.71674403680336,32.71618283658168
-0.6841383023138571,-1.0730094126211132,-4.621191184625064,-10.686573743290767,57.31074744127292,29.533458185591165
-0.6948683964400683,-0.4999019382083839,-4.728056922057972,-10.391239161434855,56.239529260871734,25.334808338149855
-0.6998674158221521,0.062493354400333434,-4.83196931367232,-10.137891078053357,54.866848742539446,20.34823835199761
-0.6992424822781488,0.6111618418257279,-4.933348224452853,-9.934408694533381,53.50719497869905,14.733649432552717
-0.6931308638598915,1.1462337916127183,-5.032692311398187,-9.787072200207854,52.42585465534851,8.570963070885888
-0.6816685259437644,1.6704923381662033,-5.130563033400266,-9.701362569498995,51.85048594200739,1.8549858321115305
-0.6649636025621023,2.188997197586277,-5.227576659095256,-9.68281271117788,51.9895374222212,-5.508325591081085
-0.6430736305862396,2.708892571808489,-5.324404786207035,-9.73789596708869,53.054250983650235,-13.70829270928515
-0.6159847048681547,3.2394350816449915,-5.421783745877922,-9.874978894181542,55.28165207949659,-23.040358306794936
-0.5835903540517048,3.7922516024399573,-5.520533534819737,-10.10538247724949,58.95374094123082,-33.91768814550952
-0.5456678380273052,4.381789011852265,-5.621587359592232,-10.444559358704586,64.39783725701773,-46.86454806824063
-0.5018499479087826,5.025767384422442,-5.726032953179278,-10.913204839386992,71.91939990076875,-62.425842304858826
-0.45159227406455815,5.74496138343013,-5.835165001573148,-11.53746326243558,81.51761181815468,-80.78750573216652
-0.39414266023025685,6.560137501611677,-5.950539634197503,-12.345338319757245,91.95741690417516,-100.51691136185354
-0.32854128521414006,7.479711670653428,-6.073993017395076,-13.35050743337578,98.2097362506769,-115.03979814412266
-0.2537441685076058,8.461809033160197,-6.207498091728834,-14.500905414817007,86.51102419437196,-105.76372233401572
-0.1691260781760038,9.326919275103917,-6.352507145877004,-15.558542638157164,35.01990856072815,-42.83453500271705
-0.07585688542496465,9.677118360711198,-6.508092572258575,-15.986887988184334,-51.251499161084304,66.77524625173439
0.020914298182147337,9.164603369100355,-6.6679614521404185,-15.31913552566699,-109.76562276423697,137.68131679160746
0.11256033187315088,8.066947141457986,-6.821152807397088,-13.942322357750916,-113.61292232975622,134.84076964488307
0.19322980328773076,6.9308179181604235,-6.960576030974598,-12.593914661302085,-96.3413497125667,104.9547217024269
0.262537982469335,5.9674044210347565,-7.086515177587619,-11.544367444277816,-79.3980668575076,76.62731266546487
0.3222120266796826,5.173423752459681,-7.201958852030397,-10.778094317623166,-66.92826426141959,54.78707767332498
0.3739462642042794,4.504141109845485,-7.309739795206628,-10.230223540889916,-58.394891028005674,38.27431832461909
0.41898767530273423,3.9201921995654283,-7.4120420306155275,-9.847480357643725,-52.7524982998946,25.43297778724499
0.4581895972983885,3.3926672165664824,-7.510516834191964,-9.593150579771276,-49.186212353418234,15.031635303297383
0.4921162694640533,2.9008050930323,-7.606448339989677,-9.442834226738302,-47.13002644342474,6.252912026023987
0.5211243203943763,2.429504828598053,-7.70087668225706,-9.380305106478062,-46.184181455113425,-1.422960762819914
0.5454193686803568,1.9676630140469187,-7.79467973332184,-9.39453471410626,-46.040281942655135,-8.303918184896343
0.565095998820826,1.5072601946203674,-7.888625080462902,-9.477573895955224,-46.423606887511646,-14.533277298628025
0.5801686007670296,1.043024125745251,-7.983400819422455,-9.622906668941505,-47.04747619978824,-20.109067430685677
0.5905988420244821,0.5725493637473686,-8.07962988611187,-9.823997343248362,-47.57643707203861,-24.88715674272357
0.5963243356619558,0.09678499302698257,-8.177869859544355,-10.072868910675597,-47.6006765887137,-28.581180568793386
0.5972921855922255,-0.37922177286015446,-8.278598548651111,-10.35868071636353,-46.631293538748345,-30.776661281825618
0.593499967863624,-0.8455347082476379,-8.382185355814746,-10.666447329181786,-44.13293922917782,-30.98199888763796
0.5850446207811476,-1.2868641005394161,-8.488849829106565,-10.976267318058165,-39.61134368462345,-28.73811214340411
0.5721759797757534,-1.6829775373856506,-8.598612502287146,-11.263648439492206,-32.75870260411746,-23.789721351583317
0.5553462044018969,-2.010564563426825,-8.711248986682069,-11.501545653008039,-23.622921859217048,-16.277065480714587
