th1 (rad),w1 (rad/s),th2 (rad),w2 (rad/s),a1 (rad/s^2),a2 (rad/s^2)
2.126989408091107,-1.7225414019312457,1.0277590352157817,0.901775302296634,-8.228824071735664,-2.0086888241405982
2.1097639940717947,-1.8048296426486024,1.036776788238748,0.881688414055228,-8.376543734724882,-1.5736525085013626
2.091715697645309,-1.888595079995851,1.0455936723793002,0.8659518889702144,-8.546377841277378,-1.1110201467858496
2.0728297468453505,-1.974058858408625,1.0542531912690023,0.8548416875023559,-8.739386819381691,-0.6192365494647919
2.053089158261264,-2.061452726602442,1.062801608144026,0.8486493220077079,-8.956741267278499,-0.09671704064167422
2.0324746309952397,-2.151020139275227,1.071288101364103,0.8476821516012912,-9.199709620941698,0.45810620669567875
2.0109644296024873,-2.243017235484644,1.0797649228801158,0.852263213668248,-9.469631001154056,1.046713319003288
1.988534257247641,-2.3377135454961846,1.0882875550167983,0.8627303468582809,-9.767865819570227,1.6703901128656689
1.965157121792679,-2.4353922036918867,1.0969148584853812,0.8794342479869376,-10.095713478882749,2.3300697902307603
1.9408031997557602,-2.536349338480714,1.1057092009652505,0.9027349458892452,-10.454281992001121,3.0261005182302156
1.9154397063709532,-2.6408921584007254,1.1147365504241429,0.9329959510715473,-10.844288195250991,3.7579077016616815
1.8890307847869459,-2.7493350403532353,1.1240665099348583,0.9705750280881641,-11.265759089450208,4.5235082425319675
1.8615374343834135,-2.8619926312477375,1.13377226021574,1.0158101105134838,-11.717594566388644,5.3188197018133945
1.8329175080709361,-2.979168576911624,1.1439303613208749,1.0689983075316178,-12.19693984513331,6.1366908451498965
1.8031258223018198,-3.101137975362957,1.154620344396191,1.1303652159831168,-12.698304296773838,6.965564535830568
1.7721144425481903,-3.2281210183306954,1.1659239965560222,1.2000208613414225,-13.212356968201656,7.78767673680548
1.7398332323648833,-3.360244588012712,1.1779242051694365,1.2778976287094772,-13.724338762809815,8.576712196337041
1.7062307864847561,-3.4974879756408104,1.1907031814565312,1.3636647506728476,-14.212077406547929,9.294907929411854
1.6712559067283481,-3.63960874970629,1.2043398289632596,1.4566138299669662,-14.643708837127338,9.889769967003716
1.6348598192312853,-3.7860458380775635,1.2189059672629292,1.5555115296370035,-14.97544781168009,10.290918963996097
1.5969993608505098,-3.9358003161943644,1.2344610825592992,1.6584207192769644,-15.15016425271313,10.408181069653416
1.5576413576885662,-4.087301958721496,1.2510452897520687,1.7625025299734987,-15.098117131752186,10.132899957332453
1.5167683381013513,-4.238283130039018,1.2686703150518037,1.863831529546823,-14.741823937249096,9.345345034782095
1.474385506800961,-4.385701369411509,1.287308630347272,1.9572849798946441,-14.007223548898875,7.9313415070364774
1.430528493106846,-4.525773604900498,1.3068814801462185,2.036598394965009,-12.842132765343923,5.809569740009281
1.385270757057841,-4.654194932553937,1.3272474640958687,2.094694092365102,-11.239578118073553,2.9660462597138935
1.3387288077323016,-4.766590713734672,1.3481944050195198,2.124354554962241,-9.25821713380755,-0.5154544776695379
1.291062900594955,-4.859172885072748,1.3694379505691423,2.1192000101855455,-7.0279138515183295,-4.44432231408833
1.2424711717442276,-4.929452023587931,1.3906299506709978,2.074756787044662,-4.731031984300958,-8.549201752072705
1.1931766515083484,-4.9767623434309405,1.4113775185414443,1.9892647695239352,-2.5615934890471155,-12.536529982735859
1.143409028074039,-5.0023782783214115,1.4312701662366836,1.8638994696965765,-0.6785813984933605,-16.158407768756618
1.0933852452908248,-5.009164092306345,1.4499091609336494,1.7023153920090104,0.8258301401406242,-19.259863490652453
1.0432936043677614,-5.000905790904938,1.4669323148537394,1.5097167571024859,1.9321643241031472,-21.789276197946133
0.993284546458712,-4.981584147663907,1.4820294824247642,1.2918239951230246,2.677931318015028,-23.77746904024635
0.9434687049820729,-4.954804834483756,1.4949477223759944,1.054049304720561,3.13307037766871,-25.303378239081542
0.8939206566372353,-4.923474130707069,1.5054882154231999,0.8010155223297456,3.3778333648473335,-26.462483812560283
0.8446859153301646,-4.889695797058596,1.5134983706464973,0.5363906842041428,3.4882442478738165,-27.3456152633078
0.7957889573595787,-4.854813354579858,1.5188622774885387,0.26293453157106483,3.5290957128095353,-28.028378810953747
0.7472408238137801,-4.819522397451762,1.5214916228042494,-0.017349256538472635,3.552176173778917,-28.56812678474531
0.6990455998392625,-4.784000635713973,1.5213181302388648,-0.30303052438592576,3.597287613825655,-29.005096342904483
0.6512055934821228,-4.7480277595757165,1.5182878249950056,-0.5930814878149706,3.694327725570387,-29.365287962811948
0.6037253158863657,-4.711084482320013,1.512357010116856,-0.8867343674430901,3.86547269942975,-29.663702795067284
0.5566144710631655,-4.672429755325715,1.503489666442425,-1.183371395393763,4.127034123994532,-29.90730766810762
0.5098901735099084,-4.6311594140857695,1.4916559524884874,-1.4824444720748393,4.4908679935992435,-30.09752564818291
0.46357857936905067,-4.586250734149777,1.476831507767739,-1.7834197285566684,4.965358604196377,-30.232254702552098
0.4177160720275529,-4.536597148107814,1.4589973104821723,-2.0857422755821893,5.556055075462948,-30.30749308298063
0.37235010054647477,-4.481036597353184,1.4381398877263505,-2.3888172064119955,6.266049824829058,-30.31866261154261
0.32753973457294294,-4.4183760991048935,1.4142517156622305,-2.692003832527422,7.096182258397643,-30.261707056367317
0.283355973581894,-4.347414276520917,1.3873316773369564,-2.994620903091095,8.045139582868687,-30.134020837008542
0.23988183081668485,-4.26696288069223,1.3573854683060453,-3.2959611114611804,9.109514953604744,-29.935241815237926
0.19721220200976255,-4.175867731156182,1.3244258571914336,-3.5953135296135597,10.283872495609941,-29.667924240014237
0.15545352469820073,-4.073029006200082,1.288472721895298,-3.891992772013702,11.56085882122229,-29.338095020658955
0.1147232346361999,-3.9574204179878594,1.249552794175161,-4.185373722220292,12.931390717536873,-28.95568835655048
0.07514903045632132,-3.8281065108124905,1.207699056952958,-4.474930605785796,14.384937790816767,-28.534849768286627
0.03686796534819641,-3.6842571329043228,1.1629497508951,-4.760279103468663,15.909906198356788,-28.094099690722935
2.539401915318401e-05,-3.525158070920755,1.1153469598604135,-5.041220100375892,17.494114348486335,-27.656347280621357
-0.03522618669005437,-3.3502169274358913,1.0649347588566547,-5.317783573182105,19.12533255982158,-27.24874420312295
-0.06872835596441329,-3.1589636018376757,1.0117569231248336,-5.590271015213334,20.791834376903434,-26.902361474581046
-0.10031799198279004,-2.9510452580686413,0.9558542129727002,-5.859294629959145,22.48287417986314,-26.65165284426507
-0.12982844456347645,-2.72621651627001,0.8972612666731088,-6.125811158401795,24.18895746262033,-26.533624133808356
-0.15709060972617656,-2.4843269416438067,0.8360031550890908,-6.391147399739879,25.90169477425651,-26.586540417313188
-0.18193387914261464,-2.2253099939012415,0.772091681091692,-6.657012803913011,27.612906745381327,-26.847840558206546
-0.20418697908162706,-1.9491809264474282,0.7055215530525619,-6.9254912094950765,29.312440522681552,-27.350640419630697
-0.22367878834610133,-1.6560565212206126,0.6362666409576112,-7.198997613691383,30.983812625810913,-28.117713159265403
-0.24023935355830744,-1.3462183949625035,0.5642766648206974,-7.480174745284037,32.596237663841144,-29.15103044778221
-0.2537015375079325,-1.020256018324092,0.489474917367857,-7.771685049761859,34.09078101043737,-30.413738125736554
-0.2639040976911734,-0.6793482082197184,0.4117580668702384,-8.075822431019224,35.357387429732476,-31.799925604967154
-0.2706975797733706,-0.32577433392239363,0.33099984256004616,-8.393821687068895,36.19907890912858,-33.08661483227305
-0.2739553231125946,0.03621645516889216,0.24706162568935722,-8.724687835391626,36.282069940834326,-33.86522689138298
-0.27359315856090566,0.39903715457723543,0.15981474733544096,-9.063340104305455,35.08206807006645,-33.46477123736204
-0.2696027870151333,0.7498578352779,0.06918134629238641,-9.397987816679075,31.86874387080537,-30.921613993702003
-0.2621042086623543,1.0685452739859538,-0.02479853187440434,-9.707203956616095,25.827935635373162,-25.129521441068885
-0.25141875592249474,1.3268246303396853,-0.12187057144056529,-9.958499171026784,16.457137963870796,-15.355283259142944
-0.2381505096190979,1.4913960099783934,-0.22145556315083315,-10.112052003618214,4.214475238032644,-2.0984513874922452
-0.22323654951931396,1.5335407623587198,-0.32257608318701525,-10.133036517493135,-9.0782579465551,12.373444584265243
-0.20790114189572675,1.4427581828931688,-0.4239064483619466,-10.009302071650483,-20.84288133147593,24.83563799166706
-0.19347356006679506,1.2343293695784094,-0.5239994690784514,-9.760945691733813,-29.18427793641033,33.0024455521864
-0.18113026637101096,0.9424865902143061,-0.6216089259957895,-9.43092123621195,-33.75934960862346,36.62264992267948
-0.1717054004688679,0.6048930941280715,-0.7159181383579091,-9.064694736985155,-35.37549247409004,36.886260158933936
-0.16565646952758717,0.2511381693871711,-0.8065650857277606,-8.695832135395815,-35.124892450911084,35.26692985171938
-0.16314508783371545,-0.10011075512193973,-0.8935234070817188,-8.343162836878621,-33.8731515143113,32.87653310997753
-0.16414619538493486,-0.4388422702650528,-0.9769550354505051,-8.014397505778845,-32.16099451513455,30.371511477537776
-0.16853461808758538,-0.7604522154163983,-1.0570990105082936,-7.710682391003467,-30.281230552205436,28.07712909712774
-0.17613914024174937,-1.0632645209384526,-1.1342058344183283,-7.429911100032189,-28.3753464515077,26.124350553099035
-0.1867717854511339,-1.3470179854535296,-1.2085049454186503,-7.168667594501199,-26.502735734573932,24.54307997281779
-0.2002419653056692,-1.612045342799269,-1.2801916213636622,-6.923236794773021,-24.681909098660956,23.315346842824155
-0.2163624187336619,-1.8588644337858784,-1.3494239893113924,-6.690083326344779,-22.91296375897341,22.402985836636446
-0.2349510630715207,-2.0879940713756127,-1.4163248225748402,-6.466053467978415,-21.189208097514616,21.761185003599042
-0.25583100378527684,-2.299886152350759,-1.4809853572546243,-6.248441617942424,-19.502896296223945,21.344745932000105
-0.27882986530878445,-2.4949151153129985,-1.5434697734340486,-6.034994158622423,-17.84785568156865,21.110765431734002
-0.3037790164619144,-2.673393672128685,-1.6038197150202729,-5.823886504305083,-16.22049674598366,21.01964525215629
-0.3305129531832013,-2.8355986395885218,-1.6620585800633236,-5.61369005178352,-14.619988731736363,21.035374304654077
-0.3588689395790865,-2.9817985269058855,-1.7181954805811588,-5.403336308736979,-13.048011634066588,21.12553249907396
-0.3886869248481454,-3.1122786432465515,-1.7722288436685285,-5.192080983746239,-11.50830332800185,21.26121548948376
-0.4198097112806109,-3.22736167652657,-1.824149653505991,-4.9794688288514015,-10.006121939742355,21.416956282051746
-0.4520833280458766,-3.3274228959239935,-1.873944341794505,-4.765299266030884,-8.547692684864808,21.570661091392854
-0.4853575570051165,-3.4128998227726415,-1.9215973344548138,-4.549592655116956,-7.139681321043474,21.703551484029
-0.5194865552328429,-3.484296635983076,-1.9670932610059835,-4.332557140276666,-5.7887209124784516,21.800096517820773
-0.5543295215926737,-3.5421838451078607,-2.01041883240875,-4.114556175098459,-4.501008692510011,21.847918810939774
-0.5897513600437523,-3.5871939320329607,-2.0515643941597346,-3.896076986989061,-3.2819825470997874,21.837662700980307
-0.6256232993640819,-3.6200137575039584,-2.090525164029625,-3.677700359979258,-2.1360807738979832,21.762818351169884
-0.6618234369391215,-3.641374565242938,-2.1273021676294177,-3.4600721764675595,-1.066583858932867,21.61950138405146
-0.6982371825915509,-3.6520404038322667,-2.1619028893940935,-3.243877162627045,-0.07553297616756606,21.40619256328789
-0.7347575866298736,-3.6527957335939423,-2.194341661020364,-3.029815236994166,0.8362832035430512,21.12344578820375
-0.771285543965813,-3.644432901558512,-2.2246398133903056,-2.818580779112129,1.6692839648866131,20.773575065743586
-0.8077298729813981,-3.627740061909646,-2.252825621181427,-2.610845028454693,2.4250060358169994,20.360332214850338
-0.8440072736004945,-3.603490001551476,-2.2789340714659736,-2.40724170630619,3.105979203426143,19.888586993785427
-0.8800421736160093,-3.572430209517215,-2.3030064885290353,-2.2083558363683355,3.7155797102153247,19.364020349155705
-0.9157664757111815,-3.5352744124150615,-2.3250900468927185,-2.0147156328767784,4.257872044194565,18.79283982744485
-0.9511192198353321,-3.492695691973116,-2.3452372032214863,-1.82678723460233,4.737448277249752,18.181524129074667
-0.9860461767550632,-3.4453212092006185,-2.3635050755675096,-1.6449719933115832,5.159272403400715,17.536601563477934
-1.0204993888470695,-3.393728485166611,-2.3799547955006255,-1.4696059776768038,5.528535341902918,16.864464985534955
-1.0544366736987356,-3.338443131747582,-2.3946508552773937,-1.3009613278214542,5.8505245331416385,16.17122381574198
-1.0878211050162114,-3.2799378864161657,-2.4076604685556084,-1.1392490896640344,6.130510469539897,15.462592074588748
-1.120620483880373,-3.2186327817207667,-2.419052959452249,-0.9846231689181468,6.373651137633689,14.743810052955764
-1.1528068116975807,-3.15489627034443,-2.4288991911414306,-0.8371850683885892,6.584914238273618,14.019596309259454
-1.184355774401025,-3.0890471279616936,-2.4372710418253165,-0.6969891052959947,6.7690162100725955,13.294126110826724
-1.2152462456806419,-3.0213569658609676,-2.4442409328782766,-0.5640478441877275,6.930376496305368,12.571032177557285
-1.2454598153392515,-2.9520532008979137,-2.449881411320154,-0.4383375224121546,7.073085142389913,11.853423581799737
-1.2749803473482306,-2.8813223494740146,-2.4542647865442753,-0.31980328659415724,7.200881656020865,11.143918845141124
-1.3037935708429709,-2.809313532913806,-2.457462819410217,-0.20836409814274598,7.317143067469643,10.444689587254329
-1.331886706172109,-2.7361421022391097,-2.4595464603916444,-0.10391720227020268,7.424879256177999,9.757511467072888
-1.3592481271945,-2.6618933096773296,-2.4605856324143462,-0.0063420875994738,7.52673382697711,9.083819564886298
-1.3858670602912733,-2.5866259714075586,-2.460649053290341,0.08449610804938917,7.6249890946423395,8.424765749186863
-1.4117333200053488,-2.510376080461135,-2.4598040922098474,0.1687437655412578,7.721574043161741,7.7812759296463225
-1.4368370808099602,-2.4331603400295174,-2.4581166545544346,0.24655652483772103,7.818074444348124,7.1541054041618795
-1.4611686842102554,-2.354979595586036,-2.4556510893060572,0.3180975788793398,7.915744630911194,6.543890760567668
-1.4847184801661157,-2.2758221492769244,-2.452470113517264,0.3835364864850165,8.015520705848687,5.951196998517584
-1.507476701658885,-2.1956669422184376,-2.4486347486524136,0.4430484564701923,8.118035218522024,5.376558707833105
-1.5294333710810695,-2.1144865900332173,-2.4442042640877117,0.4968140435485234,8.223633534517704,4.8205142954308355
-1.5505782369814016,-2.0322502546880403,-2.4392361236522264,0.5450191865028318,8.332392258789618,4.283632416137336
-1.5709007395282821,-1.9489263321001442,-2.433785931787198,0.5878555106642052,8.444140128691117,3.7665299559557046
-1.5903900028492837,-1.864484930813233,-2.427907376680556,0.6255208102237622,8.558481767356673,3.2698811594235035
-1.609034852157416,-1.7789001131396662,-2.4216521685783183,0.6582196218179972,8.674824575301768,2.7944177988306644
-1.6268238532888126,-1.6921518673866485,-2.4150699723601385,0.6861637998063038,8.792408842745793,2.3409206554797133
-1.6437453719626791,-1.6042277789591906,-2.4082083343620755,0.709573006361101,8.91034089933267,1.9102030122957705
-1.659787649752271,-1.5151243699658639,-2.4011126042984645,0.7286750364840587,9.027628803519125,1.5030873191659315
-1.6749388934519296,-1.4248480819306726,-2.393825853933624,0.743705909675718,9.143219741950238,1.1203766501833203
-1.6891873742712362,-1.33341588451117,-2.3863887948368667,0.7549096761775512,9.25603799757952,0.762822978127112
-1.702521533116348,-1.2408555045353749,-2.378839698075091,0.7625379059588223,9.365022094872135,0.4310945944417134
-1.7149300881617016,-1.1472052835866535,-2.371214319015503,0.7668488519032395,9.469159579204014,0.12574515476934794
-1.726402140997568,-1.0525136877946133,-2.3635458304964705,0.768106303450933,9.56751786476745,-0.15281320490199377
-1.7369272778755143,-0.9568385091469388,-2.355864767461961,0.7665781714019131,9.659269705835943,-0.4043304739489098
-1.7464956629669837,-0.8602458120885794,-2.348198985747942,0.762534866662424,9.743712107144226,-0.6287313182762794
-1.7550981210878696,-0.7628086910171371,-2.3405736370813175,0.7562475534796612,9.820277868813532,-0.826118390861428
-1.762726207998041,-0.6646059123290018,-2.333011161546521,0.7479863695710469,9.888539422093675,-0.996765909293769
-1.769372267121331,-0.565720518108065,-2.3255312978508105,0.7380187104781092,9.94820510611677,-1.1411037356372824
-1.7750294723024116,-0.4662384670468973,-2.3181511107460295,0.7266076731217364,9.999108511676555,-1.2596928833583987
-1.7796918569728806,-0.36624738193013173,-2.310885034014812,0.7140107442881524,10.041191929194301,-1.3531939626650349
-1.783354330792182,-0.2658354626381887,-2.3037449265719308,0.700478804661502,10.074485249031337,-1.4223305115758729
-1.7860126854185638,-0.16509061014787532,-2.296740138525316,0.6862554995457433,10.099081852805403,-1.4678494195882392
-1.7876635915200425,-0.0640997916198213,-2.2898775835298584,0.6715770053498609,10.115113100165095,-1.49048073120301
-1.7883045894362408,0.037051339381829654,-2.28316181347636,0.6566721980378307,10.122722966720566,-1.4908990351521663
-1.7879340760424225,0.13827856904903532,-2.2765950914959814,0.641763207686309,10.122044246118362,-1.4696884335630283
-1.786551290351932,0.23949901151021896,-2.270177459419118,0.6270663233506787,10.11317751872554,-1.4273127821590856
-1.78415630023683,0.3406307866974744,-2.263906796185611,0.6127931955290878,10.096173837898002,-1.3640925367352648
-1.780749992369855,0.4415925250764544,-2.2577788642303203,0.5991522701617352,10.071021816000576,-1.2801891659571556
-1.7763340671190906,0.5423027432364602,-2.251787341528703,0.5863503785021636,10.037639524213187,-1.1755977206394639
-1.770911039686726,0.6426791384785921,-2.2459238377436814,0.574594401295769,9.995871364145478,-1.0501477997998905
-1.76448424830194,0.742637852120047,-2.2401778937307237,0.56409292329777,9.945489830803478,-0.903512829743045
-1.7570578697807395,0.8420927504280817,-2.234536964497746,0.5550577950003396,9.886201866435949,-0.7352272734234313
-1.7486369422764587,0.9409547690924412,-2.2289863865477426,0.5477055222661052,9.817659301820692,-0.5447111092561474
-1.7392273945855343,1.0391313621106482,-2.2235093313250816,0.5422584111735438,9.739472694162721,-0.33130065736776737
-1.7288360809644279,1.1365260890522753,-2.2180867472133463,0.5389454045998661,9.651227699468185,-0.09428458611423587
-1.717470820073905,1.233038366046957,-2.2126972931673476,0.5380025587387237,9.552502965945006,0.16705629305247977
-1.7051404364134355,1.3285633957064071,-2.2073172675799606,0.5396731216692485,9.442888411597284,0.453407027932496
-1.6918548024563713,1.42299227982238,-2.201920536363268,0.5442071919485735,9.322002665301342,0.7653760567834065
-1.6776248796581474,1.5162123064753934,-2.196478464443782,0.5518609525164075,9.18950842010418,1.103454078247292
-1.6624627565933936,1.6081073906764352,-2.190959854918618,0.5628954932988804,9.045124484080896,1.4679760594040168
-1.6463816826866293,1.6985586355172442,-2.185330899985629,0.5775752538929206,8.888633428767077,1.8590880650443196
-1.6293960963314569,1.7874449698049149,-2.1795551474467,0.5961661345433639,8.719883933060128,2.276720360001053
-1.6115216466334077,1.8746438091355162,-2.1735934861012662,0.6189333381433744,8.53878719836278,2.7205678929723915
