th1 (rad),w1 (rad/s),th2 (rad),w2 (rad/s),a1 (rad/s^2),a2 (rad/s^2)
4.418642299715903,1.8763415466306996,5.541302533880386,-3.0748117832669863,14.229230942091128,-2.7167119884386572
4.4374057151822095,2.018633856051611,5.510554416047716,-3.1019789031513727,14.537670466872445,-3.6797198849645656
4.457592053742726,2.1640105607203353,5.479534627016203,-3.1387761020010183,14.918085133398321,-4.7230665277446215
4.479232159349929,2.3131914120543184,5.4481468659961925,-3.1860067672784647,15.37455794208345,-5.8505885880390665
4.502364073470472,2.466936991475153,5.416286798323408,-3.2445126531588553,15.909459449314847,-7.063587518866743
4.527033443385224,2.6260315859683017,5.383841671791819,-3.315148528347523,16.5219011849554,-8.35853987138748
4.553293759244907,2.7912505978178554,5.350690186508344,-3.3987339270613974,17.2052451481642,-9.723461059632934
4.581206265223085,2.9633030492994976,5.31670284723773,-3.4959685376577267,17.943217926052885,-11.13228155054151
4.61083929571608,3.1427352285600265,5.281743161861153,-3.607291353163142,18.704078664665122,-12.53645435713668
4.642266648001681,3.3297760152066775,5.245670248329521,-3.7326558967345087,19.432345607991646,-13.853092121073383
4.675564408153748,3.524099471286594,5.2083436893621755,-3.8711868179452424,20.03810623759052,-14.949669691298725
4.7108054028666135,3.724480533662499,5.1696318211827235,-4.02068351485823,20.385528565412848,-15.627583455892907
4.748050208203239,3.9283358193166276,5.129424986034141,-4.176959349417159,20.28574361449147,-15.611889242243347
4.787333566396405,4.131193255461542,5.087655392539969,-4.333078241839592,19.505263023401174,-14.563034087343325
4.82864549895102,4.326245885695554,5.044324610121573,-4.4787085827130255,17.807240275792967,-12.1351320793067
4.871907957807975,4.504318288453484,4.999537524294443,-4.600059903506093,15.040012002546908,-8.101377002620662
4.91695114069251,4.654718408478953,4.953536925259382,-4.6810736735323,11.259692878682321,-2.5282318427471813
4.9634983247773,4.767315337265776,4.9067261885240585,-4.7063559919597715,6.8189841407244645,4.09710971126507
5.011171478149958,4.835505178673021,4.859662628604461,-4.66538489484712,2.32212787546184,10.927445434609899
5.059526529936688,4.858726457427639,4.8130087796559895,-4.556110440501022,-1.5827867538186562,17.046203090038503
5.108113794510965,4.842898589889452,4.767447675250979,-4.385648409600637,-4.452719807998574,21.8182038914279
5.156542780409859,4.798371391809466,4.723591191154973,-4.167466370686357,-6.166711635932831,25.057019450709856
5.204526494327954,4.736704275450138,4.681916527448109,-3.9168961761792587,-6.865497967121829,26.943502634298884
5.251893537082456,4.6680492957789195,4.642747565686316,-3.64746114983627,-6.809886339343645,27.829200306450637
5.298574030040245,4.599950432385483,4.606272954187954,-3.3691691467717635,-6.263886562944897,28.07303725004555
5.3445735343641,4.537311566756034,4.572581262720236,-3.088438774271308,-5.438540441474949,27.9621049682412
5.389946650031661,4.482926162341284,4.541696874977523,-2.808817724588896,-4.481482960494432,27.696137284555157
5.434775911655073,4.43811133273634,4.513608697731635,-2.531856351743344,-3.4874319707877723,27.401285632155247
5.479157024982436,4.403237013028463,4.488290134214202,-2.257843495421792,-2.5134738524462197,27.150746798260098
5.523189395112721,4.378102274504,4.465711699259984,-1.9863360274391908,-1.592327419977705,26.98271994588335
5.56697041785776,4.362179000304223,4.445848338985592,-1.7165088279803573,-0.7419659156932331,26.913400926683497
5.610592207860803,4.3547593411472905,4.428683250705789,-1.4473748187135222,0.028000775388792868,26.945546453408614
5.654139801272276,4.355039348901179,4.414209502518654,-1.1779193541794362,0.7123098026483109,27.073809662088017
5.697690194761288,4.362162446927662,4.402430308976859,-0.907181257558556,1.3076098717998366,27.28793608271249
5.741311819230564,4.37523854564566,4.393358496401273,-0.6343018967314311,1.8110366930549895,27.57461855314714
5.78506420468702,4.39334891257621,4.387015477433959,-0.3585557111999597,2.2194232599287536,27.918546519677935
5.8289976938127825,4.415543145175497,4.3834299203219595,-0.07937024600318038,2.5289094962299226,28.302993934106787
5.873153125264538,4.440832240137796,4.382636217861927,0.20365969333788753,2.7348086516372216,28.710163045787542
5.917561447665916,4.468180326654169,4.384672814795306,0.490761323795763,2.8316458839927585,29.12142054215603
5.962243250932458,4.496496785494096,4.3895804280332635,0.7819755292173233,2.813319222302561,29.51751151811343
6.007208218787399,4.5246299777171215,4.397400183325437,1.0771506443984575,2.6733527992515507,29.87880403069184
6.052454518564571,4.551363505709637,4.408171689769421,1.375938684705376,2.4052223479106294,30.1855949382096
6.097968153621667,4.575415729188744,4.421931076616475,1.677794634087472,2.002737033693136,30.418491705619083
6.143722310913555,4.595443099525675,4.438709022957349,1.9819795511436629,1.4604620994303856,30.558872274524187
6.189676741908811,4.6100477205199795,4.4585288184687855,2.2875682738889047,0.7741651768974652,30.58941468038808
6.235777219114011,4.6177893722889545,4.481404501207675,2.5934624206927857,-0.05873334667460869,30.494679429402602
6.281955112836901,4.617202038822208,4.507339125414603,2.8984092149868115,-1.0387279500798081,30.26172077242897
6.328127133225123,4.60681475932141,4.536323217564472,3.2010264227111014,-2.163837429029452,29.88069815346359
6.374195280818337,4.585176385031116,4.568333481791583,3.499833404245737,-3.4292808440827147,29.34545642715674
6.420047044668648,4.550883576590289,4.60333181583404,3.7932879685173044,-4.827244380081633,28.65404289780457
6.46555588043455,4.502611132789473,4.641264695519213,4.07982839749535,-6.346762250452317,27.80913056979063
6.510581991762445,4.43914351028495,4.682062979494167,4.357919703193256,-7.973732559633282,26.818319822599992
6.554973426865295,4.359406184688617,4.725642176526099,4.626102901419256,-9.691085864464936,25.69429468605059
6.598567488712181,4.262495326043968,4.7719032055402915,4.883045848279762,-11.479119831674327,24.454814894589692
6.6411924419726205,4.147704127727225,4.820733664023089,5.1275939972256595,-13.316007445465061,23.122531216396037
6.682669483249892,4.014544053272575,4.8720096039953456,5.35881930938962,-15.178478178630252,21.724619790789728
6.722814923782618,3.862759271486272,4.9255977970892415,5.576065507297518,-17.042661110799337,20.292242070364598
6.761442516497481,3.6923326603782787,4.981358452162216,5.778987928001164,-18.885066414354046,18.859850858434957
6.798365843101264,3.503481996234738,5.039148331442228,5.967586436585513,-20.683668013306182,17.464379537072574
6.833400663063611,3.296645316101676,5.098824195808083,6.142230231956239,-22.41903752383271,16.14436956151722
6.8663671162246285,3.072454940863349,5.160246498127646,6.303673927571411,-24.075470409560847,14.939108318022525
6.897091665633262,2.8317002367677406,5.2232832374033595,6.453065010751636,-25.64204227023495,13.887862546514814
6.925408668000939,2.575279814065391,5.287813887510876,6.591943636216784,-27.113538187546954,13.029298786564562
6.951161466141593,2.3041444321899216,5.353733323873044,6.72223662408243,-28.49121130793125,12.401179477180982
6.974202910463492,2.019232319110609,5.4209556901138685,6.846248418854239,-29.7833462732499,12.04041018034071
6.994395233654599,1.7213988563781102,5.489418174302411,6.966652520657647,-31.005623859005826,11.983489136267043
7.01160922221838,1.411342617788052,5.559084699508988,7.086487412020317,-32.181297062262175,12.267372881727594
7.02572264839626,1.08952964716543,5.629949573629191,7.209161140837593,-33.34118300800492,12.930713642879455
7.036617944867914,0.7561178170853808,5.702041185037567,7.338468277266387,-34.52342808226849,14.015325729126854
7.044179123038768,0.41088353626269597,5.775425867810231,7.478621534557656,-35.772876971641566,15.56755255645224
7.048287958401395,0.05315476654628032,5.8502120831558075,7.6342970601221785,-37.1395944148473,17.63883200413613
7.048819506066858,-0.3182411776021927,5.9265550537570295,7.81068538016354,-38.675499897680474,20.283984432155425
7.045637094290836,-0.7049961765789975,6.004661907558665,8.013525224485095,-40.426876938162565,23.554147350584618
7.038587132525046,-1.1092649459606232,6.084797159803516,8.24906669799094,-42.41812745330532,27.478026393445383
7.027494483065439,-1.5334462204936763,6.167287826783426,8.523846961925395,-44.617554065024706,32.01878145263486
7.012160020860502,-1.9796217611439233,6.25252629640268,8.844034776451744,-46.867930316893684,36.9825742618905
6.992363803249063,-2.44830106431286,6.340966644167197,9.21386051907065,-48.75380804083968,41.83917200742484
6.967880792605935,-2.935839144721257,6.4331052493579035,9.632252239144899,-49.37611923688032,45.41139061805819
6.938522401158722,-3.42960033709006,6.5294277717493525,10.086366145325481,-47.066398353944614,45.472417000710486
6.904226397787822,-3.900264320629506,6.630291433202608,10.541090315332585,-39.33733132495464,38.65204395219153
6.8652237545815264,-4.293637633879053,6.735702336355933,10.9276107548545,-23.91125107405564,21.80720501576728
6.822287378242736,-4.532750144619609,6.844978443904478,11.145682805012173,-1.557372822069618,-4.1296996832091
6.77695987679654,-4.548323872840305,6.956435271954599,11.104385808180082,21.677814115495277,-31.13316042091548
6.731476638068137,-4.331545731685352,7.0674791300364,10.793054203970927,38.1421192215559,-49.11743320804509
6.688161180751283,-3.9501245394697926,7.17540967207611,10.301879871890476,45.24514917000745,-54.91421906106049
6.648659935356585,-3.497673047769718,7.278428470795014,9.752737681279871,45.647500012329594,-52.31693648933066
6.613683204878888,-3.0411980476464224,7.3759558476078135,9.229568316386565,42.913643427280576,-46.126527378002656
6.583271224402424,-2.6120616133736165,7.4682515307716795,8.768303042606538,39.27676896514629,-39.23433220723983
6.557150608268688,-2.2192939237221534,7.555934561197745,8.37595972053414,35.735160306954214,-32.85350639388134
6.534957669031466,-1.8619423206526111,7.639694158403087,8.047424656595327,32.62730556099351,-27.33466088931455
6.51633824582494,-1.535669265042676,7.72016840496904,7.774078047702181,30.010790649242825,-22.68108660268481
6.500981553174514,-1.2355613585502478,7.797909185446062,7.547267181675333,27.84181972504637,-18.784357567902717
6.488625939589011,-0.957143161299784,7.873381857262816,7.359423605996306,26.049139358979737,-15.516756166985282
6.479054507976013,-0.6966517677099866,7.946976093322778,7.204256044326454,24.56150825660688,-12.762717585138603
6.472087990298913,-0.4510366851439178,8.019018653766043,7.076628868475067,23.316359047154062,-10.426623997853904
6.4675776234474744,-0.2178730946723772,8.089784942450795,6.972362628496528,22.26132329646763,-8.432237772893572
6.465398892500751,0.0047401382922991064,8.15950856873576,6.888040250767593,21.353320354106465,-6.7196892655052185
6.465446293883674,0.21827334183336375,8.228388971243435,6.8208433581125405,20.557029886006013,-5.242169348161049
6.467629027302007,0.4238436406934239,8.29659740482456,6.76842166463093,19.843406660903998,-3.9630151325300083
6.471867463708942,0.6222777073024639,8.36428162147087,6.72879151330563,19.1884385653252,-2.8533341166467476
6.478090240781967,0.8141620929557158,8.431569536603925,6.700258172139162,18.572175820475895,-1.8901279344735666
6.4862318617115235,0.9998838511604748,8.498572118325317,6.681356892794427,17.977999889520518,-1.0548292758373226
6.496230700223128,1.17966385005568,8.565385687253261,6.670808600036054,17.39208501231593,-0.3321665297226651
6.508027338723685,1.3535847001788393,8.632093773253622,6.667486934738827,16.803005625447167,0.2907137579431108
6.521563185725474,1.521614756433311,8.69876864260101,6.670394072318258,16.20144810251523,0.8249190946026863
6.5367793332898065,1.6836292374584632,8.765472583324193,6.678643263264285,15.5799912608207,1.280315373687371
6.553615625664391,1.8394291500666702,8.832259015956836,6.691446417001159,14.932925731901763,1.6658892576987165
6.572009917165058,1.9887584073856879,8.899173480126848,6.708105309578146,14.256087476247062,1.9899864867076698
6.591897501238915,2.1313192821481586,8.96625453322263,6.728005174445222,13.546685676530466,2.2604390164693164
6.613210694060396,2.266786138913463,9.033534584967082,6.750609564609915,12.803110242373636,2.484591515183865
6.635878555449531,2.3948172413371993,9.101040680613181,6.775455479761754,12.024709379872114,2.66923745895464
6.659826727862903,2.5150643351359205,9.1687952354108,6.8021478543513005,11.21153315884623,2.820476348405112
6.684977371214262,2.6271796667243827,9.236816713954312,6.830352617835351,10.364044656071448,2.9435059178400564
6.711249167881506,2.7308201132850973,9.305120240132664,6.859787677013752,9.482805877051856,3.042366160312186
6.738557369014357,2.8256481720556157,9.373718116902802,6.890211338616873,8.568151040761574,3.119655170476173
6.766813850734913,2.9113296824632315,9.442620230288972,6.9214078903216345,7.619864754903732,3.1762399676747295
6.795927147559545,2.987528330012269,9.511834309192189,6.953170289998382,6.636886985389755,3.210988515017853
6.825802430859667,3.0538971998661664,9.581366012092172,6.98528017514856,5.617070477962487,3.2205521408157067
6.856341402858329,3.110067904645791,9.651218813843657,7.017485696556717,4.557019391438328,3.1992305904984444
6.887442081904787,3.1556380985601744,9.721393670809224,7.049478002461702,3.4520402338171636,3.138954977498662
6.9189984628903884,3.190158500898346,9.791888450833842,7.080867552236688,2.2962373868489148,3.0294266218931702
6.950900047899372,3.2131208747668354,9.862697126356208,7.11116181845562,1.082784755253102,2.8584512492329126
6.983031256647041,3.2239487223193666,9.933808744540764,7.139746330947949,-0.19559901490214854,2.6125065531534193
7.015270743870235,3.221992732170345,10.005206207850243,7.165871396479483,-1.5459537549161224,2.277574105261307
7.047490671191938,3.206533194621184,10.076864921815037,7.188647137532096,-2.9741586520835455,1.8402507475606666
7.07955600313815,3.1767916081003484,10.148751393190357,7.207049645007703,-4.483817169700357,1.289126642470433
7.111323919219154,3.131953436403345,10.220821889640435,7.219940911432407,-6.075010334961973,0.6163750667203586
7.1426434535831875,3.071203333053725,10.29302129875476,7.226104662099611,-7.743029452278785,-0.18055608743796464
7.173355486913724,2.993773038530937,10.365282345375755,7.224299101225231,-9.477248417551404,-1.0973230608972104
7.203293217299033,2.899000554355423,10.437525336388008,7.213325870616259,-11.26033568739973,-2.1213631763578364
7.232283222842588,2.7863971974814254,10.509658595094171,7.192112238852681,-13.068020702945848,-3.2311294097125374
7.260147194817402,2.655716990451967,10.581579717482699,7.159800944755555,-14.869602697245098,-4.396128311629708
7.286704364721921,2.507020963479516,10.653177726930254,7.115839661639258,-16.629310650948824,-5.577932680736638
7.311774574356717,2.3407278569700276,10.724336123546646,7.060060334831892,-18.30849423827962,-6.732204087441894
7.335181852926417,2.1576429145872313,10.794936726894965,6.992738293957473,-19.868467603690114,-7.811581533528763
7.356758282072289,1.9589582385503301,10.86486410983454,6.914622478622185,-21.27367801499047,-8.769111159635232
7.3763478644577924,1.7462214584004254,10.934010334620762,6.826931367025833,-22.494773804448307,-9.561758357415822
7.393810079041796,1.5212737203559423,11.00227964829102,6.731313783451674,-23.511135240907514,-10.153501060031484
7.409022816245356,1.2861623679468672,11.069592786125538,6.62977877285136,-24.3125184590608,-10.517569439552693
7.421884439924825,1.0430371833562593,11.135890573854052,6.524603078455833,-24.89962606166759,-10.63755673408273
7.4323148117583875,0.7940409227395834,11.201136604638611,6.418227511115005,-25.283614178756753,-10.507333609570315
7.440255220985783,0.5412047809520159,11.265318879749762,6.313154175019302,-25.48472286599634,-10.129897814455331
7.445667268795304,0.28635755229205245,11.328450421499955,6.211855196874748,-25.530334202551543,-9.515434331509706
7.448530844318224,0.03105421026653704,11.390568973468703,6.116700853559651,-25.452802947384754,-8.678924548547476
7.44884138642089,-0.22347381920731052,11.4517359820043,6.029911608074176,-25.287375179533893,-7.6376283485517815
7.4466066482288165,-0.47634757100264946,11.512035098085041,5.953535324588659,-25.07043463758394,-6.408691978356941
7.44184317251879,-0.7270519173784888,11.571570451330928,5.889448404805089,-24.83822334590145,-5.00703619126439
7.434572653345005,-0.9754341508375033,11.630464935378978,5.839378042892445,-24.626097013673867,-3.4435795902866144
7.4248183118366295,-1.221695120974242,11.688858715807902,5.804942246989579,-24.46831165102766,-1.7237684839100522
7.412601360626887,-1.4663782374845185,11.746908138277798,5.787704562150478,-24.398301068030623,0.15367591622306398
7.397937578252042,-1.7103612481648247,11.804785183899302,5.7892413213127085,-24.44939312403361,2.197919864653109
7.380833965770393,-1.9548551794051607,11.862677597112429,5.81122051995924,-24.655918939501618,4.427234878883733
7.361285413976342,-2.201414368800177,11.92078980231202,5.855492868748077,-25.054684147297426,6.870419965316633
7.33927127028834,-2.451961210273151,11.979344730999502,5.924197068401243,-25.686781453508356,9.568561062626625
7.3147516581856085,-2.7088290248082347,12.038586701683515,6.01988267902751,-26.599707359654353,12.577205750817079
7.287663367937526,-2.9748260984047783,12.09878552847379,6.145654736535681,-27.84965854791308,15.968884153794578
7.257915106953479,-3.2533226838839093,12.160242075839147,6.305343578073627,-29.503626503024854,19.83553530806024
7.225381880114639,-3.548358948914158,12.223295511619883,6.503698931154229,-31.640255798783823,24.28948996192103
7.189898290625498,-3.864761506901996,12.288332500931425,6.746593830773439,-34.346858810379096,29.459488625113362
7.151250675556478,-4.208230095005787,12.355798439239159,7.041188717024573,-37.706292749692345,35.473109516932
7.109168374606421,-4.58529302250271,12.426210326409405,7.395919812193893,-41.75897947149101,42.40526415057912
7.063315444381394,-5.00288281721762,12.500169524531344,7.819972453699684,-46.40701006911085,50.14679054452543
7.013286616209218,-5.466952917908729,12.578369249068341,8.321440359144939,-51.19196839060656,58.097547243785634
6.958617087030131,-5.978872601814794,12.661583652659791,8.902415831582795,-54.83299546446018,64.52420647944773
6.898828361011983,-6.527202556459397,12.75060781097562,9.547657896377272,-54.464939468242875,65.4944130508068
6.833556335447389,-7.071851951141825,12.846084389939392,10.20260202688534,-45.13276884798977,54.155344067873564
6.7628378159359706,-7.523179639621723,12.948110410208246,10.744155467564077,-21.99232478900834,23.76897713313828
6.6876060195397535,-7.743102887511807,13.055551964883886,10.98184523889546,12.057322404007799,-21.69488531000474
6.610174990664635,-7.622529663471728,13.165370417272841,10.764896385795412,42.15456735227486,-61.740481760537875
6.533949694029918,-7.20098398994898,13.273019381130796,10.147491568190032,55.854975271918484,-79.34278667604626
6.461939854130428,-6.642434237229795,13.374494296812696,9.35406370142957,55.50945705597319,-77.93082267325008
6.39551551175813,-6.087339666670062,13.468034933826992,8.574755474697069,49.16393499989488,-68.6190522767527
6.334642115091429,-5.595700316671113,13.553782488573964,7.888564951929542,41.80027693985752,-58.17999443985769
6.278685111924719,-5.177697547272538,13.632668138093258,7.306765007530965,35.21371712934722,-48.98813292419106
6.226908136451994,-4.825560375979066,13.705735788168568,6.816883678289054,29.769011389538136,-41.47636236280142
6.178652532692203,-4.527870262083685,13.773904624951458,6.40212005466104,25.37170456142548,-35.471123492300954
6.133373830071366,-4.27415321646943,13.837925825498068,6.04740881973803,21.828122591410477,-30.67894150904403
6.090632297906672,-4.0558719905553255,13.89839991369545,5.74061940464759,18.95488800916368,-26.830181072325356
6.050073578001119,-3.866323110463689,13.955806107741925,5.472317593924336,16.60374196843874,-23.708838381795783
