th1 (rad),w1 (rad/s),th2 (rad),w2 (rad/s),a1 (rad/s^2),a2 (rad/s^2)
3.337884203029447,-0.49051242672678014,4.081061055211021,-2.7046393066817265,2.1038713295565006,6.1990684501030975
3.332979078762179,-0.46947371343121513,4.054014662144203,-2.6426486221806953,1.828545011844114,6.232716781917516
3.328284341627867,-0.451188263312774,4.027588175922396,-2.58032145436152,1.5660712320675518,6.261006633744373
3.323772458994739,-0.4355275509920985,4.001784961378781,-2.5177113880240762,1.3165657480632122,6.283738889822196
3.319417183484818,-0.42236189351146636,3.9766078474985402,-2.454873999125854,1.0800893556035933,6.300709210327604
3.3151935645497033,-0.41156099995543044,3.9520591075072815,-2.391866907022578,0.8566417761582461,6.31172843040327
3.3110779545501487,-0.402994582193848,3.9281404384370555,-2.3287496227185454,0.6461559064830296,6.316641262812033
3.30704800872821,-0.39653302312901767,3.90485294220987,-2.265583210090425,0.4484928938678318,6.3153427858513655
3.30308267849692,-0.39204809419033937,3.882197110108966,-2.202429782231911,0.26343844740637556,6.307792259597306
3.2991621975550163,-0.3894137097162756,3.8601728122866468,-2.139351859635938,0.09070071686312225,6.294023908315705
3.2952680604578535,-0.38850670254764436,3.8387792936902874,-2.076411620552781,-0.07009002814490388,6.2741544289667965
3.291382993432377,-0.3892076028290934,3.8180151774847597,-2.013670076263113,-0.219379797565963,6.248387126091812
3.287490917404086,-0.391401400804753,3.7978784767221287,-1.9511862050021949,-0.3576873536706046,6.21701272094754
3.2835769033960385,-0.39497827434145905,3.7783666146721067,-1.8890160777927194,-0.4855988629778415,6.180407025763002
3.279627120652624,-0.3998342629712375,3.7594764538941794,-1.8272120075350893,-0.6037609312582165,6.139025801297757
3.2756287780229116,-0.40587187228381966,3.7412043338188283,-1.7658217495221118,-0.7128723038459177,6.093397218243269
3.2715700593000734,-0.41300059532227884,3.7235461163236074,-1.7048877773396791,-0.8136745675088785,6.044112414008291
3.2674400533468506,-0.4211373409973676,3.706497238550211,-1.6444466531995963,-0.9069422178001956,5.991814672971029
3.263228679936877,-0.43020676317536954,3.690052772018215,-1.584528506469886,-0.9934724576166615,5.937187760625642
3.2589266123051233,-0.44014148775153616,3.6742074869535157,-1.5251566288636296,-1.0740750712787148,5.880943913426157
3.2545251974276077,-0.4508822384643233,3.6589559206648796,-1.466347189729368,-1.1495626781236055,5.823811932032489
3.2500163750429643,-0.46237786524555935,3.644292448767586,-1.408109070409043,-1.220741615655812,5.76652575297809
3.245392596390509,-0.4745852814021175,3.6302113580634954,-1.3504438128792622,-1.2884036403263006,5.709813789892687
3.240646743576488,-0.4874693178053805,3.616706919934703,-1.2933456749803354,-1.3533185693387781,5.654389247412155
3.235772050398434,-0.5010025034987683,3.6037734631848997,-1.2368017825062139,-1.4162279241101634,5.600941524969913
3.2307620253634464,-0.5151647827398699,3.5914054453598374,-1.1807923672565148,-1.4778395787482839,5.550128748673642
3.225610377536048,-0.5299431785273527,3.579597521687272,-1.1252910797697784,-1.5388233676505538,5.50257140086007
3.220310945750774,-0.5453314122038583,3.568344610889574,-1.0702653657611776,-1.5998075664989364,5.45884696069969
3.2148576316287354,-0.5613294878688476,3.5576419572319624,-1.0156768961541807,-1.6613761310206792,5.419485426159485
3.209244336750047,-0.5779432491790544,3.5474851882704206,-0.9614820418925858,-1.7240665576625425,5.3849655575101
3.2034649042582566,-0.5951839147556798,3.537870367851495,-0.9076323863174848,-1.7883682190443206,5.355711664486857
3.1975130651106998,-0.613067596946123,3.52879404398832,-0.8540752696726162,-1.8547210236900284,5.332090751896474
3.1913823891412387,-0.6316148071830233,3.520253291291594,-0.8007543621536514,-1.9235142529681144,5.314409840489636
3.1850662410694084,-0.6508499497127045,3.5122457476700575,-0.747610263748755,-1.9950854373610238,5.302913289962553
3.1785577415722814,-0.6708008040863147,3.50476964503257,-0.6945811308491295,-2.0697191482661683,5.297779967910331
3.171849733531418,-0.6914979955689764,3.4978238337240786,-0.6416033311700262,-2.14764559989428,5.299120131663391
3.1649347535757286,-0.7129744515679192,3.4914078004123783,-0.5886121298533923,-2.2290389781471633,5.306971918794856
3.1578050090600494,-0.7352648413493909,3.4855216791138446,-0.5355424106654437,-2.314015439571034,5.321297376652583
3.1504523606465553,-0.7584049957451012,3.48016625500719,-0.4823294368989179,-2.4026307537728657,5.341978001807891
3.142868310689104,-0.7824313032828298,3.475342960638201,-0.428909656880839,-2.494877597396838,5.36880980729056
3.135043997656276,-0.8073800792567982,3.4710538640693924,-0.3752215588079334,-2.5906825472803052,5.401497989416478
3.126970196863708,-0.8332869047296013,3.467301648481313,-0.32120657891376864,-2.6899028650518124,5.439651327287331
3.118637327816412,-0.8601859333801194,3.4640895826921754,-0.2668100656408953,-2.7923232152378685,5.4827765166334625
3.110035468482611,-0.8881091655324981,3.4614214820357665,-0.21198230047456068,-2.897652513467911,5.530272714867541
3.101154376827286,-0.9170856906671772,3.459301659031021,-0.15667957332588528,-3.0055211594351903,5.581426654263466
3.091983519920614,-0.947140902261529,3.457734863297762,-0.10086530678325062,-3.115478968714444,5.635408761904572
3.0825121108979987,-0.9782956919486735,3.4567262102299297,-0.0445112191642049,-3.2269941749332784,5.691270803527327
3.072729153978512,-1.0105656336980062,3.4562810980382874,0.012401488871068372,-3.33945392426396,5.7479456366473505
3.062623497641532,-1.0439601729406458,3.456405112926998,0.06988094523754187,-3.4521667213230827,5.8042497072666395
3.0521838959121252,-1.0784818401538767,3.4571039223793734,0.12792344231020827,-3.5643673014778696,5.858888942908036
3.0413990775105866,-1.1141255131686554,3.4583831568024754,0.18651233173928863,-3.675224390351585,5.910468670166446
3.0302578223789,-1.1508777570721713,3.460248280119868,0.2456170184409531,-3.7838517578011834,5.957508104532514
3.018749044808178,-1.1887162746501831,3.462704450304278,0.30519209948627823,-3.889322872507331,5.998459812405484
3.0068618820616764,-1.2276095033752565,3.4657563712991406,0.36517669761033306,-3.990689308762396,6.031734322043401
2.994585787027924,-1.2675163964628804,3.4694081382752437,0.4254940408307671,-4.087002847653296,6.0557297600586235
2.9819106230632952,-1.3083864249394133,3.4736630786835514,0.48605133843135334,-4.177340955564011,6.06886602034597
2.968826758813901,-1.3501598344950534,3.478523592067865,0.546739998634813,-4.260835026731482,6.069622551743547
2.9553251604689503,-1.3927681847623683,3.483990992054213,0.6074362241522485,-4.336700465297734,6.056578410432346
2.941397478621327,-1.4361351894153456,3.4900653542957354,0.668002008256572,-4.404267386090652,6.028452805917712
2.9270361267271734,-1.4801778632762521,3.496745374378301,0.7282865363157491,-4.463010468533304,5.984144026673239
2.912234348094411,-1.5248079679615851,3.5040282397414586,0.7881279765824816,-4.512576342902438,5.922764416960573
2.896986268414795,-1.5699337313906094,3.5119095195072836,0.8473556207520873,-4.552806857141489,5.843669038144434
2.8812869311008886,-1.6154617999620242,3.5203830757148045,0.9057923111335315,-4.583756689786628,5.746475819338164
2.8651323131012685,-1.6612993668598905,3.5294409988261397,0.9632570693269131,-4.605704048106752,5.631075393422074
2.8485193194326697,-1.7073564073409582,3.5390735695194087,1.0195678232611338,-4.61915360759843,5.497629406293488
2.83144575535926,-1.7535479434169425,3.54926924775202,1.0745441173240686,-4.624831375466435,5.346556830455677
2.8139102759250907,-1.7997962571716069,3.5600146889252606,1.1280096856286255,-4.623671744436094,5.178508634125906
2.7959123133533748,-1.8460329746159678,3.571294785781547,1.1797947719698845,-4.616797580826325,4.994331963996443
2.777451983607215,-1.892200950424231,3.5830927335012457,1.2297380916098488,-4.605494697477108,4.795025702146758
2.7585299741029727,-1.938255897399002,3.595390114417344,1.2776883486313164,-4.591182442077183,4.581689777117583
2.7391474151289827,-1.984167721819774,3.6081669979036572,1.3235052464024923,-4.575382346736503,4.355470893231245
2.7193057379107852,-2.029921545287139,3.6214020503676823,1.3670599553348048,-4.559686820617296,4.117507371492003
2.699006522457914,-2.075518413493312,3.6350726499210304,1.408235029049725,-4.545729733576667,3.8688755847888583
2.678251338322981,-2.1209757108290783,3.6491550002115276,1.4469237848976135,-4.5351604652625745,3.6105400639012033
2.65704158121469,-2.166327315481704,3.6636242380605037,1.4830291855366255,-4.52962262501492,3.3433088128463777
2.635378308059873,-2.2116235417318535,3.67845452991587,1.5164622736650892,-4.530738232877318,3.067794774130435
2.6132620726425544,-2.256930924060627,3.6936191526525213,1.5471402214063936,-4.540097738155012,2.78438379478589
2.590692763401948,-2.302331901442177,3.7090905548665853,1.5749840593542526,-4.55925587761908,2.493208918944485
2.5676694443875263,-2.3479244602183678,3.7248403954601277,1.5999161485436975,-4.589733066530608,2.194130411319393
2.5441901997853424,-2.3938217908836736,3.7408395569455646,1.6218574526568914,-4.633021784471964,1.8867206194503465
2.520251981876506,-2.4401520087283934,3.7570581314721334,1.6407246588513948,-4.69059726444248,1.5702526159244954
2.495850461789222,-2.487057981372818,3.7734653780606475,1.6564271850106398,-4.763931707829104,1.243691518119613
2.470979881975494,-2.534697298451109,3.7900296499107538,1.6688641001918358,-4.85451121291013,0.9056874485119666
2.4456329089909827,-2.5832424105802105,3.806718290912672,1.6779209746769554,-4.9638545998153605,0.5545692574767955
2.419800484885181,-2.632880956578364,3.8234975006594416,1.6834666672517233,-5.093533318086755,0.18833836929097544
2.393471675319397,-2.683816289759232,3.840332167331959,1.685350050944633,-5.245191611782931,-0.1953375772527545
2.3666335124218048,-2.736268205877061,3.857185667841405,1.6833966751721055,-5.420566069586207,-0.59913123982418
2.3392708303630343,-2.790473866572923,3.874019634593126,1.6774053627738637,-5.6215035821913535,-1.0260617183742275
2.311366091697305,-2.8466889023948365,3.8907936882208647,1.6671447455901214,-5.849976544903894,-1.4794992568189635
2.2828992026733563,-2.9051886678438756,3.907465135676766,1.6523497530219318,-6.108093857632574,-1.9631667314741275
2.2538473159949177,-2.966269606420201,3.9239886332069855,1.6327180857071906,-6.398105863878482,-2.481135300921345
2.224184619930716,-3.030250665058986,3.9403158140640575,1.607906732697977,-6.722400810371738,-3.0378105234557253
2.193882113280126,-3.0974746731627034,3.9563948813910375,1.5775286274634197,-7.083489675423277,-3.6379039160011937
2.162907366548499,-3.168309569916936,3.9721701676656718,1.5411495883034079,-7.4839752862122735,-4.286383281583401
2.1312242708493296,-3.243149322779059,3.987581663548706,1.498285755487574,-7.926500512608869,-4.988393131234841
2.098792777621539,-3.3224143279051477,4.002564521103581,1.4484018241752254,-8.413668998470593,-5.749134159045903
2.0655686343424877,-3.4065510178898535,4.017048539345334,1.3909104825847665,-8.947930420245962,-6.573688040707265
2.031503124163589,-3.496030322092313,4.030957644171181,1.3251736021776939,-9.53142076177218,-7.466770959581254
1.9965428209426659,-3.591344529710035,4.044209380192958,1.2505058925818813,-10.16574677920647,-8.432396522105861
1.9606293756455655,-3.6930019975020993,4.056714439118777,1.1661819273608227,-10.851703064301146,-9.47342664654285
1.9236993556705444,-3.801519028145111,4.0683762583923855,1.0714476608953942,-11.588910460027432,-10.590988469064758
1.8856841653890932,-3.9174081327453854,4.07909073500134,0.9655377762047467,-12.375366846257261,-11.7837376085709
1.8465100840616393,-4.0411618012079575,4.0887461127633875,0.8477004001190377,-13.206906558100894,-13.046955047466152
1.8060984660495598,-4.173230866788966,4.097223116764578,0.7172308496443762,-14.07657418233611,-14.371478631504376
1.7643661573816702,-4.313996608612327,4.104395425261022,0.5735160633293325,-14.973933444069345,-15.742493147922032
1.7212261912955469,-4.46373594305302,4.110130585894315,0.41609113185011215,-15.884353159174577,-17.138237048922893
1.6765888318650166,-4.622579474644766,4.114291497212816,0.2447087613608832,-16.788339469051472,-18.528729573394248
1.630363037118569,-4.790462869335281,4.116738584826425,0.05942146562694073,-17.661014390578423,-19.874676632331767
1.582458408425216,-4.967073013241065,4.1173327994826945,-0.13932530069637694,-18.47186962477166,-21.126769835148473
1.5327876782928054,-5.151791709488782,4.1159395464757305,-0.3505929990478617,-19.184942469071633,-22.225636707363076
1.4812697611979175,-5.3436411341794985,4.1124336164852515,-0.5728493661214924,-19.759555555024352,-23.102711910414847
1.4278333498561226,-5.541236689729742,4.106705122824037,-0.8038764852256408,-20.1517219098367,-23.68225731219084
1.3724209829588252,-5.742753908828109,4.098666357971781,-1.0406990583475493,-20.31623474759965,-23.884646827942895
1.3149934438705442,-5.9459162563041055,4.088259367388305,-1.2795455266269782,-20.209342823444732,-23.630850386799565
1.2555342813075032,-6.148009684538553,4.075463912122036,-1.515854030494974,-19.791779933309318,-22.84782711523878
1.1940541844621178,-6.345927483871646,4.060305371817086,-1.7443323016473617,-19.031810486431745,-21.474326400876475
1.1305949096234014,-6.536245588735964,4.042862048800613,-1.9590755656561265,-17.907916996374116,-19.46646837427302
1.0652324537360418,-6.715324758699706,4.0232712931440515,-2.1537402493988567,-16.410820959227078,-16.80249207114905
0.9980792061490448,-6.879432968291976,4.001733890650063,-2.321765170110347,-14.544692712561845,-13.486234603896783
0.929284876466125,-7.024879895417595,3.9785162389489592,-2.456627516149315,-12.327621639441402,-9.549187153038208
0.8590360775119491,-7.148156111812009,3.953949963787466,-2.552119387679697,-9.791605653359515,-5.051255546783243
0.787554516393829,-7.246072168345604,3.928428769910669,-2.6026319431475295,-6.9823943532073836,-0.08050875430796217
0.7150937947103729,-7.315896111877678,3.9024024504791934,-2.603437030690609,-3.959430183656989,5.247861882575266
0.6419348335915962,-7.355490413714248,3.8763680801722873,-2.5509584118648565,-0.795878681394407,10.793434269198002
0.5683799294544537,-7.363449200528192,3.8508584960536387,-2.4430240691728766,2.421611814594002,16.393774339687514
0.49474543744917177,-7.339233082382252,3.82642825536191,-2.2790863257760017,5.594108141249239,21.869819721473714
0.42135310662534925,-7.28329200096976,3.8036373921041498,-2.0603881285612644,8.613386450838753,27.034342933580252
0.34852018661565165,-7.197158136461372,3.783033510818537,-1.790044699225462,11.36739102426339,31.70399897812679
0.2765486052510379,-7.083484226218738,3.765133063826282,-1.473004709444194,13.748262641175293,35.71450203331681
0.20571376298885052,-6.946001599806985,3.7504030167318403,-1.115859689111026,15.662162466314088,38.9371528164589
0.1362537469907807,-6.789379975143844,3.73924441984073,-0.726488160946437,17.03919690531057,41.293726542872605
0.06835994723934224,-6.6189880060907385,3.7319795382312657,-0.3135508955177109,17.841197842979074,42.7662575840872
0.002170067178434862,-6.440576027660947,3.7288440292760887,0.1141116803231611,18.065290323544996,43.398979750172856
-0.062235693098174616,-6.259923124425497,3.7299851460793203,0.5481014778248896,17.742154632314197,43.29154716124856
-0.12483492434242958,-6.082501578102355,3.735466160857569,0.9810169494373753,16.929327103171026,42.58500708642499
-0.18565994012345313,-5.9132083070706445,3.745276330351943,1.4068670203016251,15.701188588900996,41.44385604012627
-0.24479202319415957,-5.7561964211816345,3.7593450005549593,1.8213055807028877,14.13793817822348,40.03815643013959
-0.3023539874059759,-5.6148170393994,3.7775580563619884,2.2216871450042834,12.315675800123646,38.52902570421548
-0.3585021577999699,-5.491660281398163,3.7997749278120314,2.6069774020464385,10.298947365921459,37.059331667914805
-0.41341876061395155,-5.388670807738948,3.8258447018324957,2.9775707187255867,8.136160380295484,35.74985524451473
-0.46730546869134104,-5.3073092039359935,3.8556204090197514,3.3350692711707337,5.857517731755589,34.7000549156339
-0.520378560730701,-5.248734026618438,3.888971101731459,3.6820698203270728,3.4747072429843295,33.99206827489132
-0.5728659009968854,-5.213986954188595,3.92579179993473,4.021990503075986,0.9815059525654722,33.69660295803454
-0.6250057705387714,-5.204171894662941,3.9660117049654895,4.3589565326563315,-1.6453951731981067,33.87965616480462
-0.6770474894854008,-5.220625846394922,4.009601270292053,4.697753094304378,-4.445764307491859,34.609307998683626
-0.72925374794935,-5.26508348946984,4.056578801235096,5.043846174291215,-7.47543000676642,35.96193391154375
-0.7819045828440485,-5.339837789537505,4.107017262978008,5.403465513406652,-10.80552284842397,38.02680505153025
-0.8353029607394236,-5.447893018021745,4.161051918112075,5.783733563921954,-14.519561356063804,40.90668438842416
-0.889781890919641,-5.593088631582383,4.2188892537512945,6.192800407806196,-18.703937849911146,44.708536737285485
-0.9457127772354648,-5.780128010081494,4.280817257829357,6.639885775179051,-23.421384435828326,49.51026677831326
-1.0035140573362797,-6.0143418544397775,4.347216115581148,7.134988442962184,-28.643809896491547,55.27107424257181
-1.0636574758806776,-6.300779953404693,4.418566000010769,7.687699185387903,-34.094094104029764,61.61556084380884
-1.1266652754147246,-6.641720894444991,4.495442991864649,8.303854793825991,-38.90399133682078,67.36203261652757
-1.1930824843591745,-7.030760807813199,4.578481539802909,8.977475119991267,-40.98673881149418,69.65202605849879
-1.2633900924373065,-7.4406281959281415,4.668256291002821,9.673995380576255,-36.3268961289869,62.95958784686617
-1.337796374396588,-7.80389715721801,4.764996244808584,10.303591259044916,-19.71928556316008,40.11232315238938
-1.415835345968768,-8.00109001284961,4.868032157399033,10.70471449056881,9.805449742182025,-0.16758199123276535
-1.4958462460972641,-7.90303551542779,4.975079302304721,10.703038670656483,41.630061178511475,-43.091862370452496
-1.574876601251542,-7.486734903642676,5.082109689011285,10.272120046951958,60.59718372626448,-67.74237952946568
-1.6497439502879687,-6.88076306638003,5.184830889480805,9.594696251657302,63.917589333644244,-70.52096779001631
-1.718551580951769,-6.2415871730435875,5.280777851997378,8.88948657375714,58.928989235653724,-61.76830630881733
-1.780967452682205,-5.65229728068705,5.369672717734949,8.271803510668967,51.903719796330556,-50.178165268733586
-1.8374904254890756,-5.133260082723745,5.452390752841639,7.770021857981631,45.48223666141288,-39.348258965507654
-1.888823026316313,-4.678437716109617,5.530090971421456,7.376539268326555,40.333546431407,-30.145981560369297
-1.9356074034774091,-4.275102251795547,5.603856364104721,7.075079452722862,36.43510792623335,-22.494393666419377
-1.9783584259953646,-3.910751172533213,5.674607158631949,6.8501355160586685,33.593411936075675,-16.090773592309596
-2.0174659377206967,-3.574817053172456,5.743108513792536,6.689227780135573,31.609747670503584,-10.632715999144615
-2.0532141082524213,-3.25871957646742,5.810000791593891,6.582900620144127,30.32083804527065,-5.872756903845318
-2.0858013040170955,-2.955511196014714,5.875829797795332,6.524173051105674,29.60095679836614,-1.6215166258989486
-2.1153564159772427,-2.6595016280310526,5.941071528306389,6.507957884846684,29.354096908477896,2.2613118832279775
-2.141951432257553,-2.365960658946274,6.006151107154856,6.530571003678964,29.504749076056928,5.876339727983403
-2.1656110388470156,-2.0709131681857045,6.071456817191645,6.589334400958798,29.98938158445568,9.29122662435324
-2.1863201705288726,-1.7710193523411477,6.137350161201233,6.68224666720233,30.74876314399409,12.544427560131648
-2.2040303640522843,-1.4635317209012069,6.204172627873256,6.807690942803647,31.720803841326585,15.646285635984256
-2.2186656812612964,-1.146323682487941,6.272249537301293,6.96415379916349,32.833632247572126,18.578013857438886
