th1 (rad),w1 (rad/s),th2 (rad),w2 (rad/s)
3.851914607867333,2.338941686136242,0.6713300919412831,1.3704049078821956
3.8753040247286954,2.4043383070343287,0.6850341410201051,1.3726605113119281
3.8993474077990387,2.4716028595769033,0.6987607461332244,1.3750279996996049
3.9240634363948077,2.54066062505923,0.7125110261302204,1.3773234840677122
3.9494700426454,2.6114170119799436,0.7262842609708976,1.3793284726492323
3.9755842127651992,2.6837557422453555,0.7400775456973899,1.3807870465441479
4.002421770187653,2.757537098400014,0.7538854161628314,1.381403184542387
4.029997141171654,2.8325963006595587,0.7676994480082553,1.3808383535308386
4.05832310417825,2.9087420987774006,0.7815078315435636,1.3787095055702596
4.087410525166024,2.9857556815180386,0.7952949265992663,1.3745876486552449
4.117268081981204,3.063390025178838,0.8090408030858187,1.3679971840921672
4.147901982232993,3.141369821284179,0.8227207749267403,1.3584162274652813
4.179315680445835,3.219392140900051,0.8363049372013932,1.3452781496796598
4.211509601854835,3.2971280070597873,0.8497577186981898,1.3279745860807073
4.2444808819254325,3.374225055002591,0.8630374645589969,1.3058601607510725
4.278223132475459,3.4503114591110746,0.8760960661665076,1.2782591545223345
4.3127262470665695,3.525001291833056,0.8888786577117309,1.244474303144666
4.3479762599849,3.59790144939757,0.9013234007431776,1.203797840453918
4.383955274478876,3.6686202278133466,0.9133613791477168,1.1555247950033396
4.42064147675701,3.736777557319793,0.9249166270977501,1.0989684041575167
4.458009252330208,3.8020168027918695,0.9359063111393253,1.0334773272427387
4.496029420358127,3.864017913208568,0.9462410844117527,0.9584541244386113
4.534669599490213,3.922511561022947,0.9558256256561388,0.8733742330465656
4.573894715100443,3.977293763174039,0.9645593679866045,0.7778044379738354
4.613667652732183,4.028240336176156,0.9723374123663429,0.6714196270090241
4.653950056093945,4.075320429648446,0.9790516086364331,0.5540164778982166
4.694703260390429,4.118608329855019,0.9845917734154153,0.4255226790610946
4.735889343688979,4.158292750195964,0.9888470002060262,0.2860003696548709
4.7774722711909385,4.194682945880619,0.9917070039025749,0.13564271513881007
4.819419100649744,4.228211210673465,0.993063431053963,-0.0252370918236495
4.861701212756479,4.259431624793711,0.9928110601357265,-0.19622462775706168
4.904295529004417,4.2890152984699,0.9908488138581559,-0.3768305090187492
4.947185681989115,4.317742755289825,0.9870805087679685,-0.5665232857775369
4.990363109542013,4.346494476451409,0.9814152759101932,-0.7647676824441748
5.033828054306527,4.376240937241191,0.9737675990857514,-0.9710666603451786
5.077590463678939,4.408033679522769,0.9640569324822996,-1.185005764084069
5.121670800474166,4.4429990687067935,0.9522068748414589,-1.4062984536381846
5.1661007911612336,4.482336395087337,0.938143890305077,-1.634831607560124
5.210924155112107,4.527321934650893,0.9217955742294758,-1.8707110691166595
5.2561973744586155,4.579320536604107,0.9030884635383092,-2.1143079431319705
5.301990579824657,4.639806313530676,0.8819453841069895,-2.366307283893066
5.348388642959963,4.710394130306218,0.8582823112680589,-2.6277618024516403
5.3954925842630255,4.792883856793,0.8320046932435424,-2.900154234545615
5.443421422830956,4.889319764925934,0.8030031508980863,-3.185473005881593
5.492314620480215,5.0020679274365945,0.7711484208392704,-3.4863066903949615
5.542335299754581,5.133914739061796,0.7362853539353208,-3.805963127374636
5.593674447145199,5.288189018883841,0.6982257226615745,-4.148617999196603
5.6465563373340375,5.468906817761256,0.6567395426696084,-4.519492791388189
5.70124540551165,5.6809278569225565,0.6115446147557265,-4.925047566146362
5.758054684080876,5.930085505889712,0.5622941390942628,-5.3731360218669675
5.817355539139773,6.2231849564942,0.5085627788755932,-5.872976196474514
5.8795873887047145,6.567603003849287,0.44983301691084804,-6.43456470016334
5.945263418743208,6.969851756247004,0.3854873699092146,-7.0666432268596715
6.014961936305678,7.431680002216253,0.3148209376406179,-7.771221835573143
6.089278736327841,7.94092917044707,0.23710871928488647,-8.530761384323121
6.168688028032311,8.453538062095168,0.15180110544165526,-9.282961329081846
6.2532234086532625,8.869620604301574,0.05897149215083679,-9.887258789223553
6.341919614696279,9.036350643286116,-0.039901095741398745,-10.128977633335504
6.43228312112914,8.84178966497482,-0.14119087207475378,-9.851042225095858
6.5207010177788876,8.347765821286142,-0.23970129432571236,-9.140131101222787
6.604178675991749,7.740968263103898,-0.3311026053379402,-8.25779030720329
6.681588358622788,7.16359049281598,-0.4136805084099731,-7.4033817628878635
6.753224263550948,6.667656466714528,-0.48771432603885173,-6.650371861271856
6.819900828218093,6.256536541788853,-0.5542180446515703,-6.004287233869245
6.882466193635981,5.918444150581997,-0.6142609169902628,-5.449396757693208
6.941650635141801,5.6397665665902545,-0.6687548845671948,-4.9672961870669425
6.998048300807703,5.408804533666812,-0.7184278464378642,-4.542152250286389
7.052136346144371,5.216291564467923,-0.7638493689407281,-4.161469943360126
7.10429926178905,5.055049325740266,-0.8054640683743294,-3.8156570451614753
7.1548497550464525,4.919511409579105,-0.8436206388259442,-3.497402964022974
7.204044869142243,4.805309114921166,-0.878594668466174,-3.2011411452922083
7.252097960291455,4.708950412665441,-0.910606079919096,-2.9226385273797457
7.29918746441811,4.627580431965435,-0.9398324651928935,-2.6586955804934504
7.345463268737764,4.558804816948661,-0.9664194209978281,-2.406930146349117
7.391051316907251,4.500559853250052,-0.9904887224613192,-2.1656212033535853
7.436056915439751,4.451017428769086,-1.0121449344948552,-1.9335938964946464
7.480567089727442,4.408516521416602,-1.0314808734598018,-1.7101317984983857
7.524652254941608,4.371515590281936,-1.0485821914447857,-1.4949059467267078
7.568367410844427,4.338562051032719,-1.0635312509120527,-1.287912928218971
7.611753031354755,4.3082760996578,-1.0764103801942424,-1.0894164715853916
7.654835792351332,4.279346666772248,-1.0873045449100962,-0.8998889004789198
7.697629259019055,4.2505373831520314,-1.0963034339148854,-0.719950557362724
7.740134632850576,4.22070026260318,-1.1035029394885125,-0.5503069565720882
7.782341635476608,4.188794515148024,-1.1090060090542333,-0.3916849135339827
7.824229580628089,4.15390764761087,-1.1129228581895731,-0.24477009726257162
7.865768657104197,4.1152759276708375,-1.115370559162199,-0.11014922043937189
7.906921416380905,4.072301475014161,-1.1164720513665927,0.011739696641229189
7.947644431131047,4.024563727349077,-1.1163546544001803,0.12064590771403622
7.987890068404537,3.9718237646592214,-1.11514819532304,0.216531149847641
8.02760830605113,3.914020856236054,-1.1129828838245637,0.2995804661492853
8.06674851461349,3.8512614841078445,-1.1099870791630708,0.3701989492659626
8.105261129454568,3.783801860530266,-1.1062850896704113,0.4289959262937665
8.143099148059871,3.7120254994635817,-1.1019951304074735,0.4767590315566043
8.180219403054506,3.636417679125293,-1.0972275400919076,0.5144211528996822
8.216583579845759,3.557538655056176,-1.0920833285629108,0.5430233764617559
8.25215896639632,3.4759973010972236,-1.0866530947982933,0.5636768513186262
8.286918939407293,3.3924265399819116,-1.0810163262851071,0.5775260476203282
8.320843204807112,3.307461547979155,-1.0752410658089038,0.585715300393889
8.353917820286902,3.2217213392101325,-1.069383912804965,0.5893599151891755
8.386135033679004,3.135793996560268,-1.0634903136530731,0.5895225358563748
8.417492973644606,3.0502255404317973,-1.0575950882945093,0.5871949854832731
8.447995229048924,2.965512221464175,-1.0517231384396766,0.5832854102333718
8.477650351263566,2.8820958857234453,-1.0458902843373428,0.5786102848735384
8.506471310120801,2.80036198165189,-1.0401041814886074,0.5738906683316685
8.53447492993732,2.7206397457450295,-1.0343652748052907,0.5697520114736981
8.56168132739477,2.643204106824678,-1.0286677546905538,0.56672679908858
8.588113368463016,2.5682788763889786,-1.023000486699668,0.5652593360190658
8.613796157226906,2.4960408360045867,-1.0173478933394773,0.5657120476828768
8.638756565586952,2.426624384991997,-1.0116907728626485,0.5683727447341425
8.663022809436873,2.3601264673131372,-1.0060070454153072,0.573462389910538
8.686624074110004,2.296611551602852,-1.0002724215162018,0.5811429943787649
8.709590189626033,2.236116489902434,-0.9944609915724141,0.5915253556040222
8.731951354525057,2.1786551270594368,-0.9885457380163739,0.6046764253421434
8.753737905795651,2.124222572961819,-0.9824989737629525,0.6206261627759928
8.77498013152527,2.0727990834118932,-0.9762927121351925,0.6393737833044109
8.79570812235939,2.0243535226216234,-0.9698989743021484,0.6608933581575039
8.815951657585606,1.9788464014599894,-0.9632900407205734,0.6851387545887455
8.835740121600205,1.9362325013481596,-0.956438653174686,0.7120479319935903
8.855102446613687,1.8964631048309761,-0.9493181738547501,0.7415466272263554
8.874067077661996,1.859487861137121,-0.9419027075824866,0.7735514739777869
8.892661956273367,1.825256319233458,-0.9341671928427088,0.8079726076258708
8.9109145194657,1.7937191626768136,-0.92608746676645,0.8447158096540787
8.928851711092468,1.76482918057963,-0.9176403086699092,0.8836842455630619
8.946500002898265,1.7385420077514844,-0.9088034662142785,0.9247798480369125
8.96388542297578,1.7148166649795487,-0.8995556677339094,0.9679043936541389
8.981033589625575,1.693615927803049,-0.889876623797368,1.012960317197742
8.997969748903605,1.6749065492770838,-0.8797470206253906,1.0598513030286147
9.014718814396376,1.6586593593005279,-0.8691485075951044,1.108482688341998
9.031305407989382,1.6448492602370943,-0.8580636807116845,1.1587617086381152
9.047753900591754,1.6334551358800133,-0.8464760636253034,1.2105976115446253
9.064088451950555,1.624459688357308,-0.8343700875098571,1.2639016613150094
9.080333048834127,1.6178492153790014,-0.8217310708967069,1.3185870529378536
9.096511540987917,1.6136133383039337,-0.8085452003673284,1.374568751842543
9.112647674370956,1.6117446898534913,-0.7947995128489029,1.4317632726723235
9.128765121269492,1.612238568915103,-0.7804818801221797,1.4900884084979094
9.144887506958643,1.6150925687470483,-0.7655809960372005,1.5494629201373482
9.161038432646114,1.6203061840019584,-0.7500863668358271,1.6098061938995147
9.177241494486134,1.6278804013116477,-0.733988304896832,1.6710378750456605
9.193520298499251,1.6378172777019884,-0.7172779261463754,1.7330774835311973
9.209898471276272,1.650119510814327,-0.6999471513110634,1.7958440181131776
9.226399666384415,1.664790004779793,-0.6819887111299316,1.859255554652383
9.243047566432214,1.6818314356043182,-0.6633961555834078,1.9232288443666428
9.259865880788256,1.701245820053482,-0.6441638671397414,1.9876789178671097
9.27687833898879,1.723034092253739,-0.6242870779610703,2.052518700993171
9.294108679911329,1.747195692523893,-0.6037618909511386,2.1176586487136477
9.311580636836567,1.77372817328834,-0.5825853044640021,2.1830064036381676
9.32931791856945,1.8026268272684902,-0.5607552404276205,2.2484664859360284
9.347344186842134,1.8338843434636227,-0.5382705755682602,2.313940021639887
9.36568303027677,1.8674904966760706,-0.5151311753518614,2.379324516364425
9.38435793524353,1.903431876463161,-0.49133793018821714,2.444513681339317
9.403392254008162,1.941691661362091,-0.466892793374824,2.5093973182837113
9.422809170621782,1.982249443984749,-0.44179882019198685,2.5738612689788773
9.44263166506163,2.0250811120687717,-0.4160602075021981,2.6377874343727004
9.462882476182317,2.070158789753269,-0.38968233315847106,2.7010538666265345
9.48358406407985,2.1174508421831306,-0.3626717944922057,2.7635349356537495
9.50475857250168,2.166921945004754,-0.3350364451356682,2.825101569376272
9.526427791951727,2.2185332183817477,-0.3067854294419055,2.885621564134813
9.548613124135544,2.272242422832041,-0.27792921380055735,2.9449599584467414
9.571335548363864,2.328004211488535,-0.24847961421608994,3.0029794596546417
9.59461559047875,2.385770430357617,-0.21844981961954352,3.0595409090184282
9.618473294782326,2.4454904548615692,-0.18785441052935922,3.1145037665733404
9.642928199330942,2.507111547494905,-0.15670937286362582,3.1677265927324694
9.667999314805892,2.570579217916435,-0.12503210693630112,3.21906749930849
9.693705106985055,2.635837563373699,-0.09284143194321623,3.268384538539066
9.720063482618793,2.7028295641637463,-0.06015758655782557,3.315535995012872
9.74709177826043,2.7714973060317107,-0.02700222660769685,3.3603805423047453
9.774806751320746,2.8417820991542224,0.006601578815350603,3.4027772238352774
9.803224572312288,2.9136244618000777,0.040629351053703376,3.442585216160946
9.832360816930288,2.9869639360442566,0.07505520321531284,3.4796633327517577
9.862230456290732,3.0617387031551977,0.10985183654283041,3.5138692274858307
9.892847843322283,3.1378849675829854,0.14499052881768873,3.5450582597332057
9.924226692998113,3.215336080936978,0.18044111141502078,3.5730819871580373
9.956380053807482,3.294021381037684,0.21617193128660117,3.5977862583898497
9.98932026761786,3.3738647261473242,0.2521497938704997,3.6190088856763825
10.023058914879332,3.4547827109370814,0.2883398827272635,3.6365768877546154
10.057606741988703,3.5366825587897557,0.3247056516048097,3.650303305754485
10.092973567576601,3.6194596948818734,0.36120868466235456,3.6599836103648182
10.12916816452542,3.702995016440735,0.39780852076600276,3.6653917372338602
10.166198114689829,3.7871518910299544,0.43446243813834134,3.6662758102495996
10.204069633600128,3.871772931185609,0.4711251962408373,3.6623536396455307
10.242787362911983,3.956676614799079,0.5077487326372926,3.653308114552217
10.282354129059973,4.041653845969995,0.5442818137828147,3.6387826483710977
10.322770667519674,4.12646458126043,0.5806696402665257,3.618376880704457
10.364035313332279,4.2108346818522895,0.6168534090735702,3.5916428916450984
10.406143660150802,4.294453193195026,0.6527698379900212,3.5580822423968503
10.449088192082751,4.376970299885122,0.6883506604139897,3.5171442187015187
10.492857895081602,4.457996253347252,0.7235221026010049,3.468225716950189
10.537437857615075,4.537101620605843,0.7582043597705068,3.4106732714199444
10.582808873821133,4.613819249371119,0.7923110924847062,3.3437877661190565
10.628947066314844,4.687648380752925,0.8257489701458968,3.2668323940663937
10.675823550122372,4.758061356331496,0.8584172940865606,3.1790444045567234
10.723404163685688,4.82451334841045,0.8902077381321278,3.079651095796355
10.771649297169793,4.886455476135414,0.9210042490900914,2.9678903450184
10.820513851931146,4.943351540085178,0.9506831525402754,2.8430357005737354
10.869947367331998,4.994698400231461,0.9791135095460127,2.7044256761027103
10.919894351334312,5.040049729363409,1.0061577663070398,2.5514963838234967
10.970294848627946,5.079042500510211,1.0316727301452748,2.3838160409733784
11.021085273633048,5.111425134691383,1.0555108905550086,2.201119227787092
11.072199524979961,5.137085789231305,1.0775220828328795,2.003338147772093
11.123570382872273,5.156078875472086,1.0975554643106005,1.7906276536356576
11.175131171626994,5.168647645197711,1.1154617408469572,1.5633805863086507
11.22681764807897,5.175240669612409,1.1310955467100436,1.3222301554877476
11.278570054775095,5.176520328684277,1.1443178482649212,1.0680367519811589
11.330335258061938,5.173362064735113,1.1549982157847327,0.8018577291198004
11.382068878709289,5.166844099968558,1.1630167930759308,0.5249002187321503
11.433737319708975,5.15822846698025,1.1682657952632522,0.23845874106901044
11.485319604378777,5.148935386704094,1.1706503826739423,-0.05615906911036517
11.536808958245818,5.140514056157704,1.1700887919828387,-0.35771418113060105
11.588214098807395,5.134613608870333,1.1665116501715327,-0.6651204754105884
11.639560234896098,5.132958286260261,1.1598604454174268,-0.9775271902021672
11.690889817758702,5.137330712635895,1.1500851735154052,-1.2943962554217503
11.742263124885062,5.149566705972012,1.1371412109611876,-1.6155730655930092
11.793758791944782,5.171564459595172,1.1209854803052575,-1.9413513928592527
11.845474436540734,5.20531039897054,1.101571966376665,-2.272535362138853
11.897527540530438,5.2529237266723365,1.0788466127552765,-2.610503485510214
11.950056777797162,5.316721711843558,1.0527415779001743,-2.9572815330632776
12.003223994915597,5.399308114691626,1.0231687625695416,-3.315632362930508
12.057217076062514,5.503687471367478,0.9900124389402365,-3.689171427229958
12.11225395077619,5.6334074981066715,0.953120724667937,-4.082515588315059
12.168588025757256,5.792728632783364,0.9122955687847863,-4.501467602441188
12.22651531208509,5.986808951535955,0.8672808927603745,-4.953222730888562
12.28638340160045,6.2218628957560105,0.8177486654514888,-5.44654158105353
12.348602030558009,6.505175915616774,0.7632832496409535,-5.9917261793250765
12.413653789714177,6.84466977933946,0.7033659878477028,-6.599974325677122
12.482100487507571,7.2472727329436815,0.6373662445909315,-7.281071423822083
12.554573214837008,7.714394255035208,0.5645555303527107,-8.0370435424136
12.63171715738736,8.23114631550176,0.48418509492857464,-8.847072926085087
12.714028620542377,8.745071725720642,0.3957143656677238,-9.637739587909882
12.801479337799584,9.139170584039357,0.29933696978862495,-10.245316235934753
12.892871043639978,9.242795721911774,0.1968838074292774,-10.431236011405819
12.985299000859095,8.953636211090153,0.09257144731521923,-10.053251566722219
13.074835362969997,8.374542800676789,-0.00796106835200297,-9.256770904860158
13.158580790976766,7.715005429887065,-0.10052877740060455,-8.336164690558823
13.235730845275636,7.108918396116471,-0.1838904243061928,-7.479814506785049
13.306820029236802,6.595230467636929,-0.2586885693740433,-6.743370883118667
13.37277233391317,6.169916469451133,-0.32612227820522993,-6.122382199080366
13.434471498607682,5.817981940308279,-0.3873461001960336,-5.596933962924332
13.492651318010765,5.524536526938374,-0.44331543982527694,-5.147106903449222
13.547896683280149,5.277387407944375,-0.49478650885976916,-4.756631204889171
13.600670557359592,5.067082207104423,-0.5423528209086609,-4.412989685493272
13.651341379430637,4.886376852341119,-0.5864827177635936,-4.106716196123497
13.700205147954048,4.729687426236934,-0.6275498797248286,-3.8306666327314254
13.747502022216416,4.59264997478699,-0.6658565460521428,-3.579435607379157
13.793428521964286,4.471791946491586,-0.7016509021259344,-3.3489244878797915
13.8381464414292,4.364292565089003,-0.7351401470047323,-3.136029441850373
13.88178936708009,4.2678089073928085,-0.766500441423236,-2.9384168625302207
13.924467456154018,4.1803495786234635,-0.7958846100485383,-2.7543601490793157
13.966270951940253,4.100183086619978,-0.8234282115393314,-2.5826185807424262
14.007272782806453,4.0257720886933,-0.8492543973467557,-2.422344311695935
14.047530503693386,3.9557275887607255,-0.873477840463715,-2.2730073453740003
14.087087779580992,3.8887791185382667,-0.896207913917455,-2.134331116353638
14.125975570766375,3.8237581616017704,-0.9175512250809914,-2.0062334085608398
14.164213152382393,3.759592737467137,-0.9376135591665998,-1.8887690770120684
14.201809079757064,3.6953112787543243,-0.9565012499367205,-1.7820726200647474
14.238762192544607,3.630053817585588,-0.9743219761373679,-1.6863001703067921
14.275062730720464,3.563088165257713,-0.9911849778404358,-1.6015719336059993
14.310693612373042,3.493828359993232,-1.0072006971764957,-1.527917414249594
14.345631895972973,3.421852327265059,-1.0224798713189918,-1.4652267582011786
14.379850419245624,3.346915601118802,-1.0371321389010035,-1.413212039891081
14.413319575256812,3.2689582162630195,-1.0512642592999144,-1.371382157757116
14.446009157419443,3.188102555524227,-1.0649780808774856,-1.3390341316547074
14.477890182974685,3.1046409888470943,-1.0783684221940326,-1.3152620915164257
14.508936592863156,3.019013434596565,-1.0915210431091968,-1.2989833383499103
14.539126727209123,2.931776303928692,-1.1045108764926959,-1.2889788831880005
14.56844449024841,2.8435654202934297,-1.1174006653245758,-1.2839441996876113
