th1 (rad),w1 (rad/s),th2 (rad),w2 (rad/s)
4.330038179819827,1.9313379529206978,3.8174987500967204,-2.349015447615204
4.349351559349033,2.0001941795455416,3.7940085956205682,-2.3294226057877188
4.369353501144489,2.0675955652524736,3.770714369562691,-2.306104826226416
4.390029456797014,2.1336820842996884,3.747653321300427,-2.2789423450851727
4.411366277640011,2.1986265723129255,3.724863897849575,-2.2478429859316513
4.4333525433631396,2.262628324000711,3.7023854679902586,-2.212732698208432
4.455978826603147,2.325906819658941,3.6802581410081743,-2.173546142096773
4.479237894799736,2.3886959715138465,3.6585226795872066,-2.130217867092768
4.5031248545148745,2.4512391337636426,3.637220500916279,-2.082674438333142
4.527637245852511,2.5137849865576953,3.6163937565329474,-2.030827690088599
4.552775095718088,2.5765842967082406,3.5960854796320616,-1.9745691475494231
4.578540938685171,2.6398874807810513,3.5763397881565675,-1.9137655621488505
4.604939813492981,2.7039428474383245,3.557202132535079,-1.8482554500440007
4.631979241967365,2.7689953702291645,3.538719578034639,-1.7778465012411995
4.6596691956696565,2.8352858329983452,3.5209411130222272,-1.7023137298452888
4.68802205399964,2.9030501915747133,3.503917975723774,-1.621398256042297
4.717052555915386,2.9725190023480845,3.4877039931633513,-1.5348066411086982
4.746777745938867,3.0439167770317237,3.4723559267522646,-1.4422107331132474
4.777216913709184,3.1174611309170137,3.457933819421132,-1.343248019760568
4.808391525018354,3.193361597945577,3.4445013392235264,-1.2375225239763912
4.84032514099781,3.2718179895265678,3.4321261139837627,-1.1246063161224298
4.873043320893076,3.3530181754839647,3.4208800508225385,-1.0040417533246986
4.906573502647915,3.4371351656626357,3.4108396332892914,-0.8753445905072949
4.940944854304542,3.5243233708673127,3.4020861873842185,-0.7380081382723536
4.976188088013215,3.614713923716781,3.394706106001495,-0.5915086681520436
5.012335227250383,3.7084089458593748,3.3887910193199744,-0.4353122836464127
5.049419316708977,3.8054746604159213,3.3844378964835102,-0.2688834826619188
5.087474063313136,3.905933270433629,3.3817490616568913,-0.0916956294079958
5.126533396017472,4.009753558680747,3.380832105362811,0.09675647334025705
5.1666309316042796,4.1168402143349185,3.3817996700962136,0.29694177271387073
5.207799333747629,4.227021960547801,3.3847690878233525,0.5092758580280483
5.250069553353107,4.3400386449037756,3.389861846403633,0.7341016158874172
5.2934699398021445,4.455527561926745,3.3972028625625073,0.9716678587402916
5.338025215421412,4.573009399761973,3.40691954114991,1.2221063225759683
5.383755309419032,4.691874335165803,3.4191406043756696,1.4854076404013403
5.43067405277069,4.811368931177706,3.433994680779683,1.7613971206612604
5.478787742082467,4.9305846057335545,3.451608651986296,2.049711372477237
5.528093588139803,5.048448519805684,3.4721057657110683,2.3497769949448823
5.57857807333786,5.163717763030083,3.4956035356605173,2.6607926550790166
5.630215250968161,5.274977679228463,3.5222114622113074,2.9817158896917895
5.682965027760445,5.380645067545818,3.5520286211082253,3.3112558609584535
5.736771478435903,5.478976822760447,3.5851411797178097,3.6478730707990517
5.791561246663508,5.568084360602823,3.6216199104258,3.9897867155260713
5.847242090269536,5.645953943913025,3.661517777581061,4.3349899846003
5.903701629708666,5.710472824364691,3.704867677427064,4.6812732417231615
5.960806357952313,5.75946098125676,3.7516804098442957,5.026254747648898
6.01840096776488,5.790708196779125,3.801942957320785,5.3674184568958445
6.076308049732671,5.8020162499192125,3.855617141889743,5.702158477789407
6.134328212231863,5.791246093117954,3.912638726667637,6.027830007818361
6.192240673163043,5.756369910530572,3.9729170267458205,6.3418068620110395
6.249804372268349,5.695527828258752,4.0363350953659305,6.6415459600066455
6.306759650550936,5.607088634542672,4.102750554965997,6.924659151149685
6.362830536896363,5.489713083895777,4.171997146477494,7.188992366406368
6.4177276677353206,5.342417192861528,4.243887070141558,7.432711184406864
6.471151839663936,5.164631492741376,4.318214181985627,7.654390501924618
6.522798154591349,4.956250729518998,4.394758087004873,7.853104288691477
6.572360661886539,4.71766735632365,4.473289129891787,8.02850973931543
6.619537335449776,4.449781765246379,4.553574227284941,8.180918995218688
6.6640351531022395,4.1539829081273485,4.635383417237128,8.311351499721829
6.705574982183513,3.8320949170184857,4.718496932234347,8.42156133955882
6.7438959313536975,3.4862884008948742,4.802712545629935,8.514036704075506
6.778758815362647,3.1189587691346707,4.88785291267069,8.591972580128276
6.809948403053993,2.732577457897579,4.9737726384719725,8.659222381113022
6.837274177632969,2.32952448881171,5.060364862283103,8.720238587098283
6.860569422521086,1.9119117212232277,5.147567248154085,8.780015905791991
6.879688539733318,1.48140520341158,5.2353674072120056,8.844052471777555
6.894502591767434,1.0390524107322987,5.323807931929781,8.91834505714055
6.904893115874757,0.5851166157647754,5.412991382501186,9.009433270014762
6.910744282032405,0.11891745180251312,5.503085715201334,9.124505173727758
6.91193345655043,-0.36132394607349383,5.5943307669386115,9.271571485396304
6.9083202170896945,-0.8586309040094919,5.687046481792574,9.459703362093544
6.899733908049599,-1.3773824084885073,5.78164351541351,9.699298404929493
6.885960083964714,-1.9233054020587952,5.878636499462805,10.002262366089544
6.866727029944126,-2.503119171090895,5.9786591231237,10.381801176723135
6.841695838233218,-3.12325794307216,6.082477134890931,10.851050711714471
6.810463258802496,-3.786324844245593,6.190987642008076,11.418707070850182
6.772600010360041,-4.482438255286533,6.305174712716577,12.07773086358764
6.727775627807175,-5.170967334151235,6.425952021352454,12.78078112325135
6.676065954465663,-5.752066585372809,6.5537598325849675,13.401153263577216
6.618545288611935,-6.055754600498343,6.68777136522074,13.716744487132607
6.557987742606952,-5.926942257927146,6.824938810092066,13.524297692675773
6.49871832002768,-5.396425287172158,6.960181787018824,12.869372712603385
6.444754067155959,-4.673209768970034,7.088875514144858,12.030745973385724
6.398021969466258,-3.938965050313235,7.209182973878716,11.241793639037628
6.358632318963126,-3.2669656868363903,7.321600910269092,10.588192379733771
6.325962662094763,-2.667285649790431,7.42748283406643,10.073672653189785
6.2992898055968585,-2.1294068487712456,7.528219560598328,9.67774762228081
6.277995737109146,-1.6395388740857095,7.624997036821136,9.377955615549402
6.2616003483682885,-1.1855872832247247,7.71877659297663,9.155556941014074
6.249744475536041,-0.7580089749536044,7.8103321623867705,8.996008753989694
6.242164385786506,-0.34956225449647577,7.900292249926667,8.88818700796707
6.238668763241541,0.045129660407433214,7.9891741200063375,8.823500050913934
6.239120059845615,0.42995989755833897,8.077409120515476,8.79516004755279
6.243419658821199,0.8076231592125755,8.165360720991004,8.797634802165451
6.251495890413325,1.1798176794754425,8.253337069012659,8.826247721474607
6.263294067208079,1.5473868753698792,8.341599546227405,8.876890580915607
6.278767935961778,1.91042233142751,8.43036845203656,8.945822149762554
6.297872159276053,2.2683461402606504,8.519826673534187,9.029534416837194
6.320555620678659,2.61998697861733,8.610122017702558,9.124674473460063
6.346755490464832,2.9636608160843454,8.70136876243716,9.228013729849835
6.376392098625676,3.2972635132031485,8.793648899735658,9.336457331096709
6.409364733757707,3.618378494742929,8.887013473046625,9.447085855612354
6.445548518705136,3.924398182877531,8.981484331602749,9.557219258521645
6.484792500533912,4.212653306972496,9.077056524187965,9.664490421300357
6.526919033603637,4.480540266887373,9.17370142840097,9.766913619056721
6.57172443627251,4.725634279447926,9.271370564591537,9.86293274530337
6.618980779066989,4.945775840302911,9.369999892044572,9.95143597850893
6.668438537470018,5.139120431836622,9.469514251829661,10.031727902925983
6.719829741788384,5.30414613531744,9.569831530858922,10.103456375272115
6.772871203141559,5.439619995181144,9.670866094611643,10.166498547008812
6.82726740309337,5.544530416069199,9.77253108008173,10.220817076864176
6.882712707254062,5.617998357374513,9.874739250850372,10.26630259250623
6.9388926908278075,5.659183795510006,9.977402276775434,10.302621324024589
6.9954845287829075,5.667205515149613,10.08042849001568,10.329087569447665
7.052156583934404,5.6410918132210845,10.183719365710157,10.344579653413238
7.108567502066615,5.579777309617727,10.287165162244289,10.347515657536437
7.164365275162792,5.482156761090224,10.390640318819653,10.335901413070046
7.219186842773694,5.347200342596697,10.493999332950354,10.307457559431237
7.272658846199661,5.174126042675265,10.597073908544667,10.259824177201004
7.324400106626414,4.962613825192403,10.699672150316678,10.190830276495143
7.374026244878338,4.7130342947956505,10.801580453081629,10.098802084506335
7.421156587826294,4.4266544145108755,10.902568473926692,9.98287115573054
7.465423131971403,4.1057780769866605,11.002397185483998,9.843234902879066
7.50648091274127,3.7537835736522425,11.100829534512789,9.681322635572112
7.544018748477792,3.3750347390574102,11.19764276086851,9.499832278119419
7.5777690958683666,2.9746656313034623,11.292641083649704,9.302625550149743
7.607515752181401,2.558264146561582,11.385667339151201,9.09449713367219
7.633098393647017,2.131500236757739,11.476612310487923,8.880858138424799
7.654413396014594,1.6997531168192412,11.56542089187217,8.667388601748415
7.671410927182786,1.2677869338853482,11.652094777889655,8.459714293914674
7.68408879652164,0.8395086290049136,11.736691920828802,8.263151344454128
7.692483882811689,0.41782113165299256,11.819323434273343,8.082543588235358
7.696662094128219,0.004565873886338556,11.900148870155697,7.922198519547979
7.696707752867082,-0.39946487547123666,11.979370855351176,7.785913269519287
7.69271310411237,-0.7944718610082266,12.05722998804637,7.677074277472319
7.684768385502288,-1.181575456927276,12.134000730821093,7.598813010313822
7.672952630933015,-1.5627484900974309,12.20998886092423,7.554203445007608
7.657325146032041,-1.9407740699424603,12.285530895374306,7.546492920309119
7.637917405332616,-2.319242568573712,12.360995824577397,7.579364421909046
7.614724979646879,-2.7025975457129467,12.436789468796487,7.657233521929807
7.58769900418975,-3.096235012107944,12.513361804015785,7.785584339788011
7.55673665406867,-3.5066495449987816,12.591217647413666,7.971340068145574
7.521670158618682,-3.941593112776218,12.670931048095122,8.223229848954775
7.48225422749092,-4.410140110735735,12.75316334658467,8.552017159332433
7.438152826383562,-4.922366948320506,12.838683518177994,8.970201225399588
7.388929156900357,-5.487897446466619,12.92838553043199,9.49017006433888
7.334050182435691,-6.111511633388517,13.023287231075379,10.118314060609196
7.272935066101806,-6.781980356030587,13.124470371681472,10.83974852240929
7.205115262541501,-7.448396698130802,13.232867856905564,11.585570939884608
7.1306312955601925,-7.9863646773626265,13.34872356630441,12.185671390617768
7.050767648786566,-8.201425283983552,13.470580280210587,12.372679761010826
6.968753395946731,-7.96632050925835,13.594307077820696,11.97112962724251
6.889090190854147,-7.394065372469623,13.714018374093122,11.13512106581612
6.815149537129451,-6.725899987354805,13.825369584751284,10.191366628482545
6.747890537255903,-6.111888869117513,13.92728325103611,9.338658521400315
6.6867716485647275,-5.59302779444436,14.020669836250113,8.627010305407419
6.630841370620284,-5.163974830038065,14.106939939304187,8.044997718516592
6.5792016223199035,-4.8086030716809764,14.187389916489353,7.568074300060663
6.531115591603093,-4.511427702828146,14.26307065948996,7.173610382209652
6.486001314574812,-4.260011635583849,14.334806763312057,6.843766384781107
6.443401198218973,-4.044847818070865,14.40324442715987,6.565085892986401
6.4029527200382645,-3.8587382626888735,14.468895286089733,6.327507571158975
6.364365337411376,-3.69620239548068,14.532170361801322,6.1234780132014635
6.327403313456569,-3.5530172508298277,14.593405141933337,5.947278702685384
6.291873140948271,-3.4258813898888505,14.65287792896019,5.794540691923387
6.2576143270493825,-3.3121739656031943,14.710823335879425,5.661898871190551
6.2244925873933505,-3.2097829367124993,14.76744232459133,5.546744259360984
6.192394758026226,-3.1169831783576822,14.82290976718494,5.447043233679896
6.1612249262426495,-3.032351332646319,14.87738019952174,5.361201296128097
6.130901412916186,-2.9547087852401215,14.930992212483021,5.287955246366251
6.101354325063785,-2.883087155405612,14.983871764946684,5.226282192157657
6.07252345350973,-2.8167122184263866,15.036134586868261,5.175317637281259
6.044356331325466,-2.75500220695911,15.087887763241074,5.134278865715234
6.016806309255875,-2.6975749687691097,15.139230551898226,5.102394607057977
5.989830559568184,-2.644255905410003,15.190254497968805,5.078847376198785
5.963388000514084,-2.5950762286479963,15.241042971730794,5.062739483918576
5.937437238227604,-2.550251000742763,15.29167036656998,5.053094723829038
5.911934728220176,-2.510130839618006,15.34220131380827,5.048902290279088
5.886833419823996,-2.4751303471044204,15.39269033671106,5.049197305640671
5.862082116352952,-2.4456470284078535,15.443182309767467,5.053158000096269
5.837625646068874,-2.421990883351094,15.49371388976843,5.060191199168312
5.813405737235363,-2.4043424994700047,15.544315801760112,5.069981454628258
5.789362312240663,-2.3927471889241465,15.595015616306394,5.082493641874096
5.765434840351422,-2.387140344997983,15.645840552725135,5.097935962946744
5.741563436901442,-2.3873911338897944,15.696819912354602,5.1167012669852
5.717689525562545,-2.3933504567331654,15.747986925024454,5.139306028046767
5.693756020995213,-2.4048930647352047,15.799379985304922,5.166340770546016
5.6697070903478615,-2.4219492764028794,15.851043393010382,5.1984381131113055
5.645487597583832,-2.4445262544155666,15.903027774141496,5.236258579051296
5.621042335039677,-2.472721296649979,15.955390359932009,5.2804911502961165
5.596315122073177,-2.506730368130142,16.00819527143497,5.331864775127053
5.571247818391876,-2.546854868054028,16.061513919186243,5.391167663614255
5.5457792697113355,-2.593509019252016,16.115425595822387,5.4592723491773985
5.519844179518815,-2.647229661733949,16.17001831931416,5.537165649648628
5.493371882901475,-2.7086897784500557,16.225389975810646,5.625983613927463
5.466284985116975,-2.778716788686726,16.281649811949922,5.7270522402478115
5.4384978172301075,-2.8583164382113546,16.3389203343524,5.8419351906343016
5.409914652847994,-2.9487028521119756,16.397339686258746,5.9724898406910985
5.380427624326874,-3.0513347450014408,16.45706458466566,6.120932574658851
5.349914276876859,-3.1679564310561084,16.518273910412248,6.28991271725552
5.318234712566298,-3.3006392038466217,16.581173037584804,6.482590680990318
5.285228320527832,-3.4518119543710784,16.64599894439471,6.702707247303342
5.250710200984121,-3.624255676020179,16.713026016867744,6.954612089929941
5.214467644223919,-3.821006943941166,16.782572137767044,7.243179900957544
5.176257574784507,-4.045055384406705,16.85500393677662,7.573460683777009
5.135807020940439,-4.298602708738214,16.93073854361439,7.949749180746073
5.092820993853057,-4.581439354990512,17.01023603542185,8.373464453125665
5.047006600303153,-4.88768522635378,17.09397067995311,8.838794842053717
4.998129748039615,-5.1999655782325895,17.182358628373645,9.324800273658706
4.946130092257289,-5.481133197903149,17.275606631110232,9.784064867510534
4.891318760278257,-5.668596188289304,17.37344727978534,10.134797694000769
4.834632798395364,-5.68618372162427,17.474795256725347,10.276921354928296
4.7777709611791215,-5.486953624118749,17.57756447027463,10.150519154834429
4.722901424937934,-5.097264401896852,17.679069661822975,9.795416293101287
4.671928780918965,-4.600545935866423,17.77702382475399,9.327478499418781
4.625923321560301,-4.076873470703514,17.870298609748176,8.855476174345364
4.585154586853266,-3.570938580657841,17.958853371491628,8.43853623822624
4.549445201046687,-3.09793760996532,18.043238733873892,8.095562006430681
4.518465824947034,-2.6580979627480215,18.124194353938197,7.825648873712735
4.491884845319554,-2.246097889841644,18.202450842675326,7.620961723831947
4.469423866421137,-1.8553743902616873,18.278660459913645,7.472442661762665
4.450870122518521,-1.4797396247818955,18.353384886531273,7.371824668333055
4.436072726270702,-1.1138575733571283,18.427103133214604,7.312113193320355
4.424934150537131,-0.7532985737088591,18.500224265147807,7.287515036421975
4.417401164800042,-0.3944643633573239,18.573099415512026,7.293204403399942
4.413456521166469,-0.03449369853664619,18.646031459546027,7.325067941058489
4.413111584181102,0.32881457277706966,18.71928213895661,7.379474033609586
4.416399729908873,0.6970523686487238,18.793076879292705,7.453076683434404
4.42337025359536,1.0712291636240716,18.86760764612705,7.542653346251153
4.4340825452316,1.4517806898794516,18.94303417958956,7.644974162709031
4.448600352130395,1.8385671533281824,19.01948392121665,7.756701217386843
4.466986023663677,2.2308693880045816,19.09705093339052,7.87431837697526
4.489294717543722,2.627391771151267,19.175794117160272,7.99409384362203
4.515568635255235,3.026280581650416,19.255735055596492,8.11207821083935
4.545831441071739,3.425165483396299,19.336855837704885,8.224140130736794
4.580083095905702,3.821229625511469,19.419097239012252,8.326039479285424
4.6182953921608165,4.211310321499589,19.502357633805108,8.413534213112987
4.660408495375813,4.592027589757221,19.58649297593624,8.482512425556072
4.706328771273385,4.959932639766733,19.671318100191797,8.529136359319189
4.7559280976710525,5.311663704901122,19.75660946378499,8.549981575299064
4.8090447347200636,5.644093664252033,19.84210927953798,8.542153383209678
4.865485671362584,5.954453670951274,19.927530813370076,8.503364852788946
4.925030208072097,6.240419917873818,20.012564461897966,8.431966261668094
4.987434407250835,6.500156284020313,20.09688412451465,8.326923740680437
5.052435970091039,6.732312698604337,20.18015336192145,8.187753442423205
5.119759097077082,6.935986014334366,20.262030896345685,8.014424862245392
5.189118957220425,7.110655499906796,20.342175144968138,7.807251462426534
5.260225512219494,7.256107813238384,20.420247659592402,7.566787794702182
5.332786590351877,7.372366312977065,20.495915537539425,7.29375007842048
5.406510253481648,7.45963724291713,20.56885303832363,6.988972496233179
5.48110662591082,7.5182814447090625,20.63874276328596,6.653405364448908
5.556289440357911,7.548815596860834,20.70527681693045,6.288154749640976
5.631777596326519,7.551942146465765,20.76815836442686,5.894556697615275
5.707297017791177,7.528602500272243,20.827103931403013,5.474273467427556
5.7825830427939,7.480043986391287,20.881846666077287,5.029394449735082
5.857383482657813,7.407887954595228,20.93214061057464,4.562521381768295
5.931462362203765,7.314184665664842,20.97776582439232,4.076816847301907
6.004604208860414,7.2014409430984845,21.01853399286534,3.5759977089542048
6.076618618291398,7.072609425237613,21.05429396995488,3.0642615558082973
6.147344712543775,6.931033723885575,21.084936585512963,2.546144124004306
6.216655049782631,6.780351198007957,21.110398026753007,2.026317460892977
6.28445856176271,6.624362936696275,21.130661201361935,1.5093497964653901
6.350702191129673,6.466887001510657,21.145754699326588,0.999455718330519
6.415371061144779,6.311614271319424,21.155749256509893,0.5002670558273641
6.4784872038579735,6.161985495129188,21.160751927068166,0.014650241294103639
6.540107058809266,6.021103759130234,21.160898429481108,-0.45541382190170515
6.600318096400568,5.891689960362366,21.15634429126209,-0.9088833980724982
6.659234996004192,5.776081972250296,21.147255457281364,-1.3456502856094352
6.716995815726695,5.676272658689826,21.13379895442527,-1.7664901336894443
6.773758542313593,5.593978669145958,21.116134053088377,-2.172987737101441
