th1 (rad),w1 (rad/s),th2 (rad),w2 (rad/s),a1 (rad/s^2),a2 (rad/s^2)
5.282847500655927,2.9117176260613697,4.457524821810879,1.5082443137069745,2.7058001189021295,13.877463141821849
5.31196467691654,2.938775627250391,4.472607264947949,1.647018945125193,2.2594378663908157,14.437780766054036
5.341352433189044,2.961370005914299,4.489077454399201,1.7913967527857335,1.7852910237039021,14.983115987982025
5.370966133248187,2.979222916151338,4.506991421927058,1.9412279126655538,1.2809208909656629,15.511547548812857
5.4007583624097,2.9920321250609945,4.526403701053713,2.0963433881536826,0.7439749214528287,16.02128192790358
5.43067868366031,2.999471874275523,4.54736713493525,2.2565562074327183,0.17224754251025748,16.510709947331076
5.460673402403065,3.0011943497006253,4.569932697009577,2.421663306906029,-0.4362568961143031,16.978475339632826
5.490685345900071,2.996831780739482,4.594149330078637,2.5914480603023575,-1.083259896532874,17.423554276314924
5.520653663707466,2.9859991817741536,4.6200638106816605,2.765683603065507,-1.7701442267539944,17.84534399591965
5.550513655525208,2.9682977395066135,4.647720646712315,2.9441370430247034,-2.4978898404480576,18.243757643917487
5.580196632920274,2.943318841102133,4.677162017142562,3.126574619463878,-3.2670109069528137,18.619321190969334
5.609629821331295,2.910648732032605,4.708427763337201,3.3127678313735713,-4.077493960092426,18.973266750842708
5.638736308651621,2.869873792431681,4.741555441650936,3.5025004988819983,-4.928736076400007,19.30761464582149
5.667435046575938,2.8205864316676807,4.776580446639756,3.6955766453402132,-5.819480166585706,19.62523395932766
5.695640910892615,2.7623916300018236,4.813536213093158,3.8918289849334897,-6.747741599501598,19.929867745004266
5.723264827192633,2.6949142140068076,4.852454502942493,4.091127662383532,-7.710716050910276,20.226104018705307
5.750213969332701,2.617807053497705,4.893365779566328,4.293388702570585,-8.704652095301402,20.519266370196483
5.776392039867678,2.530760532544691,4.936299666592034,4.49858136627255,-9.724662838012831,20.81518735377623
5.801699645193125,2.4335139041645624,4.981285480254759,4.706733239810312,-10.76443775014789,21.119812136648978
5.82603478423477,2.3258695266630833,5.028352812652862,4.917931361176802,-11.81579747747595,21.43855705043958
5.8492934795014015,2.2077115518883237,5.0775321262646305,5.132316931681197,-12.868009266483961,21.775315136842273
5.871370595020284,2.079031459223484,5.128855295581443,5.35007008304962,-13.906747697044844,22.130956134873745
5.892160909612519,1.9399639822530357,5.182355996411939,5.571379644398357,-14.912545378442186,22.501111278387686
5.911560549435049,1.790838528468614,5.238069792855923,5.796390757182234,-15.85853715605499,22.87296990801268
5.929468934719735,1.632253156908064,5.296033700427745,6.025120456262361,-16.707277789086525,23.220767723611
5.945791466288816,1.4651803790171989,5.3562849049903685,6.25732813349847,-17.4064524913218,23.499673802910742
5.960443270078988,1.2911158541039809,5.4188581863253535,6.492324871527578,-17.883498939405225,23.638013260851988
5.973354428620028,1.1122808647099287,5.48378143504063,6.728705004136098,-18.039698435998414,23.528438203058382
5.984477237267127,0.9318838803499445,5.5510684850819905,6.963989386166682,-17.745450358555857,23.020165139996855
5.993796076070626,0.7544293767643859,5.620708378943657,7.194191037566651,-16.840499163946674,21.917138411968807
6.00134036983827,0.5860243851249192,5.692650289319324,7.413362421686339,-15.145715430465318,19.99084327015293
6.00720061368952,0.434567230820266,5.766783913536187,7.613270854387869,-12.49514072639002,17.019521322187632
6.0115462859977224,0.3096158235563658,5.842916622080066,7.783466067609745,-8.794238191846961,12.862175474620484
6.014642444233286,0.22167344163789618,5.9207512827561635,7.91208782235595,-4.096532724930829,7.55769793945373
6.016859178649665,0.1807081143885879,5.999872160979723,7.987664801750487,1.3347156924553638,1.405506349248225
6.018666259793551,0.19405527131314151,6.079748808997228,8.001719865242968,7.03268198914547,-5.041910857574294
6.020606812506682,0.2643820912045962,6.159766007649657,7.951300756667226,12.432927212488384,-11.115992493640604
6.023250633418728,0.3887113633294801,6.239279015216329,7.840140831730819,17.041765575603613,-16.247899289186943
6.027137747052023,0.5591290190855163,6.317680423533638,7.67766183883895,20.571780757020406,-20.137131244609616
6.032729037242878,0.7648468266557203,6.394457041922027,7.476290526392853,22.97281770645197,-22.781407799317684
6.0403775055094355,0.9945750037202401,6.469219947185955,7.248476448399677,24.368771082785923,-24.386083109870032
6.050323255546638,1.2382627145480993,6.5417047116699525,7.004615617300976,24.962962198710972,-25.23823199050239
6.062705882692119,1.487892336535209,6.611750867842963,6.752233297395952,24.964094645620758,-25.61260835941318
6.07758480605747,1.7375332829914165,6.679273200816922,6.49610721380182,24.548321804064443,-25.727003485486136
6.094960138887385,1.9830165010320608,6.744234272954941,6.238837178946959,23.84913341357696,-25.733815129572694
6.114790303897705,2.2215078351678303,6.806622644744411,5.981499027651232,22.96162051373365,-25.729218760310303
6.1370053822493835,2.451124040305167,6.866437635020923,5.7242068400481285,21.951469703710025,-25.767264698707592
6.161516622652435,2.670638737342267,6.923679703421405,5.466534193061053,20.86384412103314,-25.87291314804686
6.188223010025858,2.8792771785525986,6.9783450453520155,5.207805061580584,19.730440414925493,-26.052156197109667
6.2170157818113845,3.0765815827018534,7.030423095967821,4.947283499609487,18.574513844253865,-26.299244336447355
6.247781597638403,3.262326721144392,7.079895930963916,4.684291056245013,17.414205526103597,-26.601628224241207
6.280404864849847,3.436468776405428,7.126738841526366,4.418274774002601,16.26460812069033,-26.94326836247163
6.314769552613901,3.5991148576123315,7.170921589266392,4.148842090377885,15.13895016137978,-27.306830071440057
6.3507607011900244,3.750504359226129,7.212410010170171,3.8757737896634845,14.049187825989405,-27.67512426773123
6.388265744782286,3.890996237486023,7.2511677480668055,3.599022546986172,13.006209781121711,-28.03202633170694
6.427175707157146,4.021058335297241,7.287157973536667,3.3187022836691025,12.0197958900899,-28.363013596657066
6.4673862905101185,4.14125629419814,7.320344996373358,3.035072147702532,11.0984223777698,-28.655400635257248
6.5087988534521,4.252240517975838,7.350695717850383,2.7485181413499595,10.248970005759597,-28.898311845002613
6.551321258631858,4.354730218033434,7.378180899263882,2.4595350228999333,9.476363790447174,-29.082405181775272
6.594868560812192,4.449493855937906,7.402776249492882,2.168710971082181,8.783149864854769,-29.199343554775563
6.639363499371571,4.537325354586454,7.4244633592037035,1.8767175355344252,8.168995655142906,-29.240997761540083
6.684736752917436,4.619015311137883,7.4432305345590475,1.5843075579190244,7.630083477172611,-29.19835559726493
6.730926906028815,4.695316145909609,7.459073610138238,1.292324001946375,7.158356711632142,-29.06010762449497
6.777880067487911,4.76689971302593,7.471996850157701,1.0017229257014253,6.740576572395588,-28.810887287260773
6.82554906461817,4.8343054787498865,7.482014079414716,0.7136140528288175,6.357165599085632,-28.429174975673597
6.873892119405669,4.897877134740742,7.489150219943005,0.4293223030720815,5.980868202541197,-27.88495632755243
6.922870890753076,4.957685816766154,7.493443442973725,0.15047273979655723,5.575375425323453,-27.13739223956149
6.972447748920738,5.013439571019388,7.494948170371691,-0.12090118259905769,5.094275587451474,-26.133060935453322
7.022582144630932,5.064382326893903,7.493739158545701,-0.3822317919535909,4.481034936861502,-24.8058121120651
7.073225967899871,5.109192676262518,7.489916840626165,-0.6302899130742419,3.6711674086164097,-23.079903909940978
7.1243178946624965,5.145904350348682,7.483613941495423,-0.8610889521736517,2.5981725595039418,-20.878659703011405
7.175776938165983,5.171886075943721,7.475003051973687,-1.0698755492037657,1.2048032112755696,-18.140805521919955
7.22749579892542,5.183934108056477,7.464304296481649,-1.2512836044229654,-0.5399365700152683,-14.844926469265904
7.279335140005985,5.178534742356325,7.45179146043742,-1.3997328691156243,-2.6206593950331016,-11.038141617930782
7.331120487429549,5.152328148405994,7.437794131746264,-1.510114285294932,-4.959431118664826,-6.858643701563625
7.382643768913608,5.102733837219346,7.422692988893314,-1.5787007223105682,-7.414037675313744,-2.537018319917341
7.433671107285802,5.028593460466209,7.406905981670208,-1.6040709055097417,-9.798737939205033,1.6351413132043295
7.483957041890464,4.930606081074159,7.390865272615111,-1.5877194923776985,-11.925068142358116,5.365595279515025
7.533263102701206,4.811355399650578,7.3749880776913335,-1.5340635395825482,-13.64712844483642,8.428100034201934
7.581376656697711,4.6748841152022145,7.359647442295508,-1.4497825392405288,-14.8911984319387,10.706031951869464
7.628125497849733,4.525972130882828,7.345149616903102,-1.3427222197218343,-15.65881418689586,12.19711218138922
7.673385219158561,4.369383989013869,7.331722394705884,-1.2207510979079421,-16.007786151021207,12.985606371325854
7.7170790590487,4.209306127503657,7.3195148837268045,-1.0908950341946835,-16.02466619207171,13.20159830722418
7.759172120323737,4.04905946558294,7.308605933384857,-0.9588790511224417,-15.800787990448402,12.985108245529966
7.799662714979567,3.891051585678456,7.299017142873633,-0.829027968667142,-15.417299069313842,12.463184774504812
7.838573230836351,3.7368785949853174,7.290726863186961,-0.7043961209220939,-14.938830721313998,11.73967882047319
7.875942016786205,3.5874902877721775,7.28368290197774,-0.586999332717362,-14.412950452160818,10.893667352927768
7.911816919663926,3.4433607832505695,7.277812908650566,-0.4780626591880844,-13.872500768090346,9.982334880158545
7.946250527496432,3.304635775569666,7.2730322820586855,-0.37823931038649894,-13.338845926494074,9.04539612638313
7.979296885252129,3.1712473163047252,7.26924988895482,-0.2877853491226676,-12.824981995636463,8.109481200550865
8.011009358415176,3.0429974963483604,7.2663720354635934,-0.20669053711715896,-12.338098545841426,7.191828660203113
8.04143933337866,2.919616510889946,7.2643051300924215,-0.1347722505151278,-11.881520341543373,6.303139127374232
8.07063549848756,2.800801307474512,7.26295740758727,-0.07174085924138549,-11.456103671427353,5.449668387679935
8.098643511562305,2.6862402707602384,7.262239998994856,-0.017244175364586133,-11.06120418077262,4.634711315835907
8.125505914269906,2.575628228952512,7.26206755724121,0.02910293779377294,-10.695328673359072,3.8596293717503616
8.151262196559431,2.4686749422189216,7.262358586619148,0.06769923151127655,-10.356562876205906,3.1245496963240766
8.17594894598162,2.3651093134568626,7.263035578934261,0.09894472847451731,-10.042844578881777,2.428834064840244
8.19960003911619,2.2646808676680448,7.264025026219006,0.12323306912291976,-9.752132134882142,1.771389452360279
8.22224684779287,2.1671595463192235,7.265257356910235,0.14094696364652254,-9.482503289031547,1.1508710364505967
8.243918443256064,2.072334513428908,7.2666668265467,0.1524556740110285,-9.232208319349516,0.5658129327120461
8.264641788390353,1.9800124302354127,7.26819138328681,0.15811380333814895,-8.999693730990332,0.01471084582965809
8.284441912692706,1.8900154929255093,7.269772521320192,0.15826091179644552,-8.783607381527176,-0.5039269562238565
8.303342067621962,1.8021794191102376,7.271355130438156,0.15322164223420695,-8.582792263192976,-0.991549298707779
8.321363861813065,1.7163514964783078,7.272887346860498,0.14330614924712917,-8.396273699087496,-1.4495450026061258
8.338527376777849,1.632388759487433,7.27432040835297,0.12881069922106791,-8.223243052912327,-1.8792341314348446
8.354851264372723,1.5501563289583096,7.27560851534518,0.11001835790671946,-8.063039944128688,-2.2818643555185982
8.370352827662305,1.4695259295170227,7.2767086989242475,0.08719971435153348,-7.91513422307757,-2.6586103308880213
8.385048086957475,1.390374587286247,7.277580696067763,0.06061361104265327,-7.779108471714048,-3.0105747402307004
8.398951832830338,1.3125835025691064,7.278186832178189,0.030507863640346262,-7.654641473045933,-3.338790140898254
8.41207766785603,1.236037087838647,7.2784919108145925,-0.002880037768636278,-7.541492880994611,-3.6442210921701594
8.424438038734417,1.160622159028701,7.278463110436906,-0.039322248690337874,-7.439489185290716,-3.9277662467190435
8.436044260324703,1.0862272671757938,7.278069887950003,-0.07859991115752832,-7.348510978483247,-4.190260227441677
8.446906532996461,1.0127421573909614,7.2772838888384275,-0.1205025134319451,-7.268481477664676,-4.432475196225639
8.45703395457037,0.9400573426143146,7.276078863704108,-0.16482726539420148,-7.1993562210528905,-4.655122073227293
8.466434527996514,0.8680637804037857,7.274430591050166,-0.21137848612647442,-7.141113841734698,-4.858851395621541
8.47511516580055,0.7966526419864388,7.272316806188901,-0.2599670000826898,-7.093747812723011,-5.044253821493481
8.483081692220415,0.7257151638592088,7.269717136188074,-0.31040953829762463,-7.0572590557056945,-5.2118602929197735
8.490338843859007,0.6551425733021519,7.2666130408050975,-0.36252814122682236,-7.031649308267275,-5.362141875898338
8.49689026959203,0.5848260802194791,7.262987759392829,-0.4161495599858057,-7.016915149486925,-5.495509295992043
8.502738530394224,0.5146569287246099,7.2588262637929715,-0.4711046529457261,-7.0130425907050125,-5.6123121888963725
8.50788509968147,0.4445265028175598,7.254115217263514,-0.5272277748346899,-7.020002146300383,-5.712838085610829
8.512330364709646,0.37432648135455593,7.248842939515168,-0.5843561556907981,-7.037744308164617,-5.797311153103377
8.516073629523191,0.30394903827290976,7.2429993779582595,-0.6423292672218319,-7.066195356998169,-5.865890713671164
8.51911311990592,0.23328708470292805,7.236576085286041,-0.7009881743585435,-7.105253453505898,-5.918669569815493
8.52144599075295,0.16223455016786908,7.229566203542455,-0.7601748700566985,-7.154784963037683,-5.955672166451629
8.523068336254628,0.09068670053749225,7.221964454841888,-0.8197315917212148,-7.214620978264736,-5.976852628675188
8.523975203260003,0.018540490754844888,7.213767138924676,-0.8795001180079667,-7.284554016204807,-5.982092721063322
8.52416060816755,-0.05430504940720318,7.204972137744597,-0.9393210452185999,-7.36433487843417,-5.9711997835166395
8.523617557673479,-0.12794839819154488,7.195578927292411,-0.9990330430537664,-7.4536696767871105,-5.943904708822609
8.522338073691563,-0.20248509495941597,7.185588596861874,-1.0584720901419924,-7.5522170413769745,-5.899860038278172
8.520313222741969,-0.2780072653731857,7.175003875960454,-1.1174706905247742,-7.659585543493973,-5.8386382636347625
8.517533150088237,-0.35460312080812545,7.163829169055206,-1.1758570731611218,-7.775331382930937,-5.7597304360472785
8.513987118880156,-0.43235643463743484,7.152070598323595,-1.2334543775215945,-7.898956407600803,-5.662545195270092
8.509663554533782,-0.5113459987134429,7.139736054548379,-1.2900798294742954,-8.029906552920325,-5.5464083446018915
8.504550094546648,-0.5916450642426462,7.126835256253636,-1.3455439129203144,-8.167570809245609,-5.410563108479676
8.498633643904222,-0.6733207723351022,7.113379817124433,-1.399649544005111,-8.311280847463404,-5.254171219467236
8.491900436180872,-0.7564335808097363,7.099383321684382,-1.4521912561997834,-8.460311455361339,-5.076314988825928
8.484336100372774,-0.8410366953633497,7.084861409122384,-1.5029544060880426,-8.613881960182743,-4.876000518874212
8.47592573341914,-0.9271755149651771,7.069831865061504,-1.5517144112767847,-8.771158835237918,-4.65216221472391
8.46665397826949,-1.0148871033175564,7.054314720948736,-1.5982360334240238,-8.931259709858644,-4.403668746315156
8.456505107236314,-1.1041997004161428,7.038332360614496,-1.6422727208871752,-9.0932590214571,-4.129330597349857
8.445463110232152,-1.1951322906307138,7.021909633405624,-1.6835660268606738,-9.256195564945964,-3.8279093139475444
8.433511787325845,-1.2876942462801735,7.0050739731370175,-1.7218451200001492,-9.41908220712547,-3.498128530664635
8.420634844863043,-1.381885068351428,6.987855521937016,-1.7568264053067955,-9.580918040587973,-3.1386868028626527
8.40681599417953,-1.477694248757308,6.970287257883948,-1.788213273335422,-9.740703251937397,-2.7482722101788792
8.392039051691956,-1.5751012812766818,6.952405125150594,-1.8156959954372107,-9.897456971426006,-2.3255786140013366
8.376288038879188,-1.674075850990942,6.934248165196221,-1.838951781577224,-10.050238354387188,-1.8693233505246685
8.359547280369279,-1.7745782345348138,6.915858647380449,-1.8576450150824708,-10.198171118303081,-1.3782660186628994
8.341801498023932,-1.8765599457178446,6.897282197229624,-1.8714276752691,-10.340471722673763,-0.8512278778633249
8.323035898566753,-1.9799646629445822,6.878567920476933,-1.879939954047733,-10.47648133240756,-0.2871112045166079
8.303236251937307,-2.0847294762686577,6.859768520936456,-1.8828110660928992,-10.605701650486724,0.3150822319739078
8.28238895717462,-2.1907864927735248,6.840940410275526,-1.87966024377316,-10.727834644573713,0.9562346191942306
8.260481092246884,-2.2980648392192617,6.8221438078377945,-1.8700978975812177,-10.842826128770398,1.637098745790207
8.237500443854692,-2.4064931005069656,6.803442828861982,-1.8537269101233156,-10.950913101239358,2.358289339814185
8.213435512849623,-2.516002231519359,6.784905559760749,-1.8301440167251737,-11.052674687799263,3.1202808360511467
8.18827549053443,-2.6265289783973516,6.766604119593497,-1.7989412083646623,-11.149086509433223,3.923413533719669
8.162010200750457,-2.7380198434916836,6.748614707509851,-1.7597070730274655,-11.24157828760325,4.767910311909415
8.13463000231554,-2.850435626367716,6.731017636779576,-1.7120279699083714,-11.332094535381941,5.653906238958569
8.106125646051861,-2.9637565717215355,6.7138973570804925,-1.6554889075187857,-11.423158263456466,6.581493522618843
8.076488080334647,-3.0779881543561003,6.697342468005305,-1.5896739722925972,-11.517937762702472,7.550784272215365
8.045708198791086,-3.193167531983125,6.6814457282823785,-1.5141661295704436,-11.620316705103669,8.561993442456409
8.013776523471256,-3.3093706990341616,6.666304066986674,-1.4285461951458795,-11.734968011396788,9.615544041328416
7.980682816480914,-3.4267203791481293,6.652018605035216,-1.3323907547325953,-11.867432116127071,10.712196115869146
7.9464156126894325,-3.5453947003094,6.63869469748789,-1.2252687935739037,-12.024200315969887,11.853200019014137
7.910961665686338,-3.665636703469099,6.626442009552151,-1.1067367933837624,-12.2128036228892,13.040472731512892
7.874305298651647,-3.787764739697991,6.615374641618313,-0.9763320660686334,-12.441906613867243,14.276793081632393
7.836427651254668,-3.9121838058366634,6.605611320957627,-0.8335641352523095,-12.721403562281386,15.566006722409602
7.797305813196301,-4.039397841459477,6.597275679605104,-0.6779040680282136,-13.062509581648012,16.913223197091703
7.7569118347817065,-4.170022937275958,6.590496638924822,-0.5087718360572966,-13.477830739360169,18.324972722102665
7.715211605408947,-4.30480124466956,6.585408920564249,-0.32552210883627,-13.981380839172827,19.80926483984971
7.672163592962251,-4.444615053061288,6.582153699475886,-0.12742946043777287,-14.588483129085011,21.375446801963726
7.6277174424316385,-4.590499884352138,6.580879404871508,0.0863250075818644,-15.31544267492834,23.03368249701505
7.581812443588118,-4.743654311101421,6.581742654947327,0.3166618325520149,-16.17878256994367,24.793739080011484
7.534375900477103,-4.905442136800858,6.584909273272847,0.5645992233521298,-17.193676060687395,26.662538394911323
7.4853214791090945,-5.077378897407732,6.590555265506368,0.831224607301243,-18.370931565403907,28.63954064645286
7.434547690135017,-5.261088213061771,6.598867511579381,1.1176200137657717,-19.711432797533877,30.708388508836496
7.381936808004399,-5.458202541037109,6.610043711717038,1.4247038988541367,-21.196229581623072,32.82225492358867
