th1 (rad),w1 (rad/s),th2 (rad),w2 (rad/s),a1 (rad/s^2),a2 (rad/s^2)
5.715528786820402,2.798051531134762,0.47467049225812946,-0.8440872002848474,9.635153969546048,-16.098252304929584
5.743509302131749,2.8944030708302226,0.466229620255281,-1.0050697233341432,9.963130830935148,-16.81489860702263
5.772453332840052,2.994034379139574,0.4561789230219395,-1.1732187094043696,10.345577066723024,-17.570575576940946
5.802393676631448,3.0974901498068044,0.4444467359278958,-1.348924465173779,10.783701596265125,-18.365243619619964
5.833368578129516,3.2053271657694555,0.430957491276158,-1.5325769013699788,11.276283595935732,-19.195558491571752
5.865421849787211,3.318090001728813,0.4156317222624582,-1.7245324862856963,11.818090724840237,-20.05261246684026
5.898602749804499,3.436270908977215,0.39838639739960124,-1.9250586109540988,12.397473788765758,-20.918516679234337
5.932965458894271,3.560245646864873,0.37913581129006024,-2.134243777746442,12.992798390404147,-21.761353624618373
5.96856791536292,3.690173630768914,0.3577933735125958,-2.3518573139926255,13.567337808362073,-22.52798181078691
6.005469651670609,3.8258470088525347,0.33427480037266954,-2.5771371321004946,14.062367117758741,-23.13434356397935
6.043728121759134,3.966470680030122,0.3085034290516646,-2.808480567740288,14.388707944283153,-23.45365243693083
6.083392828559435,4.1103577594729535,0.2804186233742617,-3.0430170921095963,14.418314730939022,-23.304735424377068
6.124496406154165,4.254540906782344,0.24998845245316575,-3.276064446353367,13.980255669657145,-22.446703346502435
6.167041815221989,4.394343463478915,0.2172278079896321,-3.5005314798183913,12.869849007554338,-20.59232842370887
6.210985249856778,4.523041953554459,0.18222249319144818,-3.70645476405548,10.88402715642147,-17.458552430575743
6.256215669392322,4.631882225118673,0.14515794555089337,-3.8810402883612376,7.893828963762896,-12.86941009104938
6.302534491643509,4.7108205147563025,0.106347542667281,-4.009734389271731,3.9452219701997877,-6.898762024693479
6.349642696791071,4.7502727344583,0.06625019877456369,-4.078722009518666,-0.6609512053734267,0.01684935645951066
6.397145424135655,4.743663222404566,0.02546297867937703,-4.078553515954071,-5.389360224916316,7.107554158483958
6.4445820563597005,4.689769620155403,-0.01532255648016368,-4.007477974369231,-9.629544485272845,13.496281463119487
6.491479752561254,4.593474175302674,-0.055397336223855995,-3.8725151597380365,-12.91768596767042,18.513435789060726
6.537414494314281,4.46429731562597,-0.09412248782123636,-3.6873808018474294,-15.074355338725212,21.893045712812167
6.582057467470541,4.313553762238718,-0.13099629583971065,-3.4684503447193076,-16.18597494985769,23.74786389770235
6.625193005092928,4.151694012740141,-0.1656807992869037,-3.230971705742284,-16.486996553210226,24.403458532267532
6.66670994522033,3.986824047208039,-0.19799051634432654,-2.9869371204196087,-16.241114045772836,24.230085947527336
6.70657818569241,3.824412906750311,-0.22785988754852263,-2.7446362609443353,-15.672343752991253,23.544478195205876
6.744822314759913,3.6676894692203983,-0.255306250157966,-2.5091914789922765,-14.943726948417185,22.57880824156976
6.781499209452117,3.5182521997362266,-0.2803981649478888,-2.283403396576579,-14.162306553307845,21.486951424964307
6.81668173144948,3.376629134203148,-0.30323219891365455,-2.068533882326936,-13.392834475787936,20.36333997241503
6.850448022791511,3.242700789445269,-0.3239175377369239,-1.8649004826027855,-12.671328496222594,19.26183034958847
6.882875030685963,3.115987504483043,-0.3425665425629517,-1.672282179106901,-12.015551499413569,18.210379670074772
6.9140349057307935,2.995831989488907,-0.3592893643540207,-1.4901783824061532,-11.43223497752448,17.221217202658725
6.943993225625682,2.8815096397136624,-0.37419114817808224,-1.317966210379566,-10.921746192113325,16.297454425941712
6.972808322022819,2.772292177792529,-0.3873708102818779,-1.154991666120149,-10.480980758707819,15.437210004069145
7.000531243800744,2.667482370205451,-0.3989207269430794,-1.0006195660794575,-10.105100412402347,14.636109061176604
7.0272060675027985,2.5664313660814275,-0.408926922603874,-0.8542584754676914,-9.788547471820209,13.888757736361619
7.052870381163613,2.468545891363225,-0.4174695073585509,-0.7153708981040752,-9.525617655434276,13.18958674078154
7.077555840077245,2.3732897148088825,-0.4246232163395916,-0.5834750306962597,-9.310768567054824,12.53331275006215
7.101288737225334,2.2801820291383343,-0.4304579666465542,-0.4581419031956382,-9.138773061497641,11.915171616166985
7.124090557516718,2.1887942985233577,-0.4350393856785106,-0.3389901870339683,-9.004783761513488,11.331017440779819
7.145978500501951,2.098746460908223,-0.43842928754885024,-0.22568001262617013,-8.904348451919196,10.777344419057846
7.166965965111034,2.009702976389031,-0.44068608767511197,-0.11790656843559168,-8.833399857807542,10.251265628723758
7.187062994874925,1.9213689778109555,-0.4418651533594679,-0.015393912148354102,-8.788233479607808,9.750469125018075
7.206276684653035,1.8334866430148775,-0.44201909248095145,0.08211077910182665,-8.765481232518056,9.273163354087403
7.224611551083183,1.745831830689697,-0.44119798468993315,0.17484241264270067,-8.762085093231287,8.818018879068608
7.24206986939008,1.658210979757384,-0.43944956056350615,0.26302260143338674,-8.775272858485552,8.384110414614378
7.258651979187654,1.5704582511725285,-0.43681933454917227,0.3468637055795305,-8.802536898831619,7.970861387913845
7.2743565616993795,1.4824328821842123,-0.43335069749337696,0.42657231945866897,-8.841616101139987,7.577992201259771
7.289180890521221,1.3940167211728125,-0.4290849742987903,0.5023522414712667,-8.890480824216043,7.205472767657951
7.303121057732949,1.305111912930652,-0.4240614518840776,0.5744069691478462,-8.94732051510546,6.853479547999463
7.316172176862255,1.2156387077795976,-0.4183173821925992,0.6429417646278408,-9.010533570823423,6.5223571280384816
7.328328563940051,1.1255333720713634,-0.41188796454632076,0.7081653359082256,-9.078719033300281,6.212584271258698
7.339583897660765,1.0347461817383605,-0.40480631118723853,0.7702911786208126,-9.150669744851763,5.924744331488798
7.349931359478148,0.9432394842898428,-0.3971033994010304,0.8295386219357006,-9.225366649418644,5.659499884693252
7.359363754321047,0.8509858177956564,-0.3888080131816734,0.8861336207826331,-9.30197399020277,5.417571430228381
7.367873612499003,0.7579660778936287,-0.3799466769738471,0.940309335084917,-9.379835220577878,5.199720011258609
7.375453273277939,0.6641677256878499,-0.37054358362299794,0.9923065351975031,-9.458469508459387,5.006733608531889
7.3820949505348175,0.569583030603256,-0.3606205182710229,1.042373871282822,-9.537568772600153,4.83941716970426
7.38779078084085,0.47420734287725447,-0.3501967795581947,1.0907680429798647,-9.616995241544315,4.698586147187701
7.392532854269622,0.37803739046181134,-0.33928909912839605,1.1377539044517417,-9.696779571872156,4.585063430738819
7.3963132281742405,0.2810695947430898,-0.3279115600838786,1.1836045387591299,-9.777119601892952,4.499679576376409
7.399123924121671,0.18329839872416026,-0.3160755146962873,1.2286013345228939,-9.858379850165495,4.443276250125936
7.400956908108912,0.0847146002225053,-0.30378950135105837,1.2730340970241532,-9.94109189507889,4.416712822474136
7.401804054111137,-0.014696318728283586,-0.2910591603808168,1.3172012252488945,-10.02595579174424,4.420876065461395
7.401657090923854,-0.11495587664572599,-0.2778871481283279,1.3614099859035085,-10.113842694452046,4.456692916114699
7.400507532157397,-0.21609430359024645,-0.26427304826929277,1.4059769150646555,-10.20579885460466,4.525146272825364
7.398346589121495,-0.31815229213629304,-0.2502132791186462,1.4512283777929091,-10.30305115120424,4.627293778167837
7.395165066200132,-0.42118280364833544,-0.23570099534071712,1.4975013155745875,-10.407014276765256,4.764289501550617
7.3909532381636485,-0.525252946415988,-0.22072598218497125,1.5451442105900937,-10.519299634794969,4.9374083511016185
7.385700708699488,-0.6304459427639376,-0.2052745400790703,1.5945182941011098,-10.641725888130036,5.148072890386534
7.379396249271849,-0.736863201645238,-0.1893293571380592,1.645999023004975,-10.77633090287298,5.397881972105772
7.372027617255397,-0.8446265106739678,-0.17286936690800947,1.6999778427260328,-10.92538451760162,5.688640166580795
7.363581352148658,-0.953880355849984,-0.15586958848074914,1.7568642443918407,-11.091401065590118,6.022386263439523
7.354042548590158,-1.0647943665058852,-0.13830094603683074,1.817088107026236,-11.277149786477175,6.401418015501408
7.343394604925099,-1.177565864370657,-0.12013006496656839,1.88110228718125,-11.485660025024606,6.828308551411017
7.3316189462813925,-1.292422464620903,-0.1013190420947559,1.94938537269536,-11.72021618491922,7.305907165240947
7.318694721635183,-1.4096246264700953,-0.0818251883678023,2.0224444443477694,-11.984334411528582,7.837312971528611
7.304598475370483,-1.529467970585381,-0.0616007439243246,2.1008175740630555,-12.28170834945093,8.425803391714103
7.289303795664629,-1.6522850540798903,-0.04059256818369405,2.1850756079801963,-12.616104198112822,9.074689402595205
7.27278094512383,-1.7784460960610187,-0.018741812103892086,2.2758225020061484,-12.991174393232837,9.787054131551102
7.25499648416322,-1.908357839993347,0.004016412916169398,2.3736930433216594,-13.41014272735355,10.565308130208935
7.2359129057632865,-2.0424592672668824,0.027753343349385992,2.4793461246237487,-13.875289051081078,11.410459927843561
7.215488313090618,-2.181212157777693,0.052546804595623484,2.5934507239021842,-14.387125697294286,12.320949795087095
7.193676191512841,-2.325083414750636,0.07848131183464532,2.716660221853055,-14.943107284976662,13.290823586604596
7.1704253573653345,-2.4745144876004024,0.10564791405317588,2.849568457719101,-15.535649632819736,14.30693071731726
7.145680212489331,-2.6298709839286,0.1341435986303669,2.9926377648922737,-16.149159211049486,15.344725666734645
7.119381502650045,-2.7913625760390945,0.16406997627928965,3.14608502155962,-16.75572047522246,16.36217607476787
7.091467876889654,-2.958919780791319,0.19553082649488585,3.3097067823072988,-17.30913253886588,17.291342160868723
7.061878679081741,-3.132011106179978,0.22862789431795882,3.482620203915986,-17.737305430649975,18.027640239398064
7.030558568019941,-3.309384160486478,0.2634540963571187,3.6628966063099666,-17.933957701471176,18.418113660630716
6.997464726415076,-3.4887237375011897,0.30008306242021837,3.847077742916274,-17.752609253893308,18.252923736078955
6.962577489040065,-3.666249830040123,0.3385538398493811,4.029606980277063,-17.00943290952325,17.269303315846138
6.925914990739663,-3.8363441591353555,0.3788499096521517,4.202300013435525,-15.505844740520216,15.183308490863222
6.88755154914831,-3.9914026065405577,0.42087290978650693,4.354133098344157,-13.082676125531885,11.766095431824812
6.847637523082905,-4.122229367795876,0.4644142407699485,4.471794052662405,-9.706521434705861,6.965669541100665
6.806415229404946,-4.219294582142935,0.5091321812965726,4.541450748073411,-5.558089749437182,1.0317905472632611
6.764222283583517,-4.274875479637307,0.5545466887773067,4.551768653546044,-1.0566925131189275,-5.448577543547177
6.721473528787143,-4.285442404768497,0.6000643753127671,4.497282878110572,3.236946029882455,-11.68677667462383
6.678619104739458,-4.253072944469672,0.6450372040938729,4.380415111364334,6.813223906082514,-16.962368687528713
6.6360883752947615,-4.184940705408847,0.6888413552075162,4.210791424489047,9.38299925409699,-20.861296700214815
6.594238968240673,-4.091110712867877,0.7309492694524067,4.002178457486899,10.920442905374568,-23.33721964287827
6.5533278611119945,-3.9819062838141317,0.7709710540272756,3.768806261058116,11.586526236224596,-24.605576143824074
6.513508798273853,-3.8660410214518857,0.8086591166378567,3.5227504996198755,11.615714484597788,-24.985736339945667
6.474848388059335,-3.749883876605908,0.8438866216340555,3.2728931362204188,11.23258418471301,-24.78458785171708
6.437349549293276,-3.637558034758778,0.8766155529962597,3.025047257703248,10.614361516286486,-24.244045969140977
6.400973968945689,-3.531414419595913,0.9068660255732922,2.7826067980118383,9.885503550293594,-23.533223763573265
6.36565982474973,-3.432559384092977,0.9346920935534107,2.547274560376106,9.12663021662944,-22.760637784687567
6.3313342309088,-3.3412930819266826,0.9601648391571718,2.31966818252923,8.386656282046044,-21.99092390594564
6.297921300089532,-3.257426519106222,0.9833615209824641,2.0997589434697734,7.693346432379665,-21.259409033437514
6.26534703489847,-3.1804930547824255,1.0043591104171619,1.8871648531353982,7.061098606226482,-20.58286881765884
6.233542104350646,-3.1098820687201605,1.023230758948516,1.6813361649588097,6.496213332718576,-19.966822483597326
6.202443283663444,-3.044919935392975,1.040044120598104,1.4816679401228363,6.000282786464771,-19.410239455207112
6.171994084309515,-2.984917107528327,1.0548607999993322,1.2875655455707653,5.572294961540691,-18.908480146640695
6.142144913234231,-2.92919415791292,1.06773645545504,1.0984807441043583,5.209902306817465,-18.4550912137784
6.112852971655102,-2.8770951348447453,1.0787212628960836,0.9139298319665743,4.9101630509906835,-18.042880217064674
6.084082020306655,-2.8279935043348385,1.0878605612157493,0.7335010297959276,4.669956390009912,-17.664546431944768
6.0558020852633065,-2.781293940434739,1.0951955715137085,0.5568555654764799,4.486199237101865,-17.313042793727966
6.027989145858959,-2.7364319480637205,1.1007641271684734,0.3837251375392002,4.355944317579625,-16.981777559044325
6.000624826378322,-2.6928725048879243,1.1046013785438653,0.21390736194875692,4.276409006616218,-16.66472211171587
5.973696101329443,-2.650108414821762,1.1067404521633528,0.04726014083159821,4.244965348351805,-16.35646499794427
5.947195017181225,-2.6076587613382443,1.1072130535716689,-0.11630450914784449,4.259109969580587,-16.05223596758158
5.9211184295678425,-2.5650676616424386,1.1060500084801905,-0.2768268688236603,4.316425382537828,-15.747913770144772
5.895467752951419,-2.52190340781706,1.1032817397919539,-0.43430600652510803,4.414539730853856,-15.440025331911311
5.870248718873248,-2.4777580105085217,1.098938679726703,-0.5887062598442212,4.551089292890378,-15.125740244237928
5.845471138768163,-2.432247117579618,1.0930516171282607,-0.7399636622866005,4.723686351675182,-14.802862307033932
5.821148667592367,-2.385010254062866,1.0856519805053948,-0.8879922853569397,4.929893962046927,-14.469818628294114
5.797298565051738,-2.335711314442397,1.0767720576518254,-1.0326904716398808,5.16720844456578,-14.12564612863791
5.773941451907314,-2.284039229996739,1.0664451529354266,-1.17394693292626,5.433049962045842,-13.769975018243944
5.751101059607347,-2.2297087303762804,1.0547056836061641,-1.3116466831086995,5.724761198788271,-13.40300876232865
5.728803972303584,-2.1724611183883975,1.041589216775077,-1.445676770731986,6.0396139124867885,-13.025500140084162
5.707079361119701,-2.1120649792635295,1.0271324490677571,-1.5759317721328276,6.374822934567222,-12.638723171683848
5.685958711327065,-2.0483167499178574,1.011373131346429,-1.702319003849666,6.727567039967665,-12.244440899591277
5.6654755438278865,-1.9810410795181808,0.9943499413079323,-1.8247634128455787,7.095015983325034,-11.844869238297479
5.645665133032705,-1.9100909196849305,0.9761023071794765,-1.9432121052285536,7.474362900803427,-11.442637334157249
5.626564223835856,-1.8353472906768962,0.956670186127191,-2.057638478570126,7.862861203415378,-11.04074509381721
5.608210750929087,-1.7567186786427424,0.9360938013414898,-2.168045929508298,8.257865038140581,-10.642518739605688
5.590643564142659,-1.6741400282613366,0.9144133420464068,-2.2744711169043548,8.656872367932255,-10.25156542952684
5.573902163860046,-1.587571304582014,0.8916686308773633,-2.3769867711996233,9.057569722092273,-9.87172813582089
5.558026450814226,-1.4969956073610913,0.8678987631653671,-2.475704052557832,9.457877696332012,-9.507042107444668
5.543056494740615,-1.402416830397771,0.8431417226397887,-2.570774473632279,9.855996339175418,-9.161694346087126
5.529032326436637,-1.3038568670060169,0.817433977903466,-2.66239141709315,10.250449649910239,-8.839987599710051
5.5159937577665765,-1.2013523705069145,0.7908100637325345,-2.7507912930902507,10.640128533585765,-8.546310418693517
5.503980234061507,-1.0949510851710569,0.763302150801632,-2.836254397277186,11.024331708873575,-8.285114823331645
5.493030723209797,-0.9847077680823211,0.7349396068288602,-2.9191055455105026,11.40280423965624,-8.060903092454621
5.483183645528974,-0.8706797256857587,0.7057485513737551,-2.999714576435049,11.775773550459247,-7.878225094043315
5.474476848272116,-0.7529219901811662,0.6757514056094046,-3.0784968273754822,12.143982971364192,-7.7416874282103505
5.4669476283703045,-0.6314821604675243,0.6449664373356497,-3.155913701657586,12.508723011393654,-7.655975420594394
5.460632806765629,-0.5063949303535877,0.6134073003190739,-3.2324734558635297,12.871860636742792,-7.625888653742819
5.455568857462093,-0.3776763239861598,0.5810825657604386,-3.308732342400958,13.235866764565964,-7.656390190619265
5.451792094222231,-0.24531765634050015,0.547995242336429,-3.3852962443071504,13.603841870669777,-7.752668814258918
5.449338917658826,-0.10927923763380237,0.5141422798933576,-3.4628229324497397,13.979538887934925,-7.920212285059392
5.4482461252824885,0.03051615124554688,0.4795140505688602,-3.542025055300334,14.367381182988172,-8.16488747046493
5.448551286794944,0.1741899630754286,0.44409380001585685,-3.623673930004983,14.772470924919658,-8.49301967493722
5.450293186425698,0.32191467232462523,0.407857060715807,-3.7086041267543552,15.200578924865944,-8.911457666943907
5.453512333148945,0.4739204615732847,0.37077101944826346,-3.7977187034237945,15.658099925316337,-9.42760123724203
5.458251537764678,0.6305014608264481,0.3327938324140255,-3.8919947157962147,16.151945554087646,-10.04935212109164
5.464556552372942,0.7920209163673245,0.29387388525606334,-3.992488237007131,16.68932781468975,-10.784922691482048
5.472476761536615,0.958914194514222,0.25394900288599204,-4.100337463921951,17.277354398489894,-11.642393419315127
5.482065903481757,1.1316877384991209,0.21294562824677252,-4.216761398115103,17.92230599557324,-12.628839413164135
5.493382780866749,1.3109107984548531,0.1707780142656215,-4.343049792246744,18.62838430151571,-13.748732975627417
5.506491888851297,1.4971946414700104,0.12734751634315405,-4.480537122003018,19.39559282093235,-15.001151890671446
5.5214638352659975,1.6911505696793339,0.08254214512312387,-4.6305486409097325,20.21622484191734,-16.375058605473743
5.538375340962791,1.8933128180985073,0.036236658714026544,-4.79429922696447,21.069178845258882,-17.841554147312145
5.557308469143776,2.1040046065510962,-0.011706333555618155,-4.972714768437592,21.911043940776963,-19.341608614105112
5.578348515209287,2.3231150459588656,-0.06143348123999407,-5.166130854578642,22.662784289793162,-20.767583531250498
5.601579665668876,2.5497428888567972,-0.1130947897857805,-5.373806689891147,23.191447128375657,-21.93764428239006
5.6270770945574435,2.781657360140554,-0.16683285668469197,-5.593183132715048,23.288890059338026,-22.56567670324764
5.654893668158849,3.014546260733934,-0.22276468801184246,-5.818839899747524,22.656330417630397,-22.23873958258916
5.685039130766188,3.241109564910238,-0.2809530870093177,-6.041227295573416,20.916726716780477,-20.432481498118133
5.71745022641529,3.4502768320780426,-0.34136535996505185,-6.245552110554597,17.692890803794526,-16.61726037118662
5.751952994736071,3.627205740115988,-0.4038208810705978,-6.411724714266462,12.78527938505791,-10.502655297355684
5.78822505213723,3.755058533966567,-0.4679381282132624,-6.51675126724002,6.414881161543391,-2.373256579676892
5.825775637476896,3.819207345582001,-0.5331056408856626,-6.540483833036789,-0.6416106852931419,6.723309385982856
5.863967710932716,3.812791238729069,-0.5985104792160305,-6.473250739176961,-7.24799296180013,15.24575657978649
5.902095623320006,3.740311309111068,-0.6632429866078001,-6.320793173379096,-12.408137245412844,21.84625499679888
