th1 (rad),w1 (rad/s),th2 (rad),w2 (rad/s)
0.04397526213761753,-3.1333045796068553,4.331484997148405,1.7213538295573838
0.012642216341548974,-3.11212523758564,4.3486985354439796,1.9105074236685093
-0.018479036034307426,-3.095856395065511,4.3678036096806645,2.098151599915945
-0.049437599984962534,-3.08502313608586,4.388785125679824,2.2846532682837166
-0.08028783134582114,-3.080144314089554,4.411631658362661,2.470506612299996
-0.11108927448671668,-3.0817437794202607,4.4363367244856615,2.65633432583283
-0.14190671228091928,-3.090363266677404,4.462900067743989,2.8428906408218015
-0.17281034494769332,-3.1065768570892733,4.491328974152207,3.031066815329449
-0.20387611351858606,-3.1310069550472486,4.521639642305502,3.2218996376664046
-0.23518618306905853,-3.1643416830526605,4.553858638682166,3.416583321321397
-0.26682959989958516,-3.2073534463931415,4.5880244718953795,3.6164848488147174
-0.29890313436351656,-3.2609180439567993,4.624189320383527,3.823162236463694
-0.3315123148030846,-3.326032917351098,4.662420942748164,4.038384084349916
-0.36477264397659553,-3.403831595987989,4.702804783591663,4.26414668016061
-0.3988109599364754,-3.4955884910316057,4.745446250393269,4.502680987549397
-0.43376684484679146,-3.602702799174142,4.790473060268763,4.756434522306336
-0.46979387283853286,-3.726640430532223,4.838037405491826,5.027999665454737
-0.507060277143855,-3.8687952670331045,4.888317402146373,5.3199357573855695
-0.5457482298141861,-4.030200680357047,4.941516759720229,5.634390307422218
-0.5860502366177566,-4.210973382750122,4.9978606627944515,5.972356669045616
-0.6281599704452578,-4.409304575520704,5.057584229484908,6.332311389912628
-0.6722530162004648,-4.619758299625155,5.120907343384034,6.707895411947224
-0.7184505991967164,-4.83071952596294,5.187986297503506,7.084413036726459
-0.7667577944563457,-5.021390476668995,5.2588304278707705,7.4346876682013345
-0.8169716992230357,-5.160288979242068,5.333177304552784,7.716967878894949
-0.8685745890154564,-5.209535226063023,5.410346983341733,7.880815423706532
-0.9206699412760866,-5.138796170544315,5.489155137578798,7.8863174497151025
-0.9720579029815297,-4.943587437252466,5.568018312075949,7.729211277444241
-1.0214937773540544,-4.650889175455329,5.645310424850392,7.448287426916435
-1.0680026691086077,-4.3037540168504185,5.719793299119556,7.103781953056966
-1.111040209277112,-3.9403939467869105,5.790831118650126,6.748498524327667
-1.150444148744981,-3.5846539570052025,5.858316103893403,6.414973348082221
-1.186290688315033,-3.247523423616064,5.922465837374225,6.117889184547565
-1.2187659225511938,-2.932049670035916,5.983644729219701,5.8610342548455545
-1.2480864192515528,-2.637337859809581,6.042255071768156,5.642871451069967
-1.2744597978496486,-2.3609006881867023,6.098683786278856,5.459767266007218
-1.2980688047315156,-2.0998320149267555,6.1532814589389275,5.307577711060093
-1.3190671248807833,-1.8513273880171273,6.206357236049528,5.182331331697473
-1.3375803987609545,-1.612882207411254,6.258180549366503,5.080471340314572
-1.353709220835067,-1.3823429128323723,6.3089852627696485,4.998899468308888
-1.3675326499633906,-1.1578968664845188,6.358974257452737,4.934938876548263
-1.3791116186282357,-0.9380406665427612,6.40832364621822,4.886269933928882
-1.3884920252936634,-0.7215443723171694,6.457186345557508,4.850862220635538
-1.3957074690168352,-0.5074186782233815,6.505694967763864,4.8269120297506385
-1.400781655799069,-0.29488730646034333,6.55396408806137,4.812788364173542
-1.4037305288636726,-0.08336479324990329,6.602091971703106,4.806987789462522
-1.4045641767961716,0.12756101534192213,6.6501618495977315,4.808097526799686
-1.4032885666427524,0.3381427413998165,6.698242824865728,4.81476592280343
-1.399907139228754,0.5484845644805172,6.746390484093762,4.825679480004555
-1.394422293583949,0.7585516102339794,6.794647278893808,4.839545772638665
-1.3868367774816093,0.9681785331499646,6.843042736620195,4.85508171568428
-1.3771549921501096,1.1770780735629203,6.891593553777038,4.871006760994279
-1.3653842114144805,1.3848502382439065,6.940303621386981,4.886040647930329
-1.3515357090320415,1.5909926065841706,6.989164027866284,4.898905335048928
-1.3356257829661997,1.7949120999896373,7.038153081216773,4.908330690001817
-1.3176766619663034,1.9959383730725446,7.087236388116791,4.913063428764976
-1.297717278235578,2.1933387983837838,7.136367022404441,4.911878689333398
-1.27578389025174,2.386334833230211,7.1854858092977745,4.903593519435895
-1.251920541919438,2.5741193926422126,7.234521744492134,4.887081474540526
-1.2261793479930159,2.7558747234415333,7.283392559237539,4.861287482109471
-1.1986206007586004,2.9307901959754123,7.332005434058634,4.825242146829088
-1.1693126987988463,3.098079413390693,7.380257855526925,4.778074757677852
-1.1383319046649394,3.256996087112123,7.428038603103704,4.719024409269801
-1.1057619437938182,3.40684823637395,7.4752288471964015,4.647448853915232
-1.0716934614300786,3.547010425118956,7.521703335735554,4.5628309343235935
-1.036223357178889,3.6769339297867547,7.56733164507879,4.464782680061205
-0.9994540178810215,3.7961549106221133,7.611979471879402,4.3530473517771595
-0.9614924687748003,3.904300811038763,7.655509945397173,4.227499856852002
-0.9224494606644127,4.001095312064747,7.697784943965694,4.0881460174154824
-0.8824385075437652,4.086362207152505,7.738666404139848,3.93512113703115
-0.8415748854722401,4.160028531489066,7.7780176155101595,3.7686881894863173
-0.7999746001573494,4.222127184624357,7.815704497405022,3.5892357589791604
-0.7577533283111059,4.2727991406912045,7.851596854994814,3.397275623774187
-0.7150253369041938,4.312295169442671,7.885569611232556,3.19343963127728
-0.6719023852097671,4.340976821433443,7.917504007545329,2.97847530121283
-0.6284926169954327,4.359316291002171,7.947288760557457,2.7532394533987956
-0.584899454085411,4.367894687883371,7.974821155091445,2.5186891187616296
-0.5412205072065773,4.367398242443738,8.000008046279062,2.2758690756492586
-0.49754652478213995,4.358612050749228,8.022766737035555,2.025895560343063
-0.4539604042746477,4.342411131207372,8.043025692638986,1.7699360137045328
-0.41053629296257393,4.3197487979536,8.060725052776032,1.5091851087876529
-0.36733880498303795,4.29164262869358,8.075816903863908,1.2448377055060549
-0.32442237869610213,4.259158579254729,8.088265280918968,0.9780597389462833
-0.28183079290355484,4.223394034295815,8.098045878308431,0.7099583110291969
-0.23959685256059668,4.185460749064051,8.105145461418724,0.44155237739660785
-0.19774224506995616,4.146468707849561,8.10956098519269,0.1737453807445482
-0.15627755799146056,4.107511893723874,8.111298439000135,-0.09269901768252359
-0.11520243905422181,4.069656840807473,8.11037144882331,-0.3571772865212049
-0.07450587064614708,4.033934648241944,8.106799675958097,-0.619262044120839
-0.03416652416372764,4.0013369063075235,8.100607055516889,-0.8787137831535174
0.005846844899347593,3.9728157534694497,8.091819917685354,-1.1354887506289573
0.04557500243404209,3.949288077414727,8.080465030179065,-1.389743783558119
0.08506788320818937,3.931643712209087,8.066567592343484,-1.6418391538275383
0.12438432033028024,3.9207573730915755,8.050149200805208,-1.892340617695247
0.163591894061196,3.9175040001847337,8.031225794628256,-2.1420218881237414
0.20276693406304336,3.9227771245225367,8.009805575747018,-2.391868640970815
0.24199470530826872,3.937509772548964,7.98588688933731,-2.6430848975299877
0.28136980303375836,3.962697200343571,7.95945604036201,-2.897102118005011
0.3209967750371941,3.99942024498724,7.93048501918196,-3.1555904252069196
0.3609909774870665,4.048867032106282,7.898929114929891,-3.4204697219898232
0.4014796478081293,4.112348710751232,7.864724417709993,-3.6939154376630405
0.4426031349156416,4.19130094469819,7.827785263333363,-3.9783480694723616
0.4845161443626235,4.287255548532698,7.788001782638639,-4.2763854656392395
0.5273886998479506,4.401753276870971,7.745237927982246,-4.590718248971455
0.5714062326166602,4.5361450786235835,7.6993307454925315,-4.9238359199112125
0.6167676834028961,4.691189220049411,7.650092386293419,-5.277475705213805
0.6636795756033902,4.866291040411952,7.597317629241282,-5.651581629075092
0.7123424860075097,5.058161173487152,7.540801812950531,-6.042461732861426
0.7629240977423812,5.2586550604007485,7.480377195621917,-6.4398113802431975
0.8155106483463888,5.451825308219277,7.415979081819485,-6.822641872376922
0.8700289014285816,5.611250089948292,7.347752663095715,-7.155587935219242
0.9261414023280645,5.700880698084124,7.276196783743523,-7.390103608613646
0.9831502093089057,5.684359925004764,7.202295747657387,-7.477428473279205
1.0399938085589533,5.543156640428303,7.127521462924595,-7.393752392121377
1.0954253749632363,5.290653367745283,7.053583939003381,-7.159588776193898
1.1483319086406891,4.965793868254071,6.9819880512414425,-6.830602645794175
1.1979898473232298,4.611460565088335,6.913682024783501,-6.467361200144505
1.2441044529741132,4.258427848190513,6.849008412782056,-6.113134834764354
1.2866887314560183,3.922771145124483,6.787877064434412,-5.7905297257249115
1.3259164429072632,3.6102309840308373,6.7299717671771635,-5.507726946328243
1.3620187527475716,3.320993560786074,6.674894497713881,-5.265203911653298
1.3952286883554323,3.0528076564441884,6.622242458597348,-5.06008444158963
1.4257567649198741,2.8026241992528025,6.571641614181451,-4.8884113663773965
1.4537830069124023,2.56735083156027,6.522757500517677,-4.746182428899092
1.479456515228005,2.3441542505465707,6.475295676228686,-4.6297572627768835
1.5028980577334707,2.130551736054845,6.428998103600917,-4.535972455935252
1.5242035750940193,1.9244123307245797,6.383638379041565,-4.462131981297477
1.543447698401265,1.7239242139929019,6.33901705922859,-4.405951051352512
1.560686940541194,1.527553501683889,6.294957548715065,-4.365487966588109
1.575962475558033,1.334004973266178,6.251302669049184,-4.339078189759494
1.5893025252906947,1.142188508062498,6.207911887151589,-4.325275681444378
1.6007244103713196,0.9511920577815096,6.164659130337145,-4.322802561257265
1.6102363309491348,0.7602607645744953,6.121431104724572,-4.3305065924172546
1.6178389385948797,0.5687813940454418,6.0781260388003995,-4.347325500795123
1.623526752535334,0.37627114509053905,6.034652783792448,-4.3722571177922305
1.6272894639862394,0.1823699186206271,5.990930212614526,-4.404334496706344
1.6291131631724456,-0.013164815192309942,5.946886867647462,-4.442605366656864
1.6289815150205225,-0.2104613527408699,5.902460813980894,-4.486115499680162
1.6268769014931137,-0.40953604798369875,5.857599658984093,-4.53389574983929
1.6227815410132767,-0.6102952685378794,5.8122607014857,-4.5849526659463615
1.6166785883278978,-0.812537684003522,5.766411174826237,-4.638262674699768
1.6085532114878627,-1.0159574999295575,5.720028548079239,-4.6927698736380234
1.5983936364885671,-1.220149175534587,5.673100849342859,-4.74738745981371
1.5861921447332212,-1.4246140575161899,5.625626974744722,-4.801002749508519
1.5719460041580593,-1.6287692206512403,5.577616947249637,-4.8524856197735495
1.5556583119515468,-1.8319586283832696,5.5290920910519015,-4.9007000330026225
1.537338725667714,-2.0334665199205375,5.480085090721875,-4.944518106971554
1.5170040604685087,-2.232532708551732,5.43063990965216,-4.98283598761338
1.4946787333829914,-2.428369259585647,5.380811549776026,-5.014590598525865
1.470395040787135,-2.620177830650296,5.330665643790767,-5.038776210360146
1.444193262480632,-2.807166827980545,5.280277881687166,-5.054459722976553
1.4161215942008265,-2.988567481958754,5.2297332844574,-5.06079360405806
1.386235919381239,-3.163647987343706,5.17912534841682,-5.0570255877583055
1.354599439507802,-3.3317249901802595,5.128555092539237,-5.042504498475995
1.3212821896059994,-3.49217192275316,5.0781300475544775,-5.0166819048648685
1.286360470378468,-3.644423966299615,5.027963228505829,-4.979109691864103
1.2499162307154716,-3.787979726116915,4.978172131587188,-4.929434020917731
1.2120364334543026,-3.922399999593037,4.928877791378011,-4.867386487597098
1.1728124334583723,-4.047304271547943,4.88020392650204,-4.792773545144094
1.132339390742893,-4.162365757523962,4.8322761910506,-4.705465417172604
1.0907157331676534,-4.2673059189969695,4.785221536878874,-4.605385761756438
1.0480426739776836,-4.361889390328695,4.7391676792613096,-4.4925032741855215
1.0044237800743967,-4.445920190210154,4.694242646519454,-4.366826238541721
0.9599645781722952,-4.51923995117013,4.650574384134037,-4.228400776654097
0.9147721786605939,-4.581728703357087,4.6082903763674965,-4.077313216919995
0.868954891627023,-4.633308507785025,4.567517244198297,-3.913696634759625
0.8226218065491727,-4.673949963504625,4.5283802778507,-3.737741220237908
0.7758823069141265,-4.7036813262823545,4.491002865648321,-3.549707726269283
0.728845493651303,-4.722599687910952,4.455505788385628,-3.349942865307899
0.6816194967721935,-4.730883392733371,4.422006359732549,-3.1388951813270562
0.6343106628448598,-4.7288046333383456,4.390617407919279,-2.91712966161668
0.5870226165114764,-4.7167409974223045,4.3614461113031116,-2.6853392092993587
0.5398552065372533,-4.695184662069411,4.334592719210118,-2.444351113156224
0.49290335991655915,-4.664747978051669,4.310149208078555,-2.1951268598037035
0.44625588013604245,-4.626164374639904,4.2881979394805185,-1.9387540501345195
0.3999942363896434,-4.580283848190579,4.2688103989791735,-1.6764297945299007
0.35419139790773757,-4.5280627562736795,4.252046101033875,-1.4094357214578328
0.30891077034500075,-4.470548179134544,4.237951743819297,-1.1391055579448361
0.2642052885536553,-4.408857666056518,4.226560688239848,-0.8667870182203317
0.22011671189309015,-4.3441556783935455,4.217892818057645,-0.5938003513614657
0.17667515510915469,-4.277628399813724,4.21195481454403,-0.32139624959531843
0.13389887111101745,-4.210458753434303,4.208740852048077,-0.050715845689867256
0.09179428357667441,-4.143803423117031,4.208233693591178,0.21724477457117358
0.050356249345504096,-4.078773437627118,4.21040614133689,0.4816636985621039
0.009568514969232916,-4.016419490132964,4.21522277832251,0.7419148656888506
-0.030595679932096727,-3.9577227011751286,4.222641926979398,0.9975820350989342
-0.070172906943848,-3.903591065340955,4.232617747330388,1.2484655472561546
-0.10920881759725756,-3.8548614148620928,4.245102402802949,1.49458301085362
-0.1477574317458785,-3.8123064308739543,4.260048232911486,1.7361654794198458
-0.18588049605461804,-3.7766460537978546,4.2774098877056845,1.9736509096852626
-0.2236469565925966,-3.7485625833372107,4.297146396802537,2.2076767362791534
-0.2611325824259687,-3.7287187923889364,4.3192231641653285,2.4390732924532617
-0.29841977034985806,-3.7177784709732413,4.3436138970898615,2.6688595941296476
-0.3355975550595905,-3.7164289189277397,4.370302493031158,2.8982427104740567
-0.3727618442488679,-3.7254049596863363,4.399284920135899,3.1286215633803613
-0.4100158938457312,-3.745513968426594,4.430571135769703,3.3615954733679034
-0.4474710335299972,-3.7776610647098363,4.464187090503382,3.5989769564605854
-0.48524764417709554,-3.8228727861324425,4.500176860067987,3.842806883203492
-0.52347637203842,-3.8823158282419783,4.538604928900022,4.095367581424491
-0.5622995303208398,-3.957304064366491,4.579558604714267,4.359184769296854
-0.6018725709645047,-4.049280700226371,4.623150452407235,4.637000469762045
-0.6423653779667684,-4.1597506866284215,4.669520457104856,4.931682952119984
-0.6839628848330526,-4.290117399510078,4.718837286626055,5.246010657041423
-0.7268640588281533,-4.441341115031186,4.77129739319647,5.582216558103973
-0.7712774699784651,-4.6132786492236795,4.827119558777509,5.941098469743481
-0.817410256470702,-4.803486742003856,4.886530543474944,6.320393152834084
-0.8654451238907406,-5.005222783810494,4.949734475003285,6.712041478796326
-0.9154973517288455,-5.204533276623428,5.016854889791248,7.0981852386667095
-0.9675426844950797,-5.37712658153684,5.087836742177915,7.446851268030148
-1.0213139503104482,-5.487750257703437,5.162305254858216,7.711088975627387
-1.0761914528874825,-5.497211375234079,5.2394161446144905,7.838685836077894
-1.1311635666398234,-5.37977230686501,5.317803002975269,7.796214405289173
-1.1849612897084736,-5.140981965873656,5.395765147028161,7.593519211195285
-1.23637110936721,-4.816784075704074,5.471700339140114,7.282076134744781
-1.2845389501242508,-4.452563032786455,5.544521100487561,6.925679803041381
-1.3290645804521153,-4.0834380619161115,5.6137778985179745,6.573255674339317
-1.3698989610712764,-3.72882796503199,5.679510455261368,6.251664230879155
-1.4071872407215964,-3.396275177035495,5.742027097570159,5.97126628865747
-1.4411499924919513,-3.0866997985895366,5.801739760456734,5.733321603424843
-1.4720169904778466,-2.798028393152369,5.859072976490982,5.5350387754064
-1.4999972744093704,-2.5271475301227957,5.914423364245046,5.3722639559756065
-1.5252687497105983,-2.2708151045952443,5.968146003804802,5.2407151773401885
-1.5479769007565507,-2.026032568280681,6.020553155578203,5.1364702580912605
-1.5682372264393576,-1.7901648924045452,6.071917858159116,5.056108129563203
-1.5861388753634031,-1.5609520870244387,6.122478939454748,4.996702443211011
-1.6017483962336476,-1.336479731408931,6.172445963886858,4.955759863578655
-1.615113193547737,-1.1151385646514242,6.222003562522644,4.931143718348435
-1.6262645791942512,-0.8955856470571595,6.271314999706129,4.920999660035193
-1.6352204356648228,-0.6767116243648674,6.320524996306481,4.923689242814823
-1.6419875519084715,-0.4576151156001166,6.369761888734629,4.93773273883958
-1.6465637030644726,-0.2375837763975559,6.419139216123025,4.961760753474496
-1.6489395408284482,-0.0160810287333015,6.4687568236577695,4.99447368530614
-1.6491003511157811,0.20726272808698665,6.518701560510831,5.034608093655592
-1.6470277238349114,0.43265563733251144,6.569047641447387,5.080909253061299
-1.6427011674615863,0.6601478255938358,6.619856733978,5.132109438988484
-1.636099689205648,0.889633918081028,6.671177828367885,5.186911730481997
-1.6272033500248377,1.1208557358099007,6.723046945672705,5.243979297369051
-1.6159947926667386,1.35340621457275,6.7754867386463955,5.301930240924718
-1.602460730521011,1.5867354802348894,6.828506041055642,5.359338064371913
-1.586593375718662,1.8201598548424625,6.882099421699362,5.414737756520136
-1.5683917771702376,2.052874341519839,6.936246799264564,5.466637280142421
-1.5478630337550392,2.283968840939462,6.990913172065988,5.513533979892907
-1.5250233453456445,2.5124479991454107,7.046048511864917,5.553935090395276
-1.4998988653541905,2.737254201534011,7.10158786276887,5.586381175874506
-1.4725263233388504,2.957292850633743,7.157451674527615,5.60947102228175
-1.4429533948325128,3.171458745241088,7.213546384750432,5.621886290012685
-1.4112388073801019,3.3786621662713094,7.269765247650559,5.622414173484554
-1.3774521857173887,3.577853212616816,7.325989389385405,5.609966439591115
-1.3416736535912206,3.768043041942925,7.382089053781316,5.583593539932457
-1.3039932231717914,3.948320954255422,7.43792498918064,5.542492988519906
-1.2645100136292373,4.117866679603598,7.49334991906584,5.486011812493708
-1.2233313468332014,4.275957740618578,7.548210037190777,5.413643539901257
-1.1805717694270157,4.421972286262285,7.602346472589789,5.325020797608011
-1.1363520465643928,4.555388263651125,7.6555966805658695,5.219905071658145
-1.0907981639278816,4.675780148875767,7.7077957312824505,5.098175469062403
-1.044040362439124,4.78281465345258,7.7587774859730745,4.959818379173955
-0.9962122159045981,4.876246841856609,7.808375669764814,4.804919759489935
-0.947449747486032,4.955917941300993,7.8564248673597135,4.63366138608611
-0.897890568073022,5.021755819212407,7.902761481220574,4.446321853612978
-0.847673009880898,5.073778680542351,7.947224699756704,4.243282436987941
-0.7969352230754745,5.112102037343332,7.989657524126584,4.02503719726847
-0.7458142027020411,5.136948472749198,8.02990789609927,3.792205993728802
-0.6944447179745491,5.148659210345929,8.067829956036556,3.545548424080489
-0.6429581258710898,5.147706061504943,8.10328544027736,3.2859762308313822
-0.5914810652560404,5.13470201380175,8.136145202585675,3.014561460558487
