th1 (rad),w1 (rad/s),th2 (rad),w2 (rad/s),a1 (rad/s^2),a2 (rad/s^2)
5.2663262172649405,-3.022624252558047,2.3191489570698387,0.5399271852394275,10.89173508857626,5.270058318190744
5.23609997473936,-2.9137069016722843,2.324548228922233,0.5926277684213349,11.236314930353938,5.730676049933205
5.206962905722637,-2.8013437523687448,2.3304745066064463,0.6499345289206669,11.479577121143405,6.029104571816336
5.17894946819895,-2.6865479811573105,2.336973851895653,0.7102255746388303,11.63142734889537,6.181980191459123
5.152083988387377,-2.570233707668357,2.3440761076420413,0.7720453765534215,11.703099552582541,6.207901223889056
5.126381651310693,-2.4532027121425313,2.3517965614075758,0.8341243887923121,11.706431071154755,6.126264336413669
5.101849624189268,-2.3361384014309836,2.3601378052954987,0.8953870321564488,11.653255806696066,5.956301379159188
5.078488240174958,-2.219605843364023,2.3690916756170632,0.9549500459480407,11.55492805727455,5.7163365309946865
5.056292181741318,-2.1040565627912775,2.3786411760765436,1.0121134112579875,11.42197679957533,5.423260943160429
5.035251616113405,-1.9898367947955242,2.3887623101891235,1.0663460206895918,11.263880453886351,5.092205497315117
5.01535324816545,-1.8771979902566607,2.3994257703960193,1.117268075662743,11.088945755877056,4.736381951349634
4.996581268262884,-1.7663085326978902,2.4105984511526466,1.1646318951762396,10.904271082526888,4.3670579986942775
4.978918182935905,-1.6572658218726213,2.422244770104409,1.2083024751631823,10.715773913719255,3.993631492411919
4.962345524717179,-1.5501080827354288,2.434327794856041,1.2482387900873015,10.528263371360227,3.6237719562394526
4.946844443889825,-1.4448254490218264,2.446810182756914,1.2844765096496962,10.345541255022372,3.263602233551228
4.932396189399607,-1.3413700364716026,2.4596549478534113,1.3171125319852084,10.170518058918729,2.917898629350326
4.9189824890348905,-1.2396648558824153,2.4728260731732634,1.3462915182787116,10.005333621565502,2.5902933787735267
4.906585840476066,-1.1396115196667602,2.4862889883560504,1.3721944520664469,9.85147499553787,2.2834682142280522
4.8951897252793986,-1.0410967697113815,2.500010932876715,1.3950291342087273,9.70988664194416,1.999331935071646
4.884778757582285,-0.9439979032919399,2.5139612242188023,1.4150224535594438,9.581070077425052,1.7391781275489397
4.875338778549366,-0.8481872025176893,2.5281114487543968,1.4324142348349331,9.465171634138093,1.5038215802242099
4.8668569065241885,-0.7535354861763084,2.542435591102746,1.4474524506371753,9.362058086156614,1.293713601897861
4.8593215516624255,-0.6599149053147423,2.5569101156091176,1.4603895866561538,9.271380622440919,1.109037513655966
4.852722402609278,-0.5672010990903331,2.571514011475679,1.4714799617927135,9.192628085841434,0.9497861942572079
4.847050391618375,-0.47527481823191875,2.5862288110936063,1.4809778237352855,9.125170623114174,0.8158238343065697
4.842297643436056,-0.384023112000777,2.601038589330959,1.4891360620783511,9.068294965772592,0.7069341041839073
4.838457412316048,-0.29334016234305105,2.6159299499517426,1.4962054031201901,9.021232536511505,0.6228568453622403
4.835524010692618,-0.20312783697793602,2.6308920039829444,1.5024339715738124,8.983181489653981,0.5633152154270038
4.8334927323228385,-0.1132960220813962,2.6459163436986826,1.5080671237280825,8.953323674803926,0.528034996855235
4.832359772102024,-0.023762785333356948,2.660997014935963,1.5133474736966348,8.93083738024448,0.5167575473363273
4.832122144248691,0.06554558846908785,2.6761304896729294,1.5185150491699981,8.914906579545713,0.529247643318713
4.832777600133382,0.15469465426454498,2.691315640164629,1.5238075256031853,8.904727279331015,0.5652972590283428
4.834324546676028,0.24374192705785513,2.706553715420661,1.5294604981934687,8.89951145268176,0.6247261355721877
4.836761965946606,0.3327370415846727,2.7218483204025956,1.5357077595491906,8.898488943320396,0.7073798305632223
4.840089336362453,0.4217219310178767,2.7372053979980877,1.5427815578548227,8.90090764103216,0.8131257974840226
4.844306555672632,0.5107310074281983,2.752633213576636,1.550912815829663,8.90603215834667,0.9418479240502305
4.8494138657469135,0.599791329011665,2.7681423417349325,1.5603312950701653,8.913141181356718,1.0934398579043638
4.85541177903703,0.6889227408252322,2.7837456546856343,1.5712656936492089,8.921523622517391,1.2677973637053739
4.862301006445282,0.7781379770504061,2.7994583116221263,1.5839436672862626,8.930473669102891,1.4648098858626601
4.8700823862157865,0.867442713741435,2.815297748294989,1.5985917661448892,8.939284796517567,1.684351433868946
4.878756813353201,0.9568355617066107,2.8312836659564375,1.6154352804835785,8.94724279980416,1.9262708608547368
4.888325168970267,1.0463079897046523,2.8474380187612733,1.6346979890921258,8.953617888564498,2.1903815694471227
4.898788248867314,1.1358441685902974,2.8637849986521946,1.6566018047865971,8.95765588937793,2.4764506514791274
4.910146690553217,1.2254207274840767,2.8803510167000606,1.6813663113013884,8.958568605110964,2.784187449128479
4.922400897828058,1.3150064135351864,2.8971646798130744,1.709208185792673,8.955523391859105,3.113231514546329
4.9355509619634095,1.4045616474537774,2.914256761671001,1.7403405009381363,8.947632031392413,3.4631399431148506
4.949596578437947,1.4940379677677016,2.9316601666803823,1.7749719003692848,8.933938999751291,3.8333740625078314
4.964536958115624,1.5833773577652146,2.949409885684075,1.813305640994363,8.913409261008558,4.223285476237066
4.980370731693276,1.6725114503753002,2.9675429420940187,1.8555384957567338,8.884915749177742,4.632101486956854
4.99709584619703,1.7613606078670776,2.986098327051586,1.9018595106263023,8.847226740810529,5.058909962100549
5.0147094522757,1.849832875275183,3.005116922157849,1.9524486102473078,8.798993365941598,5.502643753014008
5.033207781028453,1.937822808934599,3.024641408260322,2.0074750477774477,8.73873755554671,5.962064839073712
5.052586009117799,2.0252101844900663,3.044716158738096,2.067095696168185,8.6648407792294,6.435748440548912
5.072838110962699,2.1118585922823603,3.065387115699778,2.1314531805736743,8.575533986821444,6.922067428085024
5.093956696885523,2.1976139321505745,3.0867016475055147,2.2006738548545246,8.468889230985607,7.419177452125837
5.115932836207029,2.2823028244604306,3.10870838605406,2.274865629375783,8.342813513295969,7.92500332131126
5.138755864451634,2.36573095959339,3.131457042347818,2.354115662588896,8.195045461620547,8.437227273216541
5.162413174047567,2.4476814142095957,3.154998198973707,2.4384879353210613,8.023155509240915,8.953279901348072
5.186889988189663,2.527912969302005,3.1793830783269175,2.528020734334542,7.8245503025138525,9.470334625869306
5.2121691178826834,2.6061584723271434,3.204663285670263,2.6227240805932355,7.596482109589906,9.985306717971085
5.2382307026059545,2.6821232934230426,3.2308905264761956,2.722577147772946,7.336064032285187,10.494858003979472
5.265051935540185,2.7554839337458943,3.258116297953925,2.827525727812741,7.040291830007833,10.995408478935126
5.292606774877643,2.8258868520459726,3.2863915552320524,2.937479812602092,6.706073140710504,11.483156142940159
5.320865643398103,2.892947583453078,3.3157663533580735,3.0523113740314938,6.330264819790111,11.954106428083978
5.349795119232634,2.956250231650979,3.3462894670983885,3.1718524383123334,5.909719002802948,12.404112598656496
5.379357621549143,3.0153474216790084,3.3780079914815118,3.2958935642988982,5.441338319459074,12.828928470291633
5.409511095765933,3.069760804873599,3.410966927124501,3.4241828490018147,4.922140431007779,13.224274690454717
5.440208703814669,3.1189822091836765,3.445208755614519,3.556425595906362,4.349331716520194,13.585919637357499
5.471398525906506,3.1624755263488784,3.4807730115735827,3.692284792279937,3.720389481719953,13.90977570979484
5.503023281169995,3.1996794211660777,3.517695859496382,3.8313825493778855,3.0331514949225378,14.192011379338698
5.535020075381655,3.230010936115303,3.5560096849901606,3.9733026631712725,2.285910960898159,14.4291788436567
5.567320184742808,3.2528700457242845,3.5957427116218734,4.1175944516078395,1.4775142257420866,14.618356445740767
5.599848885200051,3.2676451879817052,3.6369186561379516,4.263778016065247,0.6074575773184535,14.757304209069344
5.632525337079868,3.27371976375489,3.679556436298604,4.41135105815594,-0.32402150271318936,14.844629900138525
5.665262534717417,3.270479548727758,3.7236699468801637,4.559797357157326,-1.3158643146916498,14.879962007877703
5.697967330204695,3.2573209055808414,3.769267920451737,4.708596977236103,-2.366128807052779,14.864124995311853
5.730540539260503,3.233659617510314,3.8163538902240983,4.857238227189221,-3.4719528201518166,14.799311239532086
5.762877135435606,3.198940089308796,3.8649262724959907,5.005231339584542,-4.6295507337652575,14.689243376204873
5.794866536328694,3.1526445819711433,3.914978585891836,5.152123773346591,-5.834251656449198,14.539320481902056
5.8263929821484055,3.094302065406651,3.966499823625302,5.2975169781656115,-7.080586847568244,14.356741858546284
5.857336002802472,3.0234961969309686,4.019474993406958,5.441084396751075,-8.362432954579026,14.150603323387706
5.887570964771782,2.9398718673851785,4.073885837374469,5.582590429984951,-9.67321583928576,13.931963015135825
5.916969683445633,2.8431397089923207,4.129711741674319,5.7219100601363095,-11.00617730715113,13.713876891274435
5.945401080535556,2.7330779359208095,4.1869308422756815,5.859048829049054,-12.35470410128412,13.511408294604388
5.972731859894765,2.609530894907968,4.245521330566172,5.994162911995097,-13.712715341869526,13.341621051447131
5.998827168843844,2.472403741489273,4.305462959686123,6.127579122509569,-15.075101520676794,13.223571212192779
6.023551206258737,2.321652726282505,4.366738750911218,6.259814834631497,-16.438205535228402,13.178318262798143
6.046767733521562,2.157270670930221,4.4293368992575335,6.391598017259478,-17.800334271424788,13.228981721798846
6.068340440230864,1.9792673282159732,4.493252879430128,6.523887834477467,-19.162287778513583,13.400872490596655
6.088133113513024,1.7876444504308373,4.5584917577749025,6.657896559383434,-20.52789131569034,13.721728599049788
6.106009558017332,1.5823655372739338,4.6250707233687365,6.7951138453739315,-21.904511448882,14.222079413322355
6.1218332133900715,1.363320422785114,4.6930218618224755,6.937334639507155,-23.303526679865044,14.935745902505715
6.1354664176179226,1.1302851559864635,4.762395208217547,7.086692098532212,-24.74069741315411,15.900447187834548
6.1467692691777875,0.8828781818549224,4.833262129202869,7.245696570410558,-26.23632315603143,17.158405128991927
6.155598050996336,0.6205149502946081,4.905719094906975,7.417280621700477,-27.81495514581193,18.75667829763401
6.161803200499283,0.3423653988364888,4.97989190112398,7.604847404676817,-29.504188578405067,20.746632174495147
6.165226854487647,0.04732351305243815,5.055940375170748,7.812313726421769,-31.3315706131094,23.181300283682617
6.165700089618172,-0.26599219307865585,5.134063512434966,8.044126729258595,-33.317699749817066,26.10809339286504
6.163040167687385,-0.5991691905768265,5.214504779727552,8.305207663187245,-35.461743241664436,29.551783238507426
6.157048475781617,-0.9537866229934708,5.297556856359424,8.60072549557232,-37.712194612767384,33.47795923158713
6.1475106095516825,-1.3309085691211446,5.383564111315148,8.935505087888192,-39.910025103875846,37.71914164444023
6.1342015238604715,-1.730008820159903,5.47291916219403,9.312696504332594,-41.68426823066474,41.83530632865888
6.116901435658872,-2.1468515024665504,5.566046127237356,9.731049567619182,-42.28024365165562,44.87930561699998
6.095432920634207,-2.5696539389831066,5.663356622913548,10.179842623789183,-40.343207007556195,45.09347800149216
6.069736381244375,-2.9730860090586684,5.765155049151439,10.630777403804105,-33.853588053255976,39.79889257051448
6.040005521153788,-3.311621889591228,5.87146282318948,11.02876632950925,-20.77921457810329,26.246267741815288
6.006889302257876,-3.519414035372261,5.9817504864845725,11.291229006927402,-1.077067465145993,4.297598903137913
5.971695161904153,-3.530184710023721,6.094662776553847,11.334204995958782,21.1403742636784,-20.67273527935685
5.936393314803915,-3.318780967386937,6.208004826513434,11.127477643165212,39.19712894027819,-39.97904443084805
5.903205505130046,-2.926809677984155,6.319279602945087,10.727687198856731,49.23129501610769,-48.846892024670346
5.873937408350204,-2.434496727823078,6.426556474933654,10.239218278610029,52.269889517452995,-49.00095573450244
5.849592441071973,-1.911797832648548,6.528948657719754,9.749208721265004,51.33062027356049,-44.61475950973386
5.830474462745488,-1.398491629912943,6.626440744932404,9.303061126167666,48.78927406500306,-38.82843010544877
5.816489546446358,-0.9105988892629124,6.719471356194081,8.914776825113178,45.89356807993819,-33.21288685636896
5.807383557553729,-0.45166320846353053,6.808619124445213,8.582647956549488,43.15166250361237,-28.35742213065178
5.802866925469094,-0.020146583427406828,6.894445604010707,8.29907373524297,40.71058584077843,-24.39562443856881
5.80266545963482,0.38695927498037747,6.977436341363137,8.055117490857283,38.56693251083945,-21.285652714370915
5.806535052384624,0.772628600088772,7.05798751627171,7.842260963713573,36.66408166240873,-18.933062627699215
5.814261338385512,1.1392694167128592,7.136410125908846,7.652930337436581,34.93306722468916,-17.23817994375806
5.825654032552641,1.4886000889597508,7.212939429283211,7.480548537999001,33.308528665219505,-16.11138655782706
5.840540033442238,1.821685375611946,7.287744914663201,7.31943467242073,31.734290645352395,-15.475807175588848
5.858756887198358,2.13902828206547,7.360939261387409,7.1646766006648415,30.164846856078416,-15.265571852454299
5.880147170019013,2.440676750626254,7.432586027394057,7.012020882140298,28.565336828713445,-15.422943131395629
5.904553937525276,2.7263301189133884,7.50270623621546,6.857791450826342,26.91102291832669,-15.89556878193619
5.93181723871441,2.9954403480966554,7.571284150723724,6.69883576300698,25.186612974016057,-16.634298285208303
5.961771642195377,3.247306477836816,7.6382725083537935,6.5324927801548975,23.38550998066416,-17.591672043177073
5.994244706973745,3.4811615776434577,7.703597436155342,6.3565760597231264,21.508978103611696,-18.72106033623501
6.029056322750179,3.6962513586795747,7.767163196752573,6.169365456360777,19.56519749878909,-19.976373695819316
6.066018836336975,3.8919033336674653,7.828856851316181,5.969601719402584,17.56819415940177,-21.312240719818515
6.10493786967365,4.067585275261483,7.888552868510207,5.756479312204399,15.536654960379193,-22.68453702201327
6.145613722426265,4.222951824865275,7.94611766163225,5.529633941984266,13.492661117835828,-24.05114538933018
6.187843240674917,4.357878436043634,8.001414001052092,5.289122488090964,11.460389928612953,-25.372831410726562
6.231422025035354,4.472482335329763,8.054305225933001,5.035394173983699,9.464842646611048,-26.614130156523416
6.2761468483886516,4.567130761795874,8.104659167672839,4.769252872418464,7.530655825951307,-27.74415636856945
6.321818156006611,4.642437320055387,8.152351696397023,4.49181130873277,5.681046153982705,-28.73727074101303
6.368242529207165,4.699247781595214,8.19726980948435,4.20443860132264,3.936927216740836,-29.573555755717102
6.415235007023117,4.738617053762622,8.239314195497576,3.908703043765469,2.316223280133536,-30.239074220699187
6.462621177560743,4.761779286563958,8.27840122593523,3.6063123015584773,0.8333919552011064,-30.725901052134354
6.510238970426383,4.770113206115969,8.314464348950814,3.2990532910371337,-0.5008443282518901,-31.031933690274514
6.557940102487542,4.76510476283345,8.347454881861186,2.9887339541343887,-1.679568365527825,-31.16049909993863
6.605591150115877,4.7483090791781715,8.377342221402529,2.6771289631350026,-2.6995586107950498,-31.119785887066968
6.653074240907658,4.721313493070221,8.404113511033879,2.365931104264333,-3.561025798954805,-30.92213869128815
6.700287375838361,4.685703235080673,8.427772822076522,2.0567097173514512,-4.2672268219152265,-30.583258330927436
6.747144408189167,4.643030966861521,8.448339919250037,1.750877134042177,-4.823990334664232,-30.12135457647654
6.7935747178577826,4.5947910635148785,8.465848690590459,1.4496635882774114,-5.23918985289528,-29.55629835071308
6.839522628492931,4.542399164985926,8.480345326473232,1.1541006047702806,-5.522199109961015,-28.90881637603713
6.884946620142791,4.487177173886316,8.491886332520934,0.8650124410099094,-5.6833612607904245,-28.199764100990055
6.929818391881654,4.430343561278412,8.500536456931034,0.5830148000000088,-5.733498560747174,-27.44950293123477
6.9741218274944385,4.37300857567094,8.506366604931033,0.3085197706876611,-5.683483087451809,-26.67739649223594
7.017851913251148,4.316173744796422,8.50945180263791,0.041745805765301736,-5.543882751480758,-25.901429059851985
7.061013650699112,4.2607349172816145,8.509869260695563,-0.21726848483321815,-5.324691116439089,-25.137938414496826
7.103620999871929,4.207488006117224,8.50769657584723,-0.4686478689781864,-5.0351451856921265,-24.40144581121059
7.1456958799331005,4.157136554260302,8.503010097157448,-0.7126623270902923,-4.6836329259225655,-23.704557616778313
7.187267245475703,4.110300225001076,8.495883473886545,-0.9497079032580754,-4.277692354886712,-23.057906035410806
7.228370247725714,4.0675233014522085,8.486386394853964,-1.1802869636121835,-3.8241069026775003,-22.470089351393174
7.269045480740235,4.029282232425434,8.474583525217842,-1.4049878571261152,-3.3291078365492157,-21.947564009045955
7.309338303064489,3.9959911540599418,8.46053364664658,-1.6244634972165748,-2.7987042481600524,-21.49443012257986
7.3492982146050885,3.9680041115783413,8.444289011674414,-1.8394077984423733,-2.2391748939651546,-21.112037115704073
7.388978255720872,3.94561236263869,8.42589493368999,-2.050528169599414,-1.6577742846911983,-20.79831601039322
7.428434379347259,3.929034619791778,8.405389651993996,-2.2585113297033463,-1.0637271179011956,-20.546719781385885
7.467724725545176,3.918397348612766,8.382804538696963,-2.463978527517205,-0.46960708147609664,-20.34462737574226
7.506908699031304,3.913701277798005,8.358164753421791,-2.6674248012746276,0.10679126484079907,-20.171053360762635
7.546045711809284,3.914769190446413,8.331490505409045,-2.869135334882254,0.639997586050094,-19.99353439989538
7.585193403713748,3.921169166306914,8.302799152060222,-3.0690706788812077,1.0938337827401707,-19.764199348895836
7.624405095376817,3.9321075041343154,8.27210844527141,-3.266712672370166,1.4180666940652924,-19.41538703629356
7.66372617041816,3.9462881710749684,8.239441318547708,-3.4608665427331013,1.5455487790821676,-18.8559297660032
7.70318905212891,3.96174365886579,8.204832653120377,-3.6494258403931332,1.3916075303041113,-17.970552340888172
7.742806488717568,3.9756597341688313,8.168338394716447,-3.829131363802015,0.858789776866879,-16.62670508652905
7.782563086059256,3.9842476319375,8.130047081078427,-3.9953984146673056,-0.14877892273596385,-14.694742472989855
7.8224055623786315,3.9827598427101405,8.090093096931755,-4.142345839397204,-1.6978849385330395,-12.086314253620147
7.862233160805733,3.96578099332481,8.048669638537783,-4.263208981933405,-3.787394987672738,-8.808303694415644
7.9018909707389815,3.9279070434480827,8.00603754871845,-4.351292018877562,-6.311315078706178,-5.013724580886262
7.9411700411734625,3.864793892661021,7.962524628529674,-4.401429264686424,-9.048787274152703,-1.0145441282222079
7.979817980100073,3.7743060199194938,7.91851033588281,-4.411574705968646,-11.703445270613985,2.774658062426144
8.017561040299269,3.657271567213354,7.874394588823123,-4.383828125344385,-13.986767179920767,5.954120035181473
8.054133755971401,3.517403895414146,7.83055630756968,-4.32428692499257,-15.704142901347582,8.259105179035238
8.089307794925542,3.3603624664006704,7.787313438319754,-4.241695873202218,-16.796073822808474,9.616274499370075
8.122911419589549,3.1924017281725856,7.744896479587732,-4.145533128208517,-17.320732268971813,10.11753784180525
