th1 (rad),w1 (rad/s),th2 (rad),w2 (rad/s)
0.3309409679304677,-1.6680528279064342,0.25495776148799776,1.372516857038896
0.3142604396514033,-1.7103870623620019,0.2686829300583867,1.3921250217064816
0.2971565690277833,-1.7471232291784766,0.28260418027545153,1.4041406512196128
0.27968533673599855,-1.7779119236353607,0.2966455867876477,1.4080422407518878
0.26190621749964493,-1.8024963965008118,0.3107260091951666,1.4034403272290101
0.2438812535346368,-1.8207291101655694,0.3247604124674567,1.3901022998134718
0.2256739624329811,-1.8325815371132652,0.3386614354655914,1.3679677062419855
0.20734814706184845,-1.8381457850754144,0.35234111252801126,1.3371519869179715
0.1889666892110943,-1.8376277253426225,0.365712632397191,1.2979381049886225
0.17059041195766808,-1.8313324827865687,0.3786920134470772,1.2507572122287203
0.1522770871298024,-1.8196441486019765,0.3911995855693644,1.1961609171717618
0.13408064564378264,-1.8030021856466063,0.40316119474108203,1.1347885999990168
0.11605062378731656,-1.781877119690479,0.4145090807410722,1.0673334154866676
0.09823185259041177,-1.7567477931378885,0.42518241489593883,0.9945102009412877
0.08066437465903288,-1.728081846759059,0.43512751690535173,0.9170276630471876
0.06338355619144229,-1.6963203725401041,0.4442977935358236,0.8355662117474378
0.046420352466041245,-1.6618670070001855,0.452653455653298,0.7507618657904872
0.029801682396039388,-1.6250812114730815,0.4601610743112029,0.6631959181905063
0.013550870281308573,-1.5862751521161218,0.46679303349310797,0.5733895758538632
-0.0023118812398526464,-1.5457134360576412,0.4725269292516466,0.4818025611398995
-0.01776901560042906,-1.5036149412889088,0.47734495486304557,0.38883462951629566
-0.03280516501331815,-1.4601560485096263,0.4812333011582085,0.2948290500337497
-0.04740672549841441,-1.415474699815272,0.484181591658546,0.20007725372613333
-0.061561472496567134,-1.369674839414606,0.48618236419580735,0.10482403383871258
-0.0752582208907132,-1.3228309148256734,0.4872306045341945,0.009272851939021262
-0.08848653003896993,-1.2749922224574026,0.4873233330535847,-0.08640904981089725
-0.10123645226354396,-1.226186965422541,0.48645924255547573,-0.1820859130934613
-0.11349832191776936,-1.1764259544507114,0.48463838342454113,-0.27764919936671795
-0.12526258146227648,-1.1257059276992476,0.48186189143087393,-0.37301382898057256
-0.13651964073926895,-1.0740124957189665,0.4781317531410682,-0.4681149121699427
-0.1472597656964586,-1.0213227374210032,0.4734506040193688,-0.5629049327853559
-0.15747299307066864,-0.9676074847720894,0.4678215546915152,-0.65735132861958
-0.16714906791838954,-0.91283334070176,0.4612480414053194,-0.7514344024603847
-0.17627740132540715,-0.8569644783431424,0.45373369738071556,-0.845145492771048
-0.18484704610883856,-0.79996427175649,0.4452822424530051,-0.9384853300794876
-0.19284668882640346,-0.7417968098070535,0.4358973891522102,-1.0314625031984748
-0.200264656924474,-0.6824283466849107,0.42558276412022544,-1.1240919571740342
-0.2070889403913231,-0.621828745233983,0.4143418445484851,-1.2163934415454276
-0.21330722784366293,-0.5599729731973304,0.40217791013303084,-1.3083898225069746
-0.21890695757563625,-0.4968427179386056,0.3890940119079611,-1.4001051654869425
-0.2238753847550223,-0.43242819227349893,0.3750929602530917,-1.4915624852870342
-0.2281996666777573,-0.36673021266812755,0.36017733540022134,-1.5827810492781766
-0.23186696880443858,-0.299762640901336,0.3443495249074396,-1.6737731055893474
-0.23486459521345193,-0.23155529061447347,0.3276117938515461,-1.7645398936546706
-0.23718014811959667,-0.16215740964444292,0.3099663949149994,-1.8550667806264252
-0.2388017222160411,-0.09164185539509499,0.29141572710873515,-1.9453173569993631
-0.23971814076999204,-0.020110080155063187,0.2719625535387415,-2.0352263231456784
-0.23991924157154268,0.052301969237724566,0.2516102903072847,-2.1246910127338503
-0.23939622187916543,0.1254169655636696,0.2303633801799462,-2.2135614400347334
-0.23814205222352874,0.19900832095229776,0.20822776577959887,-2.301628840959907
-0.23615196901400576,0.27279141252608896,0.1852114773699998,-2.388612821949073
-0.23342405488874488,0.34641418462039086,0.16132534915050906,-2.474147459893074
-0.22995991304254096,0.41944764704370413,0.1365838745515783,-2.5577670341068584
-0.2257654365721039,0.4913771278018833,0.11100620421050972,-2.6388925353147465
-0.22085166529408506,0.5615955647997014,0.08461727885736225,-2.7168206842981197
-0.21523570964608804,0.629400601844608,0.057449072014381056,-2.7907178618476216
-0.20894170362764197,0.6939977094180895,0.02954189339590484,-2.8596219935430542
-0.20200172653346107,0.7545118348419324,0.0009456734604742952,-2.922455849345001
-0.19445660818504173,0.8100099866344802,-0.028278885032975713,-2.9780551161105255
-0.18635650831869693,0.8595364241342833,-0.058059436194080966,-3.025213634949265
-0.1777611440773541,0.9021605533095134,-0.08831157254357362,-3.062746081114578
-0.16873953854425897,0.937035207762683,-0.1189390333547194,-3.0895650733741267
-0.15936918646663215,0.963460047297898,-0.14983468408846068,-3.1047656741024494
-0.14973458599365316,0.9809420776005264,-0.18088234082948518,-3.1077064952307625
-0.1399251652176479,0.9892438111998433,-0.21195940578179281,-3.0980745683393534
-0.13003272710564945,0.9884102779490586,-0.24294015146518635,-3.0759220426668574
-0.12014862432615886,0.9787692594402692,-0.27369937189185495,-3.0416670661117506
-0.11036093173175616,0.9609041102819796,-0.3041160425529725,-2.9960579830852474
-0.10075189062893637,0.9356038533080869,-0.33407662238382496,-2.9401072118172826
-0.0913958520958555,0.903799206509272,-0.3634776945019978,-2.8750065322392437
-0.08235786003076279,0.8664947028128934,-0.39222775982439023,-2.802037509323808
-0.07369291300263385,0.8247060069603407,-0.4202481349176283,-2.7224892847610525
-0.06544585293303044,0.7794087238601458,-0.44747302776523884,-2.6375921107162767
-0.05765176569442899,0.7315016130410215,-0.4738489488724016,-2.548470396401337
-0.050336749564018776,0.6817841820050619,-0.49933365283641495,-2.4561150630735167
-0.04351890774396816,0.6309466639039627,-0.5238948034671501,-2.361372375419707
-0.037209441104928534,0.5795694599924944,-0.5475085272213472,-2.2649452148807168
-0.03141374650500359,0.5281290194613097,-0.5701579793701544,-2.1674026642317976
-0.02613245631039049,0.47700751699752886,-0.5918320060124724,-2.069194337981589
-0.0213623811404152,0.42650428673633445,-0.6125239493922883,-1.9706667302111605
-0.017097338273051856,0.3768475858915632,-0.6322306166943998,-1.8720796978326266
-0.013328862414136224,0.3282057888326317,-0.6509514136727261,-1.7736219155867978
-0.010046804525809907,0.28069751599686993,-0.6686876328285941,-1.6754246830784751
-0.007239829365841208,0.23440048440323982,-0.6854418796593789,-1.5775738402940265
-0.00489582452180881,0.18935904827479866,-0.7012176180623191,-1.4801197864870157
-0.003002234039060823,0.14559050467177034,-0.7160188159271892,-1.3830857337279048
-0.0015463289923431196,0.10309029325232404,-0.7298496732644683,-1.2864743929533033
-0.0005154260598198791,0.06183623978215077,-0.7427144171940013,-1.1902733123647213
0.00010293633800162862,0.02179199328556638,-0.7546171503176485,-1.094459083825851
0.00032085627085729244,-0.017090204023295585,-0.765561741155907,-0.9990006148623811
0.00014995423062433657,-0.054867290734368176,-0.7755517473045308,-0.9038616398540522
-0.0003987186767193452,-0.09160359818860314,-0.7845903637030713,-0.8090026187335696
-0.0013147546586053766,-0.12736941116124714,-0.792680389890407,-0.7143821475724947
-0.002588448770217848,-0.16223980320691742,-0.7998242113661319,-0.6199579841090059
-0.004210846802287022,-0.19629368568548633,-0.806023791207222,-0.5256877730259603
-0.0061737836591418856,-0.22961302044691886,-0.8112806689374816,-0.43152954064126703
-0.008469913863611074,-0.26228215507621727,-0.8155959643438943,-0.3374420164208734
-0.011092735414373247,-0.2943872466668208,-0.818970384508103,-0.24338482907000275
-0.014036607881041455,-0.32601574550442913,-0.821404232798803,-0.14931861758843412
-0.017296765336085745,-0.35725591399384066,-0.8228974189746874,-0.05520509230604621
-0.020869324476024152,-0.3881963588104909,-0.8234494698977478,0.03899292269023831
-0.024751288064129063,-0.4189255557304328,-0.8230595406708454,0.13331143634606896
-0.02894054362143339,-0.44953134697267144,-0.8217264263073847,0.22778519780637993
-0.03343585709116011,-0.4801003902226476,-0.8194485743293208,0.32244753426837053
-0.038236860993386586,-0.5107175368062058,-0.8162240989866372,0.4173300875848964
-0.043344036361448644,-0.5414651137297489,-0.8120507981107882,0.5124624140085566
-0.04875868749874614,-0.5724220804513394,-0.8069261739707027,0.6078714062936657
-0.05448290830325953,-0.6036630262446078,-0.800847459907766,0.7035804906109642
-0.06051953856570561,-0.6352569678149278,-0.7938116550016563,0.7996085422935867
-0.0668721082438549,-0.6672658994145182,-0.7858155695787205,0.8959684542824563
-0.07354476723800007,-0.6997430391520999,-0.7768558850358959,0.9926652803420243
-0.08054219762952107,-0.7327307057300414,-0.7669292322324757,1.089693861943899
-0.08786950468682149,-0.7662577499560732,-0.7560322936130367,1.1870358337870783
-0.09553208218638222,-0.8003364559755172,-0.7441619352751659,1.2846558894249187
-0.10353544674613739,-0.8349588198042328,-0.7313153763809167,1.3824971774581716
-0.11188503494417971,-0.8700921099098012,-0.717490404606335,1.4804756935793233
-0.12058595604327772,-0.9056736201251644,-0.7026856476705418,1.5784735395992717
-0.12964269224452937,-0.9416045447230379,-0.6869009122745491,1.6763309451164474
-0.13905873769175975,-0.9777429469400574,-0.6701376028233846,1.7738370015059295
-0.14883616716116033,-1.0138958661161956,-0.6523992328083253,1.870719155822641
-0.1589751258223223,-1.0498107278557585,-0.6336920412500989,1.9666316718852235
-0.16947323310087986,-1.0851664004794381,-0.6140257245312467,2.061143507015617
-0.18032489710567423,-1.119564492136974,-0.5934142894610905,2.1537263933390705
-0.19152054202704397,-1.1525218114396196,-0.5718770255276998,2.2437443598199533
-0.20304576014144016,-1.1834653083774471,-0.5494395819295003,2.330446469576329
-0.21488041322521462,-1.2117312288669386,-0.526135117233737,2.412965118539444
-0.226997725513884,-1.2365705665787798,-0.5020054660483425,2.4903227246784176
-0.2393634311796718,-1.2571630338297,-0.47710223880155833,2.5614498317225647
-0.2519350615179688,-1.2726415027794271,-0.4514877404843327,2.625217287522701
-0.26466147654576305,-1.2821279819723033,-0.4252355676091057,2.680483950123706
-0.2774827563654861,-1.2847805607847305,-0.3984307281078686,2.72615914466419
-0.2903305619733334,-1.2798484470827265,-0.3711691366612267,2.7612759406006715
-0.30312904644416067,-1.2667296318171513,-0.34355637725522,2.785067780643082
-0.3157963427623322,-1.2450235657168356,-0.3157056994487892,2.7970380730556457
-0.32824657841950056,-1.2145704192813565,-0.2877353187182327,2.7970112840076817
-0.34039228261231413,-1.175469702720919,-0.2597652058781559,2.785155772205562
-0.35214697963952335,-1.1280743044751687,-0.23191364815610027,2.7619731585972276
-0.36342772268427503,-1.072960593137465,-0.204293916570128,2.728255338732496
-0.3741573286156497,-1.0108797404890917,-0.17701136318280303,2.685016415796204
-0.3842661260205406,-0.9426984722026923,-0.15016119902484099,2.6334109458766894
-0.3936931107425675,-0.8693382566647767,-0.12382708956607409,2.574650887099714
-0.4023864933092153,-0.7917206086217953,-0.09808058069507695,2.509931706582991
-0.4103036993954332,-0.7107235165847599,-0.07298126362924705,2.4403743552449786
-0.4174109345612808,-0.6271510280809566,-0.04857752007679726,2.366985696644275
-0.4236824448420904,-0.5417155555767426,-0.024907663110354514,2.2906365857883166
-0.4290996003978578,-0.45503088813473025,-0.0020012972524713485,2.212054661183516
-0.4336499092792051,-0.3676132145182341,0.020119249359363812,2.131828029124063
-0.43732604142438747,-0.27988746222638017,0.041437529650604446,2.0504160668656892
-0.44012491604665127,-0.19219665157766708,0.06194169031926134,1.96816415443777
-0.44204688256242797,-0.10481251422932866,0.08162333186363904,1.885319929914661
-0.44309500770472127,-0.0179461722260595,0.10047653116278565,1.8020494315630855
-0.44327446942698184,0.06824186520673685,0.1184970254784165,1.7184521319592667
-0.4425920507749145,0.15363278105276051,0.13568154679800917,1.6345743500751335
-0.4410557229643869,0.23814175815133193,0.1520272902987605,1.550420857249069
-0.43867430538287355,0.32171151290271016,0.16753149887125118,1.4659647005354999
-0.43545719025384644,0.4043069634993789,0.18219114587660618,1.3811553846290565
-0.43141412061885265,0.48591089637134566,0.19600269972289674,1.2959256102088743
-0.4265550116551392,0.5665204781970752,0.2089619558249855,1.2101967847273711
-0.42088980687316846,0.6461444612230701,0.22106392367225922,1.1238835176607265
-0.41442836226093777,0.7248009387585337,0.23230275884886648,1.0368972970683772
-0.4071803528733524,0.8025155203954195,0.24267173181955023,0.9491495250355644
-0.3991551976693982,0.8793198095710382,0.2521632270699059,0.860554070476373
-0.39036199957368783,0.9552500776924042,0.2607687677746696,0.7710294812936843
-0.3808094987967638,1.0303460381733842,0.26847906258760645,0.6805009853069435
-0.37050603841502994,1.104649629901175,0.2752840724406759,0.5889024012533388
-0.35945954211601816,1.1782037226479343,0.28117309645320926,0.4961780777252872
-0.3476775048895388,1.2510506567533985,0.28613487723046216,0.40228497907017474
-0.3351669983220048,1.3232305261318078,0.2901577270211639,0.30719504281229815
-0.3219346930606867,1.3947791075543519,0.29322967744928685,0.2108979426224626
-0.3079869019851432,1.4657253307054123,0.2953386568755115,0.11340440349917641
-0.2933296486780891,1.5360881735635938,0.29647270091050326,0.01475023034390062
-0.27796876694245315,1.6058728576928647,0.2966202032139423,-0.08499877465622994
-0.2619100383655245,1.6750662104948293,0.29577021546737997,-0.18574082002059605
-0.2451593762605762,1.7436310602825476,0.293912807267174,-0.2873308715416485
-0.22772306565775075,1.8114995411947437,0.29103949855175754,-0.38957196759244106
-0.2096080702458033,1.8785652173107676,0.28714377887583314,-0.4922049807436304
-0.19082241807269562,1.9446740012258943,0.2822217290683968,-0.5948967985146291
-0.1713756780604367,2.0096139581018027,0.27627276108325055,-0.6972270620535134
-0.15127953847941866,2.073104271500517,0.2693004904627154,-0.798673865713404
-0.1305484957644135,2.13478392273422,0.26131375180558136,-0.8985992114402043
-0.1092006565370713,2.194201016629402,0.2523277596911793,-0.9962355508847767
-0.08725864637077728,2.2508041730703323,0.24236540418233155,-1.0906754335147568
-0.06475060464007396,2.3039379614548197,0.23145864984718398,-1.1808670613749
-0.04171122502552576,2.352844893830559,0.219649979233435,-1.265619301328421
-0.01818277608722017,2.3966768432668895,0.20699378622015077,-1.3436201839891988
0.005783992345448727,2.4345186643048997,0.19355758438025877,-1.4134727676091328
0.030129178988497724,2.465425960688785,0.17942285670416744,-1.4737510398277172
0.05478343859538558,2.488477123785183,0.16468534630589027,-1.5230759225194115
0.07966820983323741,2.502836931664693,0.14945458708069614,-1.5602074098443626
0.10469657914988434,2.5078255537009038,0.1338525129822525,-1.5841439793744092
0.12977483468689338,2.5029836610198615,0.11801107318850841,-1.5942159677943533
0.154804671297092,2.4881227528261713,0.10206891351056488,-1.590157373877024
0.1796858988253537,2.4633508697227535,0.08616733977179464,-1.5721420947451792
0.20431940752258124,2.4290678664974705,0.07044591882434284,-1.5407763213117327
0.22861008618755593,2.3859304394614966,0.05503815561122551,-1.4970474068696145
0.2524693905821709,2.334793250998029,0.04006768154252937,-1.4422382857243885
0.2758173230921512,2.276636739709976,0.025645298685285485,-1.3778225783015778
0.29858369048925093,2.2124933578713595,0.011867072902269706,-1.3053571823347803
0.3207086240679645,2.1433821534305073,-0.0011864989210780968,-1.2263865744872309
0.3421424456022696,2.070257963715008,-0.013450364665950405,-1.142367864373434
0.36284502523941964,1.9939774845958478,-0.02487404330968475,-1.0546199427859664
0.38278480008537813,1.915281252442477,-0.03542024273754441,-0.9642954562047592
0.4019376126098029,1.834788626449695,-0.045063197299592,-0.8723715364156898
0.42028549887429983,1.7530021346704312,-0.0537869126637489,-0.7796541515875025
0.4378155202210041,1.670317699899907,-0.06158345417962393,-0.6867911338381733
0.4545186972200032,1.5870378856578744,-0.06845136551800567,-0.5942898044527399
0.470389076076582,1.5033860746178633,-0.07439426356253306,-0.5025362025058403
0.4854229368227606,1.4195202130342355,-0.07941962558759147,-0.4118139418349365
0.499618138953103,1.3355453341702257,-0.08353776500594083,-0.3223215440991812
0.5129735922948052,1.2515244922044602,-0.08676098044693265,-0.2341876928048071
0.5254888372168498,1.167488013855172,-0.08910285737498072,-0.14748424907326338
0.5371637173554015,1.083441140054059,-0.09057769986571336,-0.06223710900497392
0.5479981287559421,0.9993702169395642,-0.0912000709557631,0.0215648897263251
0.5579918309253378,0.9152476313614112,-0.09098442205849985,0.10396274971311383
0.5671443072389519,0.8310356912713879,-0.08994479456136871,0.18502151144795284
0.5754546641516658,0.7466896398375018,-0.08809457944688918,0.2648256082782998
0.5829215605500409,0.6621599729553763,-0.08544632336410618,0.3434751458408346
0.5895431602795946,0.5773942086026966,-0.08201157190569783,0.4210829022203177
0.5953171023656216,0.49233823637642615,-0.07780074288349464,0.4977718729758048
0.6002404847293858,0.4069373582528001,-0.07282302415373659,0.5736732093863434
0.6043098583119139,0.32113711790840704,-0.06708629205987315,0.648924417572595
0.607521229490998,0.23488400614048255,-0.0605970478841472,0.7236677000437525
0.6098700695524027,0.14812612409742004,-0.05336037088370968,0.7980483295395965
0.611351330793377,0.060813884168995386,-0.04537988758831371,0.8722129477505391
0.611959469635067,-0.027099169515227936,-0.03665775811080832,0.9463076785768901
0.6116884779399147,-0.11565533294584877,-0.027194681325039417,1.0204759369699112
0.6105319246104561,-0.2048914083088038,-0.016989921955340305,1.0948558000054978
0.6084830105273681,-0.29483695201399424,-0.0060413639552853275,1.1695767866792477
0.6055346410072281,-0.3855119744906767,0.00565440391150715,1.2447558672449397
0.6016795212623213,-0.47692394044742265,0.01810196258395655,1.320492492591525
0.596910281857847,-0.5690638953785037,0.031306887509871796,1.3968624010971231
0.5912196429040619,-0.6619015221003934,0.045275511520843026,1.4739099284070858
0.584600627683058,-0.7553789148790555,0.06001461080491388,1.5516385214592026
0.5770468385342674,-0.8494028563823349,0.07553099601950591,1.629999153220681
0.5685528099704441,-0.9438354070905942,0.09183098755171272,1.7088763670450675
0.5591144558995381,-1.0384826870805026,0.1089197512221634,1.7880717762836698
0.5487296290287331,-1.1330818731069503,0.12680046898500008,1.867285043672091
0.5373988102976637,-1.227286684267495,0.14547331942172098,1.9460927150185752
0.5251259434549888,-1.3206520265546204,0.16493424657190672,2.023925838641959
0.5119194231894425,-1.4126190449595968,0.18517350495832632,2.1000481154646335
0.49779323273984655,-1.5025026019204364,0.20617398611297266,2.1735374106351197
0.4827682067206422,-1.5894841155837856,0.22790936021932387,2.2432747514107185
0.46687336556480435,-1.6726135994632068,0.2503421077334311,2.3079462273717657
0.4501472295701723,-1.7508253453184766,0.27342157000714873,2.3660640760755145
0.43263897611698754,-1.8229715189122062,0.29708221076790386,2.4160130274623564
0.41440926092786545,-1.8878764420460334,0.3212423410425274,2.456125915914538
0.3955304965074051,-1.9444110975521516,0.3458036002016728,2.4847880578602495
0.3760863855318836,-1.9915825028826173,0.37065148078027527,2.5005630445314546
0.35617056050305745,-2.028627010080612,0.39565711122558983,2.5023247443089924
0.3358842904022513,-2.0550921945484446,0.42068035866867975,2.4893740882362936
0.31533336845676685,-2.0708910466072648,0.4455740995510427,2.461517788781745
