th1 (rad),w1 (rad/s),th2 (rad),w2 (rad/s)
4.5867848819206865,2.0096920308290387,5.524494178180428,2.7358077895968504
4.606881802228977,2.1516180791488098,5.551852256076397,2.686698943658778
4.628397983020466,2.2946902874247996,5.578719245512985,2.63082167228665
4.651344885894714,2.4388750391994134,5.605027462235851,2.567615904090727
4.675733636286708,2.5841464948466677,5.6307036212767585,2.4965209716971404
4.701575101235175,2.730492413126833,5.65566883099373,2.416977650405474
4.728880025366443,2.877920654886447,5.679838607497785,2.3284301774134435
4.757659231915308,3.0264663262592943,5.70312290927192,2.2303281807378257
4.787923895177901,3.176199478997917,5.725426191079298,2.122128471237869
4.81968588996788,3.327233228984799,5.746647475791677,2.0032967059175153
4.852958222257728,3.4797320714577844,5.766680442850852,1.873309032415997
4.887755542972306,3.63392004817286,5.785413533175012,1.7316539981242989
4.9240947434540345,3.790088233628315,5.802730073156255,1.5778352903150226
4.961995625790317,3.948600716393163,5.818508426059405,1.411376323218933
5.001481632954249,4.1098977976350834,5.832622189291595,1.2318283908092096
5.0425806109305995,4.27449442003419,5.844940473199687,1.0387851902950125
5.085325555130941,4.442970738659346,5.855328325102637,0.8319081820277494
5.129755262517535,4.61595005411744,5.863647406922915,0.6109697552650293
5.175914763058709,4.794056787757692,5.869757104475566,0.37592486250312346
5.223855330936286,4.977843502435911,5.873516353100597,0.12702703392936024
5.273633765960645,5.167670993743287,5.874786623439891,-0.13498834706360066
5.325310475898078,5.36351956582557,5.8734367399692555,-0.4086225825399261
5.378945671556334,5.564704663255358,5.869350514143856,-0.6911968604730748
5.434592718188887,5.76947151395553,5.862438545539126,-0.9782665842121082
5.492287433328443,5.974463669226494,5.8526558796970045,-1.2628646063448323
5.552032070020708,6.174121497066554,5.840027233633556,-1.5346619137976147
5.613773284991374,6.360195940213612,5.82468061449558,-1.7793228557915752
5.6773752443935095,6.521760389667563,5.806887385937664,-1.9786170271031402
5.742592848290185,6.646263761665142,5.787101215666632,-2.112077437447956
5.809055485906836,6.7220031419389725,5.765980441292152,-2.160749358545676
5.876275517326226,6.74159203148359,5.744372947706696,-2.1124061488533434
5.943691437641062,6.704826556153823,5.723248886218162,-1.965899774449407
6.0107397032026,6.619036383082128,5.703589888473668,-1.7318360753289563
6.076930067033421,6.496488402703303,5.686271527720378,-1.4288887980073404
6.141894951060454,6.3504853610673315,5.671982639740305,-1.078087648467684
6.205399804671128,6.192297685870178,5.661201763255629,-0.6981972168230408
6.267322781529829,6.029852182085212,5.654219791087399,-0.303596534692212
6.327621303350681,5.867817518672607,5.6511838257404765,0.0957937129184499
6.386299478537407,5.708326568469014,5.652141762869661,0.4936069143883398
6.443382744222097,5.551787508065195,5.657077832013544,0.8859466624967518
6.4989006193027485,5.397546273880163,5.665937298638512,1.2704846809835928
6.55287608204155,5.244355781394396,5.6786421454483476,1.6458224901487812
6.605319639855494,5.090684116343674,5.695100370349835,2.0110821547125064
6.656226481018931,4.934908949446867,5.715211191896961,2.365664140663519
6.7055755705134,4.7754378473456525,5.738867833303596,2.7091171587524028
6.753329948986856,4.610782199484241,5.76595900489112,3.0410794892941384
6.799437770981698,4.439602358549845,5.7963697997840615,3.3612643155296884
6.843833794567197,4.260734463454129,5.829982442939358,3.6694710275571487
6.886441139201739,4.073204839088267,5.86667715321493,3.9656107202711595
6.927173187592621,3.8762351279297373,5.906333260417641,4.249738116236284
6.965935538871919,3.669239803673072,5.948830641580004,4.522084696343813
7.00262793690865,3.451817024317039,5.994051488543443,4.7830894718140335
7.03714610715182,3.223733628360736,6.0418823832615836,5.033424915987583
7.069383443435427,2.9849052986148714,6.09221663242146,5.274016260369572
7.099232496421576,2.7353734318605523,6.144956795025156,5.5060526844002435
7.126586230740181,2.475281051225443,6.200017321869158,5.730988820721112
7.151339041252435,2.204851255419971,6.257327210076369,5.950534274385562
7.173387553806635,1.9243733932490938,6.316832552820224,6.166627197872835
7.192631287739126,1.6342047006680551,6.378498824798952,6.381384877466144
7.2089733347458065,1.334799031199905,6.442312673573614,6.5970190447115185
7.2223213250578056,1.0267801998844113,6.508282864020729,6.81569527247138
7.23258912705665,0.7110859742622992,6.5764398167454425,7.039303379135659
7.239699986799272,0.38921980287199975,6.646832850536799,7.269089154351579
7.2435921848279925,0.06365825096254102,6.719523742080315,7.505080315503968
7.244228767337618,-0.26153709817703447,6.7945745452353545,7.745234496165378
7.241613396355848,-0.5798895292215593,6.8720268901970085,7.984279050312078
7.235814501063632,-0.8815674306555629,6.9518696807001295,8.212372395188401
7.226998826757076,-1.1527210648593793,7.033993404652014,8.414090099322223
7.215471616108482,-1.375910204788636,7.118134305645236,8.568825283770162
7.201712514060596,-1.5327025016467728,7.203822558482937,8.654071507398847
7.186385489044128,-1.6088285855442652,7.290363273556926,8.652141076409295
7.170297203188686,-1.6000802763159125,7.376884684321019,8.557911474970139
7.154296400425527,-1.5150359593632665,7.46246379907072,8.382367350176754
7.1391460408318945,-1.3720665913618435,7.546287472572488,8.14858664833839
7.125425374918276,-1.1926748146848842,7.627773339055872,7.883006900575686
7.113498626771427,-0.9956767102394053,7.706603408061628,7.607994705713949
7.103541859669033,-0.7946554732490521,7.782683355118768,7.338827241013071
7.095595304936542,-0.5981080631792675,7.856071627528898,7.084173807609896
7.089614224304749,-0.41071963163600755,7.926913365604997,6.847943909243917
7.085507027988389,-0.23470251722379387,7.995392804697436,6.631112876095329
7.083160002816151,-0.07081015090445839,8.06170393345839,6.433053219189312
7.082451901307107,0.0810006388503417,8.126034465650282,6.252372783821911
7.0832619076956105,0.2211714986144521,8.1885581934885,6.087396593702735
7.085473622681755,0.35031624695782704,8.249432159425528,5.936424465700974
7.088976785151334,0.4690984006922828,8.308796404082537,5.797857801187034
7.093667769158257,0.5781687812690786,8.366774982094407,5.670253814025404
7.099449456970948,0.6781368243454157,8.42347752023466,5.552341257251458
7.106230825214403,0.7695602367247398,8.479000932807175,5.4430168006226
7.11392642758165,0.8529442481374967,8.5334311008134,5.341332518760554
7.122455870063026,0.9287455477409268,8.586844426001006,5.246480037620486
7.131743325540435,0.9973781964643805,8.639309226377211,5.157774168166629
7.1417171075050785,1.0592200558516045,8.690886968058877,5.074637377898657
7.152309308063595,1.1146189783596605,8.741633341837863,4.996585664010769
7.163455497847192,1.1638983978650788,8.791599198477972,4.9232159861455616
7.175094481825843,1.207362176593845,8.840831358339427,4.854195218468097
7.187168103591781,1.2452986822569823,8.889373310524109,4.789250493797048
7.199621090414351,1.2779841303084558,8.937265815462078,4.728160783576187
7.212400931717435,1.3056852556623302,8.98454742329784,4.670749557365065
7.225457784274059,1.3286613899502635,9.031254918871491,4.616878378453937
7.238744398173561,1.3471660224234931,9.07742370265603,4.5664413097679395
7.252216058397797,1.3614479193922073,9.12308811575371,4.519360022127345
7.265830537591719,1.3717518711608045,9.168281715974983,4.475579513134158
7.279548056303327,1.378319128148929,9.213037511106325,4.435064358634773
7.293331247584816,1.3813875800393014,9.257388154692674,4.397795429673221
7.307145123385209,1.3811917237607838,9.301366108989406,4.363767016219862
7.320957040622817,1.377962458094501,9.345003779151604,4.3329843049878844
7.334736665203762,1.371926734764192,9.388333622201483,4.305461162619162
7.348455932551404,1.3633070880552696,9.431388233827674,4.2812181776971725
7.362089003431956,1.3523210572756348,9.474200415604646,4.2602809156477095
7.375612214004713,1.3391805086736936,9.516803224761123,4.242678339781955
7.38900401909145,1.324090855695103,9.559230008158943,4.228441349628036
7.402244927648401,1.307250168607687,9.601514421655224,4.21760138434178
7.415317429334478,1.2888481564683025,9.643690435498643,4.210189034400224
7.428205910899161,1.2690649960695386,9.685792325842645,4.20623259895553
7.440896560859856,1.2480699738388683,9.7278546518322,4.2057565191598
7.453377260598245,1.226019897675172,9.769912217023798,4.208779609503279
7.465637459574997,1.2030572265026895,9.81200001311883,4.215312999878929
7.4776680318400235,1.1793078561652743,9.85415314311762,4.225357691013346
7.489461110401677,1.154878491684934,9.896406720027752,4.238901615696748
7.501009895318526,1.129853528742969,9.93879573618472,4.2559160889594585
7.512308430605955,1.1042913629059936,9.981354897074313,4.276351523690955
7.5233513442350155,1.0782200457308495,10.024118412311223,4.300132286817974
7.534133544692324,1.051632215521108,10.067119735179404,4.327150578944595
7.544649866847535,1.0244792514738374,10.11039124096885,4.357259242831059
7.554894659362273,0.9966646390029852,10.15396383339716,4.390263450755159
7.564861305752303,0.9680365984746279,10.197866467904712,4.4259112973754
7.574541671737049,0.9383801281450956,10.242125580878465,4.463883445006842
7.5839254730185,0.9074087541110394,10.286764415328534,4.503782145323519
7.59299956055961,0.8747564738896256,10.331802236781769,4.545120207799164
7.601747125298506,0.8399706300560182,10.37725343885976,4.587310808523638
7.610146831599066,0.8025067512907872,10.423126546944998,4.6296594303299266
7.6181718991119745,0.7617267292184015,10.469423141248297,4.671359673307124
7.625789166404158,0.7169020148742021,10.516136737981368,4.711495119119439
7.632958186552901,0.6672237401987515,10.563251689172562,4.74904977572852
7.6396304239548884,0.611821683476022,10.610742186929848,4.7829297253908685
7.645748640789649,0.549793661485459,10.658571484183756,4.811998262765769
7.651246577404503,0.4802461040905971,10.706691466811414,4.83512585019815
7.656049038445409,0.40234516084032745,10.755042725313395,4.851254502592913
7.660072490053812,0.3153757419718898,10.803555270339324,4.859473768649695
7.663226247473531,0.21880364465665325,10.85215000802582,4.859102574393086
7.665414283920098,0.1123338254550028,10.900741033769751,4.849768413880945
7.666537622174649,-0.004043412053180276,10.94923871790856,4.8314735191597515
7.666497188054117,-0.13002640847315694,10.997553453100158,4.804637543514676
7.665196923969385,-0.2650024793427592,11.045599828535305,4.7701084651629975
7.6625468991759575,-0.4080771506603959,11.093300913186935,4.729137758092646
7.658466127669354,-0.5581303185847455,11.140592290767861,4.683321542410301
7.652884824483507,-0.7138929720409903,11.187425506191964,4.634515042401139
7.645745894763096,-0.8740350378094734,11.233770656615976,4.584731806074806
7.637005544385001,-1.0372538673901353,11.279617974676723,4.53604080063689
7.6266330057111,-1.2023539728070574,11.324978382683092,4.490473513852215
7.61460946598303,-1.3683113088557546,11.369883117821614,4.449950156101667
7.600926352894472,-1.5343188201472255,11.41438261938263,4.416230023226874
7.585583164693,-1.6998132501692522,11.4585449196149,4.390887129945773
7.568585032191308,-1.864485734864866,11.502453790914357,4.375309145154668
7.549940174842659,-2.028280222352592,11.546206882365905,4.370715812256171
7.529657372619133,-2.1913843316490302,11.589914040488466,4.378192397696093
7.507743529302643,-2.3542171318513607,11.633695964465428,4.398734022333716
7.484201357984129,-2.5174177935800093,11.677683304688765,4.43329765723773
7.459027180048329,-2.6818384103561885,11.722016281261142,4.482859805676042
7.432208795944767,-2.8485437100114246,11.766844879317903,4.548479233133317
7.403723358844653,-3.0188199976433365,11.812329671649236,4.6313654315817
7.373535158868219,-3.194195548191822,11.858643325965053,4.73295477467406
7.341593203386301,-3.376474800863274,11.905972873711793,4.854997538378708
7.307828455377669,-3.5677890442000457,11.95452284909558,4.999660111863485
7.272150564935668,-3.7706666634018977,12.004519450214215,5.1696476781743765
7.234443898301649,-3.988126064863358,12.056215926995959,5.368352962461903
7.194562637653015,-4.223793162269272,12.109899456620578,5.6000351200495935
7.152324706030322,-4.48204055951053,12.165899807821074,5.87002643370553
7.107504300435217,-4.768131946099949,12.224600072158129,6.184945845259959
7.059822980974217,-5.088320056775297,12.286449530610728,6.552849882024145
7.008939780406464,-5.449760198211133,12.351978029430969,6.98313194621284
6.954442178424352,-5.859896662994537,12.421809348893097,7.485696294143518
6.895843211794406,-6.324516706930854,12.496666311834533,8.06828732450627
6.832598044725097,-6.842723547468414,12.577349185079596,8.729533623393136
6.764170809250413,-7.395656068776356,12.664644521313527,9.443261390928939
6.69021424856265,-7.925954318540345,12.759077135222816,10.129834330396797
6.610954705377246,-8.31634644212933,12.860375478526784,10.626136565138443
6.527791240955953,-8.412404905889515,12.966636844178169,10.71708875924674
6.443667191897058,-8.142188591124594,13.073807731770636,10.302238276806646
6.3622453059858115,-7.616598871561034,13.176830114538703,9.53491747471294
6.286079317270201,-7.022156772561465,13.272179289285832,8.672298640631237
6.215857749544586,-6.473932841615266,13.358902275692145,7.8716912947304
6.151118421128434,-6.006710305293271,13.437619188639449,7.179431929179231
6.091051318075501,-5.618474868993724,13.50941350793124,6.5915164475752315
6.034866569385564,-5.2970782171017685,13.575328672406993,6.090388266517673
5.981895787214546,-5.0299150387626606,13.63623255507217,5.658144981296822
5.931596636826919,-4.806431769923302,13.692814004885138,5.279889221709277
5.883532319127686,-4.618335846553605,13.74561289710223,4.943957934816681
5.837348960662149,-4.459219848293048,13.795052476450397,4.641380250354631
5.792756762179219,-4.324121541994875,13.841466278953943,4.365269385322972
5.7495155467592705,-4.20915200385996,13.885118972807172,4.110322906586684
5.707424026720671,-4.111207974162317,13.926222201873038,3.872449167953879
5.6663119469790475,-4.0277549943472915,13.964946693552577,3.6484987079081446
5.626034397035575,-3.956664084397319,14.001431680631658,3.43607480079666
5.586467756191602,-3.896087674392607,14.035792428639624,3.2334013078218744
5.547506879447676,-3.8443644904810546,14.068126441717842,3.0392308285376077
5.509063234542865,-3.799946597023784,14.098518750003219,2.8527799877735536
5.471063768572628,-3.7613445499278346,14.127046549880955,2.6736813213313857
5.433450323073349,-3.7270886634558944,14.153783363094268,2.5019429477204023
5.39617943643879,-3.6957057928011956,14.178802792571473,2.337908448071335
5.359222378510778,-3.665711793823413,14.202181877052185,2.182210542545486
5.322565260572544,-3.6356199073462125,14.22400398247764,2.0357136231563655
5.286209061499082,-3.6039647084146273,14.244361118709204,1.8994422478627369
5.250169414414936,-3.5693400193864133,14.263355541187831,1.7744954028141302
5.214476014221072,-3.5304475039688983,14.281100495215972,1.6619495264812851
5.179171539181382,-3.4861508864713646,14.297719990480784,1.5627565111189892
5.144310030316669,-3.435529336036238,14.313347555591974,1.477645496380413
5.109954736956307,-3.377922977230183,14.32812401055578,1.4070385562328163
5.076175507184005,-3.312964044115785,14.342194396118108,1.3509898644937983
5.0430458667428475,-3.2405889183033776,14.355704294763045,1.3091555256259066
5.010639977559814,-3.1610289013919273,14.368795850019305,1.280797385155358
4.979029688545895,-3.0747805444402245,14.381603823870858,1.2648195939541913
4.948281883101492,-2.982559082147966,14.3942520198104,1.2598324574501716
4.918456292280013,-2.885240481311114,14.406850344384901,1.2642349947160962
4.889603887466901,-2.783798520244561,14.419492694332062,1.276306159865452
4.861765902264455,-2.679243144582658,14.432255755930717,1.2942949078866475
4.834973470818628,-2.57256529847999,14.445198705009583,1.3165009142706954
4.809247817833828,-2.4646918459796052,14.45836371415229,1.3413402503215313
4.784600899374032,-2.356452441925151,14.471777116655504,1.367393085374107
4.761036374954781,-2.2485585971247,14.485451047509246,1.3934330301801718
4.738550788983534,-2.141593916772663,14.499385377811047,1.4184397177918648
4.717134849815807,-2.036013666970647,14.513569774988966,1.4415974939217326
4.6967747131461,-1.9321514346072723,14.527985749928183,1.4622836743713916
4.677453198800027,-1.8302306162193656,14.542608586671896,1.4800498473674033
4.659150892637833,-1.7303786947058462,14.55740908514557,1.4945993279368648
4.641847105690775,-1.6326426291709153,14.57235507842494,1.5057632855869392
4.625520679399066,-1.537004099999849,14.587412711280809,1.5134774116337757
4.610150638399067,-1.443393751891066,14.602547485397146,1.5177603714717784
4.595716700880156,-1.3517039222063083,14.617725089111865,1.5186947595397557
4.582199661658093,-1.2617996133516622,14.632912036707262,1.5164108649673962
4.569581665524576,-1.1735276646561645,14.648076145356937,1.5110732634862454
4.557846388878015,-1.0867242096498784,14.6631868779918,1.5028700614728943
4.546979146781516,-1.0012205814515776,14.67821557860653,1.4920045100905124
4.536966940967001,-0.9168478656932496,14.693135623707434,1.4786886598288893
4.527798462310068,-0.8334403093213698,14.707922510305723,1.463138719118506
4.519464059216855,-0.7508377847994188,14.722553897496908,1.4455717996340518
4.51195568136886,-0.6688874903417127,14.73700961549325,1.426203763847671
4.5052668064654435,-0.5874450432628967,14.751271653131726,1.4052479292834839
4.499392356032814,-0.506375098928508,14.76532413242456,1.3829144235338018
4.494328605043529,-0.42555160434169814,14.779153276659898,1.359410021318626
4.490073089000113,-0.34485777430046216,14.792747376873084,1.3349383280940352
4.486624511257109,-0.26418585983300646,14.806096760154025,1.3097002033230198
4.483982652658779,-0.1834367633613461,14.819193762187256,1.2838943405072387
4.482148285025165,-0.10251954259840561,14.832032705592328,1.2577179407769379
4.481123089599181,-0.021350835264969364,14.844609885000096,1.231367432750044
4.480909581246531,0.06014577101906236,14.856923559327598,1.2050392040518907
4.481511038956722,0.1420404052026429,14.868973951368117,1.1789303198690935
4.482931443008748,0.22439760152913552,14.880763254566808,1.1532392116773311
4.485175419024039,0.30727699954481,14.892295646683582,1.1281663252478042
4.488248189019488,0.39073404655016464,14.90357730993606,1.1039147215443783
4.4921555294849895,0.47482069500186497,14.914616457151503,1.0806906274490082
4.496903736435008,0.5595860881036552,14.925423363425994,1.058703935613019
4.502499597316044,0.6450772270746838,14.936010402782124,1.0381686542909416
4.508950369586791,0.7313396134622046,14.946392089325034,1.019303308894114
4.516263765721413,0.8184178594577788,14.956585122413975,1.0023312972913085
4.524447944315991,0.9063562585474324,14.966608435386888,0.9874812006447927
4.5335115069014655,0.9951993080260586,14.976483247393336,0.9749870508441096
4.543463499981726,1.0849921739712214,14.986233117901778,0.9650885544141282
4.554313421721439,1.1757810882280977,14.99588400344592,0.9580312711473515
4.566071232603719,1.2676136658254962,15.005464316157394,0.9540667436578952
4.578747369261975,1.3605391300388574,15.015004983593972,0.9534525715912141
4.592352760562363,1.454608431055483,15.024539509309884,0.9564524213698389
4.6068988448729185,1.5498742428985786,15.034104033523583,0.9633359591410269
4.622397587301904,1.6463908219554821,15.043737393114993,0.9743786910620688
4.638861495521459,1.7442137091682448,15.053481180025614,0.9898616912781298
4.656303632613142,1.843399256733734,15.063379796938396,1.010071194007741
4.674737625180479,1.9440039590982787,15.073480508878474,1.0352980221776318
4.694177664771462,2.0460835672162645,15.08383348910025,1.0658368212075007
4.714638500443624,2.1496919646000676,15.094491857312326,1.1019850630503294
4.736135420089625,2.2548797837796895,15.10551170794283,1.1440417827129339
