th1 (rad),w1 (rad/s),th2 (rad),w2 (rad/s)
4.511224296335947,2.4737345375699076,1.6160097620310478,2.47309254431806
4.535961641711646,2.5649687164313155,1.6407406874742285,2.4785964974773207
4.561611328875959,2.6581530725378637,1.6655266524490018,2.4872521234656193
4.588192859601338,2.7532961415590567,1.6903991736836579,2.4991549296439723
4.6157258210169285,2.850387550704696,1.7153907229800975,2.5143742287784754
4.6442296965239755,2.94939670342775,1.7405344652678822,2.532950468237672
4.673723663558253,3.050271266170201,1.765863969950259,2.5548922213506318
4.704226376219955,3.1529354711032838,1.7914128921637653,2.5801728613568593
4.735755730930988,3.257288255771693,1.8172146207773339,2.6087269499213184
4.768328613488705,3.363201267888625,1.843301890276547,2.6404463849580906
4.801960626167591,3.470516771169208,1.8697063541261278,2.6751763664597084
4.836665793879283,3.5790454958947495,1.896458117790725,2.712711254008995
4.872456248838231,3.6885644856729303,1.923585230330815,2.7527904053860897
4.90934189369496,3.798814999360496,1.951113134384676,2.795094101801539
4.947330043688565,3.909500534086601,1.9790640754026914,2.8392396813318106
4.986425049029431,4.020285041511039,2.0074564722160093,2.8847780176060787
5.0266278994445415,4.130791414679923,2.0363042523920702,2.9311904951964203
5.06793581359134,4.240600327008722,2.0656161573440346,2.977886646064639
5.110341816861427,4.349249508080209,2.095395023804681,3.024202622509372
5.153834311942229,4.456233543326124,2.1256370500297743,3.0694006912062206
5.198396647375491,4.561004286701504,2.1563310569418364,3.1126699402171747
5.2440066902425055,4.662971977786342,2.187457756344008,3.1531283965329377
5.290636410020369,4.761507158125868,2.2189890403093373,3.1898267561901994
5.3382514816016275,4.85594348684358,2.2508873078712393,3.221753932624281
5.386810916470063,4.945581563280614,2.283104847197482,3.247844631734468
5.436266732102869,5.02969387488933,2.315583293514827,3.266989163571214
5.486563670851762,5.107531001385418,2.348253185150539,3.278045698934763
5.537638980865617,5.178329219699925,2.3810336421398866,3.279855171257771
5.589422273062616,5.241319665534828,2.413832193852464,3.2712590046195857
5.6418354697179645,5.295739211407927,2.44654478389866,3.2511198098664216
5.694792861832044,5.340843210948545,2.479055981997324,3.218345122337208
5.748201293941529,5.375920225743451,2.5112394332206964,3.1719141442780896
5.801960496198963,5.400308783471022,2.5429585746634773,3.110907289439692
5.855963584033673,5.413416103176575,2.5740676475578743,3.03453809473557
5.910097745065439,5.414738555729242,2.60441302850523,2.9421867572581575
5.964245130622731,5.403883399909038,2.6338348960778113,2.833434177191216
6.018283964621822,5.380591051168526,2.6621692378497235,2.7080949564097407
6.072089875133507,5.344756818147993,2.689250187413821,2.5662473578259
6.125537443314987,5.296450715770266,2.7149126609920797,2.4082578349585826
6.17850195047269,5.2359336857655245,2.7389952393416657,2.2347974806378885
6.230861287330345,5.163668393327196,2.7613432141480447,2.0468477179525872
6.282497971263617,5.080322795165666,2.7818116913275706,1.8456928611200432
6.333301199215274,4.9867649513909456,2.800268619938771,1.632897874013758
6.383168848729183,4.884048111483762,2.8165975986789085,1.4102707543488244
6.432009329844021,4.773385921454489,2.8307003062223965,1.179810392042248
6.479743189058566,4.656118590538148,2.8424984101428192,0.9436423191169769
6.5263043749639476,4.53367187883433,2.851934833333989,0.7039462409883789
6.571641093752291,4.407511646221549,2.858974295743873,0.4628803449570875
6.615716210214506,4.279097268897947,2.8636030991934436,0.22250789182674638
6.658507182903485,4.14983736644092,2.865828178111711,-0.01526861318625694
6.700005556567895,4.021050958813288,2.865675491979849,-0.24876128218376836
6.7402160661560275,3.8939364546196424,2.863187879158011,-0.47653579158793646
6.779155430702224,3.769549901918651,2.8584225212421317,-0.6974341738741668
6.816850929721411,3.6487928914406207,2.85144817950339,-0.910581889743701
6.853338858635817,3.5324095606763466,2.842342360605953,-1.1153810076021176
6.88866295424258,3.420991431054697,2.831188550529932,-1.3114922621656229
6.922872868553127,3.314988379298005,2.8180736279082756,-1.4988092128077684
6.956022752346107,3.2147238948381895,2.803085535780198,-1.6774277220376863
6.988169991294489,3.1204128582584603,2.786311258559821,-1.8476136355109078
7.019374119877074,3.032180317824435,2.767835122204712,-2.0097710014313406
7.049695923055318,2.9500800663296802,2.7477374121903986,-2.164412544917401
7.079196723718615,2.8741121645210157,2.7260932867412246,-2.3121335094799957
7.107937845363826,2.8042388747199753,2.7029719516464246,-2.4535894555503206
7.135980234111026,2.7403987325476704,2.6784360570909214,-2.5894781945219965
7.163384221436503,2.682518685423038,2.6525412751457016,-2.720525740227296
7.190209408290733,2.630524364287995,2.625336017743429,-2.847475965870287
7.216514651933613,2.58434863652126,2.596861258084726,-2.9710835422221034
7.242358138298825,2.54393862209624,2.5671504226625053,-3.092109678290522
7.2677975245197874,2.5092613498204464,2.5362293258796003,-3.2113201647931597
7.292890138017992,2.4803081913121243,2.5041161242316687,-3.3294852109595294
7.317693219931113,2.4570981383824733,2.4708212721220733,-3.4473805445944086
7.342264201314937,2.439679880383469,2.4363474666761293,-3.565789191006599
7.366661000118772,2.4281324805198583,2.4006895747660635,-3.6855032313033997
7.390942324923971,2.4225642235836733,2.3638345424530294,-3.807324629317798
7.415167967159808,2.423108879231177,2.3257612961598513,-3.9320638598386353
7.439399055952119,2.429918145604828,2.286440657561465,-4.060534498858119
7.463698237408168,2.4431483378852885,2.245835312572884,-4.193541051135137
7.488129720787021,2.4629383723568843,2.203899902061533,-4.331855960734272
7.5127591045105895,2.4893746596933606,2.16058134245419,-4.476179820301555
7.537652851107523,2.522436568345181,2.1158195442511745,-4.627076125155103
7.562877216790975,2.5619136670678264,2.0695487829996235,-4.784868511883756
7.588496353461653,2.607283359771569,2.0217000978807858,-4.949484734278559
7.614569187059368,2.6575359653248998,1.972205250538,-5.120229239591368
7.641144546712617,2.7109366720113157,1.9210029581420864,-5.295469057809481
7.66825391343273,2.764726046565193,1.8680482675639916,-5.472233941160863
7.695901173898382,2.8147927882752253,1.813325928152383,-5.645774933082894
7.724049101781135,2.8554154604943087,1.756868178821554,-5.809211481681267
7.752603256386077,2.8792636006121812,1.6987760640047413,-5.953525567384668
7.781395892392199,2.877930196332867,1.6392408083308947,-6.0682734975871355
7.810175194355527,2.8432194063718166,1.5785580733550233,-6.143319989001542
7.838607388419246,2.7690859190158243,1.5171248734650078,-6.17144897005802
7.866298247609404,2.653549277128928,1.4554103837644277,-6.150920078871184
7.892833740380693,2.499539694529147,1.3939011829757157,-6.0865453915903975
7.917829137325985,2.314050564343548,1.3330357290598118,-5.988452291659534
7.94096964296942,2.1060319815078836,1.2731512061432164,-5.869159861962405
7.962029962784499,1.884175357041751,1.2144596075235923,-5.740561494221519
7.980871716354916,1.6554976384689803,1.157053992581377,-5.61204512001651
7.997426692739606,1.4248992492258363,1.1009335413812118,-5.489959273198939
8.011675685231864,1.1953732281673963,1.0460339486492225,-5.377958347464739
8.023629417513538,0.968472298431707,0.9922543651745751,-5.277678592797852
8.033314140497856,0.7447824502995317,0.9394775792465966,-5.189402108669151
8.04076196500085,0.5243006794312206,0.8875835581599051,-5.112574675629262
8.046004971795163,0.30670169993719587,0.8364578114036124,-5.0461626257695436
8.049071988794536,0.09151296971294531,0.785996185145917,-4.988879632950771
8.049987118491664,-0.12177596556964607,0.7361073888164092,-4.93932183776351
8.048769358835967,-0.3336476981122557,0.6867141704387741,-4.896043258835064
8.045432881854845,-0.5445187796047282,0.6377537378504234,-4.857594370489347
8.039987694058798,-0.7547185284230985,0.58917779414553,-4.82253904463034
8.032440508774567,-0.9644781385599506,0.5409524036992266,-4.7894595389580665
8.022795727388967,-1.1739260543592525,0.4930578083096459,-4.7569555550001095
8.011056466845375,-1.383087282963579,0.4454882527596448,-4.723641064780192
7.997225594015739,-1.5918853878437338,0.3982518421118429,-4.688141160984741
7.981306740137302,-1.8001465637612197,0.35137043050199546,-4.649090294378004
7.96330527449969,-2.007605584044553,0.3048795275582154,-4.60513270505824
7.943229218659244,-2.2139136292184913,0.258828200507633,-4.554925490851863
7.921090082367059,-2.418648110066354,0.21327894559911437,-4.497144499472069
7.896903601266396,-2.6213246239920576,0.16830750060439367,-4.430493028157411
7.8706903550264755,-2.8214111536942266,0.12400257032281956,-4.353713134749624
7.842476243489533,-3.0183445470015324,0.08046543897532332,-4.2655991916008205
7.812292798019517,-3.2115492180648966,0.03780944705931512,-4.165013142233187
7.780177305838868,-3.400457893541963,-0.0038406843630167525,-4.0509007510754795
7.746172726903448,-3.584534103549909,-0.04434969187377155,-3.9223079744286755
7.710327385867949,-3.7632959971894184,-0.08357277161805832,-3.77839643487477
7.672694425896054,-3.9363409581790463,-0.12135673596680602,-3.6184568623897637
7.633331016314264,-4.1033704197581935,-0.15754130459070365,-3.441919284929846
7.592297312116682,-4.2642142414869735,-0.1919604974400021,-3.2483587201860975
7.549655169701812,-4.418854024866164,-0.22444408464186308,-3.0374951476719665
7.50546662945315,-4.567444818750173,-0.25481903611858275,-2.8091866322393995
7.459792181265649,-4.71033480484892,-0.2829109024409767,-2.56341462796835
7.412688833217159,-4.848082758540968,-0.30854504872066024,-2.30026071139618
7.36420800563175,-4.981473343554668,-0.33154765583462203,-2.0198742669122964
7.314393272196203,-5.111530602854665,-0.351746398503745,-1.7224309652351582
7.2632779661676565,-5.239530318561807,-0.36897070815609656,-1.40808223560208
7.210882662982039,-5.367012172613144,-0.3830515305121174,-1.0768963548716006
7.157212541255907,-5.495792747148975,-0.39382049406083336,-0.7287923391140438
7.102254613784417,-5.627980183128532,-0.4011084174519738,-0.36346871710423384
7.0459748119531325,-5.765990444938507,-0.4047431046230161,0.019669093366852908
6.988314907503748,-5.912563008036082,-0.4045464136893476,0.421575848053936
6.9291892774233865,-6.070769220962007,-0.40033065520880823,0.8436145107824208
6.868481585213766,-6.24399731835088,-0.39189451010098403,1.2875587653596465
6.806041612030258,-6.435879729119139,-0.37901892244738755,1.7554977923793929
6.741682814739066,-6.650092909174096,-0.36146394452359365,2.2495413965470936
6.6751818856473255,-6.889893814604611,-0.3389685305581227,2.771130894976936
6.606282947501279,-7.157141803229288,-0.31125722160835334,3.319600092844204
6.534711529468987,-7.450382926579543,-0.2780612206799113,3.889392609053379
6.460207700203191,-7.761422948274683,-0.2391672945893775,4.46514006684482
6.382593470720444,-8.070075447066278,-0.1945158939209293,5.014196345541973
6.301892716249781,-8.338548974333667,-0.14437393046550956,5.478775819122706
6.2185072265064445,-8.511692042802618,-0.0895861722742825,5.7766118966713
6.133390306078418,-8.534124006342006,-0.031820053307569506,5.825848380950094
6.048049066014998,-8.38496038810743,0.02643843050193144,5.595115953294359
5.964199462133924,-8.099309321945903,0.08238959003487503,5.134774196391805
5.883206368914465,-7.745498801103782,0.1337373319987931,4.544733286930902
5.805751380903427,-7.3837235571045134,0.1791846648681021,3.915000759067388
5.731914145332381,-7.047826422924533,0.218334672458776,3.2986742989287916
5.661435881103136,-6.750121354073935,0.2513214154480639,2.717997061076563
5.593934667562397,-6.491331274902626,0.27850138605882957,2.1781990154367064
5.529021354813371,-6.267398827117553,0.3002833762131966,1.6772046153856035
5.4663473665421956,-6.072883308624238,0.31705542236705264,1.2105909679068572
5.405618533455953,-5.902378721064724,0.3291613320461212,0.7737344599736002
5.346594746245305,-5.751004726521905,0.3368986766458572,0.3626084855346338
5.289084698980086,-5.614511896423444,0.34052476150120353,-0.026002238660562615
5.232939580015851,-5.489245113802376,0.3402647391145979,-0.39451962181360084
5.178047128877828,-5.372067024531431,0.33631954289646193,-0.7446716110964224
5.124326458632513,-5.260280913650369,0.32887282678549773,-1.0776116311926636
5.071723649496009,-5.151566028489671,0.3180967104735711,-1.3940348122516535
5.020207989211113,-5.043927720346328,0.30415636235105453,-1.6942834554740598
4.9697687120076495,-4.9356607825716745,0.2872135277963139,-1.9784402201115183
4.920412104181933,-4.825323133539501,0.26742912559519877,-2.246409524899004
4.872158872846538,-4.711716879616471,0.24496503034620873,-2.497988081271818
4.825041704050373,-4.59387410700496,0.21998514953349055,-2.7329253609304285
4.779102962980324,-4.471045208347389,0.19265589592418625,-2.950974579791113
4.73439251089685,-4.342688034286387,0.16314615012627512,-3.151934616475975
4.690965630553986,-4.208456623415091,0.13162680396151538,-3.335683218643963
4.648881064319835,-4.068188684516539,0.09826997177507575,-3.5022018757062323
4.60819917747467,-3.9218913718951116,0.06324795301801342,-3.651592823974408
4.568980263755718,-3.7697252026587598,0.026732024778269338,-3.7840887691263454
4.531283011729131,-3.611986212489841,-0.011108862912994115,-3.900056034457538
4.495163149604232,-3.4490866351813088,-0.050109423257569494,-3.999991952313733
4.460672283252419,-3.281534524642917,-0.09010934278070681,-4.084517398300013
4.42785693800599,-3.1099128211737344,-0.13095451676370695,-4.154365417337648
4.396757809794252,-2.934858402134948,-0.17249817093708344,-4.210366905735373
4.367409225772903,-2.7570416564815825,-0.2146018399944372,-4.253434295253753
4.3398388092080875,-2.577147088706404,-0.2571361829469747,-4.2845441364142465
4.314067338321023,-2.3958553965628515,-0.2999816243111172,-4.3047194028459925
4.290108784355395,-2.213827384770533,-0.3430288183395771,-4.315012240936837
4.2679705105076895,-2.031689980511312,-0.3861789407489455,-4.316487774924832
4.247653610702576,-1.8500245129575896,-0.4293438184981938,-4.3102094529904225
4.2291533655730005,-1.669357315373464,-0.472445913028098,-4.297226291469284
4.212459792419266,-1.490152611019298,-0.5154181759427908,-4.278562248564207
4.197558266309073,-1.312807558675357,-0.5582037984284329,-4.255207841895865
4.18443019072232,-1.1376492641542078,-0.6007558768473916,-4.228114020816509
4.1730536980807775,-0.9649335131159849,-0.6430370170555567,-4.198188218045415
4.163404362949618,-0.7948449486109382,-0.6850188992360109,-4.166292437581009
4.155455913463508,-0.6274984033993783,-0.726681823611821,-4.133243186967427
4.149180929429514,-0.4629411005483426,-0.7680142554814953,-4.099813030193522
4.144551518424031,-0.30115545382807696,-0.8090123857834305,-4.066733519739361
4.14153996388575,-0.14206222974773272,-0.8496797209808241,-4.034699258356305
4.140119341588273,0.01447612611253174,-0.8900267135643871,-4.004372837858787
4.140264102849398,0.16865214528379988,-0.930070441942975,-3.9763903972877865
4.141950624302235,0.32071006093168686,-0.9698343459158528,-3.9513675287907875
4.145157724911552,0.4709426122715944,-1.0093480212037607,-3.929905227169892
4.149867151034268,0.619687847216834,-1.0486470734754596,-3.9125955162974653
4.156064029506436,0.767325720111581,-1.0877730286384342,-3.9000262764677296
4.163737286707552,0.9142741174394451,-1.1267732914031114,-3.8927846193925912
4.172880027881947,1.0609837175768746,-1.1657011375970374,-3.8914578821355206
4.183489865057715,1.20793077315118,-1.2046157164183926,-3.896630897965518
4.195569172789227,1.3556064608458065,-1.2435820253980479,-3.9088776003646912
4.209125237397686,1.5045008332465182,-1.2826708014016948,-3.9287441687163107
4.224170245730151,1.6550785961150092,-1.321958243088858,-3.9567197807162486
4.240721031691301,1.8077429216320549,-1.3615254408960205,-3.993189593987809
4.258798460907621,1.9627823887174227,-1.4014573368358985,-4.038362967902173
4.278426284794795,2.1202952292709445,-1.44184096651492,-4.092168593053483
4.299629237087505,2.280085102391074,-1.482762652445455,-4.154108168678192
4.322430088111416,2.4415251149163955,-1.5243037341322367,-4.223063664334041
4.34684533926058,2.603394300930687,-1.5665343707755772,-4.297063614476774
4.372879282269887,2.7637066879062755,-1.609505006920345,-4.3730361802571425
4.400516349148949,2.919579997586355,-1.6532353687229164,-4.446614602107009
4.429712149124813,3.067225828527813,-1.6977015147439865,-4.51210992520848
4.460384407410092,3.202168722503064,-1.7428226139960712,-4.562802634648006
4.492406094635123,3.319781409665456,-1.7884506403425513,-4.591677993650432
4.525603908731777,3.4161174999439448,-1.8343674202790556,-4.5925826003563825
4.559765083731216,3.488838269032908,-1.8802932462826194,-4.561521428866106
4.594653466421545,3.5378750284732496,-1.9259084605712804,-4.497595978318704
4.630032216706278,3.565505818185137,-1.9708844203544675,-4.403133272177702
4.665687274888129,3.575796644812537,-2.0149157530762447,-4.282931949233722
4.701445241336255,3.573676828458441,-2.057745072568582,-4.14299638457166
4.737182009620839,3.564039182031165,-2.0991750364142985,-3.989299619705862
4.772822401441151,3.55113189922,-2.139068032611357,-3.826945164583452
4.808333720433351,3.5382973234834667,-2.1773374842571918,-3.659804803880101
4.843716693668186,3.527970548223414,-2.213935532295993,-3.4905128756286934
4.87899639915042,3.52181530130501,-2.24884066105228,-3.3206485877046386
4.91421455216347,3.520902254795806,-2.2820471469293264,-3.1509762889513797
4.949423574711428,3.525876744120046,-2.3135569098188404,-2.9816713319150963
4.984682342152628,3.5370948323549043,-2.3433736231379916,-2.8125031018206803
5.020053290476177,3.5547246020831387,-2.3714986541561984,-2.6429713726769277
5.055600536497009,3.57881727226133,-2.397928367882968,-2.472402662644206
5.091388709219622,3.609354795529177,-2.42265239450941,-2.3000160288278417
5.127482257174914,3.646280139358263,-2.445652554797688,-2.124967099953008
5.163945058568497,3.6895151894004843,-2.4669022257972184,-1.9463774174548147
5.200840210462502,3.738969896860367,-2.4863659999717664,-1.7633543745356486
5.238229909431106,3.7945451950644995,-2.5039995437171227,-1.5750055684537352
5.276175361381751,3.856131385404225,-2.51974959940166,-1.3804502727315298
5.3147366752357925,3.92360310968896,-2.533554102128975,-1.1788299405172213
5.353972706332682,3.996811635038832,-2.5453424015341475,-0.9693190878544973
5.39394082268307,4.0755749329478625,-2.5550355924126924,-0.7511375005411592
5.434696572012548,4.159665900603418,-2.562546967418104,-0.5235643988863454
5.476293231018582,4.248799024521271,-2.5677826114069675,-0.2859549338684564
5.518781221263795,4.342615805937169,-2.570642160745652,-0.037759141751094266
5.562207379323167,4.440669340132945,-2.571019752163163,0.22145677053616605
5.606614072724496,4.542408554840047,-2.5688051844578013,0.4919872115742451
5.652038158272896,4.647162751159087,-2.563885312342059,0.7739627600330783
5.698509785784487,4.754127235439128,-2.556145684741728,1.0673254865626953
5.746051058138878,4.862350959107964,-2.545472429876101,1.371805326518401
5.794674567729958,4.9707271686182715,-2.531754376610917,1.6868990178798713
5.84438183941614,5.077988081635605,-2.5148853864321183,2.0118532521386925
5.895161720232497,5.182704524532447,-2.4947668539107313,2.3456536782467228
5.946988765477821,5.283291276941285,-2.471310317128264,2.687021217664003
5.999821678247233,5.3780185757246874,-2.444440104951624,3.034416781263309
6.05360186400448,5.465029859721235,-2.414095937138991,3.386054948581134
6.108252162601692,5.542365437344667,-2.3802353876531797,3.739926537414999
6.163675816975139,5.607991397812299,-2.3428361222790297,4.093829352719526
6.219755730953262,5.659832833790039,-2.3018978287518346,4.445405873988105
6.276354059291162,5.6958103548646974,-2.2574437700119536,4.792186331098648
6.333312162839809,5.713878970515695,-2.2095219067009673,5.131635606747812
