th1 (rad),w1 (rad/s),th2 (rad),w2 (rad/s)
0.9797229712202191,-0.874795808316229,4.779293184718125,-2.0881702745778736
0.9709750131370568,-0.9536501979313411,4.758411481972346,-2.0481017828915715
0.9614385111577434,-1.0303482691004853,4.737930464143431,-2.0059823082730825
0.9511350284667385,-1.1048010111562678,4.7178706410607,-1.9616620989676847
0.9400870183551758,-1.1769225374584305,4.698254020071023,-1.915002409942098
0.9283177929805915,-1.2466302757469372,4.6791039959716025,-1.865874717914601
0.9158514902231221,-1.3138451249240481,4.660445248792456,-1.8141599685607268
0.9027130389738816,-1.3784916197705126,4.642303649106849,-1.7597479072314681
0.8889281227761764,-1.4404981439390492,4.624706170034535,-1.702536542098669
0.8745231413367859,-1.4997972286732086,4.607680804613548,-1.6424317836621103
0.8595251690500538,-1.556325970184369,4.591256486776927,-1.5793472972461944
0.8439619093482101,-1.610026592631451,4.575463013804465,-1.5132045957499791
0.8278616434218956,-1.6608471763567378,4.560330967846966,-1.4439333887861134
0.8112531716583282,-1.7087425626236286,4.545891633959105,-1.3714721917669068
0.7941657460320919,-1.7536754367836491,4.532176912041436,-1.2957691848121968
0.7766289916642554,-1.7956175818031948,4.519219220193314,-1.2167832969489327
0.7586728158462234,-1.8345512836782087,4.507051387223824,-1.134485476392503
0.7403273030094413,-1.8704708597854405,4.4957065324598995,-1.048860093270378
0.7216225944115868,-1.9033842710582676,4.485217931527195,-0.9599064075874788
0.7025887517010041,-1.933314769504147,4.47561886745132,-0.8676400232510794
0.6832556040059626,-1.9603025245412915,4.46694246721881,-0.7720942393596805
0.6636525787605497,-1.9844061655187402,4.459221524825213,-0.6733212035440028
0.6438085171053624,-2.005704174210044,4.4524883127897725,-0.5713927697378469
0.6237514753632619,-2.0242960606179214,4.446774385092394,-0.46640096505945255
0.6035085147570827,-2.0403032585810656,4.4421103754418,-0.35845797800933155
0.583105482171272,-2.05386968475234,4.438525795661707,-0.24769559314765133
0.5625667853237486,-2.065161915598659,4.43604883973023,-0.1342640156203187
0.541915166167762,-2.0743689519387036,4.434706199574027,-0.01833005171710106
0.521171476648375,-2.0817015586367567,4.434522899056856,0.09992536205457933
0.5003544610620074,-2.0873911875327544,4.435522152677402,0.22031026068033072
0.47948054918667987,-2.091688513349932,4.437725255284206,0.34262533422516683
0.45856366405318055,-2.094861633826487,4.441151508626457,0.46666811830729643
0.43761504771491566,-2.097194005239952,4.44581818980953,0.5922375946439937
0.41664310766251617,-2.0989822014825594,4.45174056575597,0.7191390891852583
0.3956532856476906,-2.1005335977806436,4.458931956647823,0.8471893473215263
0.37464794966988413,-2.102164088268516,4.4674038501210385,0.9762216661551983
0.353626308787199,-2.1041959496179263,4.4771660667825905,1.1060909730741133
0.3325843492910197,-2.1069559609715487,4.488226976513332,1.2366787573816376
0.3115147896813042,-2.110773884189571,4.500593764087148,1.367897786438647
0.2904070508394085,-2.115981398947271,4.514272741951534,1.4996965681221859
0.2692472368499358,-2.122911575853606,4.529269707632756,1.6320635556236665
0.24801812109139973,-2.1318989589688186,4.545590343188993,1.7650311268927807
0.22669913150171153,-2.143280318344011,4.56324065445792,1.8986794077588014
0.2052663283182714,-2.157396124798092,4.582227448535508,2.033140043638372
0.1836923670702905,-2.1745927941251093,4.602558848971892,2.168600058885764
0.1619464391290394,-2.1952257469421728,4.62424484956075,2.3053059747590945
0.13999418165961766,-2.2196633335971896,4.647297909308341,2.443568386401788
0.11779754832364576,-2.248291680435986,4.671733593172359,2.5837672258397504
0.0953146315192859,-2.28152052279166,4.697571265430756,2.7263579608308253
0.0724994262913693,-2.3197900983037316,4.724834845039065,2.8718789960221045
0.049301525308331984,-2.3635791760814593,4.753553634999286,3.0209605477804327
0.02566573354751739,-2.41341428292832,4.78376324047709,3.1743352460988437
0.0015315907182341902,-2.469880139837624,4.815506592938078,3.3328506547141505
-0.02316721068014205,-2.533631209219639,4.848835099485219,3.4974837541664345
-0.048503522772338444,-2.6054040207666835,4.883809937026884,3.6693571292939358
-0.07455756298000528,-2.6860294937302727,4.920503508319824,3.849756011237681
-0.10141785791730801,-2.7764436320922092,4.9590010684322,4.040144208567657
-0.1291822942382301,-2.87769342925625,4.999402510517877,4.242174901501999
-0.1579592285307926,-2.990932039780663,5.041824259532897,4.45768852179751
-0.18786854892859925,-3.1173923204989507,5.086401144750872,4.688683199483309
-0.21904247213358877,-3.2583191381066356,5.133287976745705,4.937231330765514
-0.2516256635146551,-3.414825902191401,5.18266029005336,5.205295223495971
-0.2857739225365691,-3.587616220009448,5.23471324228832,5.494360697060013
-0.32165008473666357,-3.776474473003854,5.28965684925892,5.804755689994659
-0.3594148294667021,-3.9793832035596757,5.347704406158867,6.134456102100983
-0.3992086615022989,-4.191099906584897,5.409048967179877,6.477143497623533
-0.4411196605681479,-4.401121603659845,5.473820402156112,6.819407849517577
-0.48513087660474635,-4.591419552912036,5.542014480651288,7.137612969987162
-0.5310450721338668,-4.735458080259368,5.61339061035116,7.396509115319233
-0.5783996529364605,-4.801568950074373,5.687355701504352,7.553839756980962
-0.6264153424372042,-4.763381969054339,5.7628940990741615,7.574674028462462
-0.6740491621277476,-4.613925700296168,5.838640839358786,7.450743411542091
-0.7201884191307093,-4.371715490212664,5.9131482734742065,7.208598830475905
-0.763905574032836,-4.071256239598505,5.985234261778966,6.896251453888416
-0.8046181364288211,-3.7466917654612004,6.05419677631785,6.560588842100112
-0.842085054083433,-3.4219497889529973,6.1198026647388515,6.234008347016454
-0.876304551972963,-3.109916017671023,6.182142748209016,5.933553548843997
-0.9074037121496732,-2.8157247686516134,6.2414782836974565,5.6656247171640715
-0.9355609598361894,-2.5401696558716074,6.298134530869097,5.43074310123439
-0.9609626563949054,-2.281991336464223,6.352441961881441,5.22670286347899
-0.9837825697595476,-2.0391489403987615,6.404708990516231,5.050297364875981
-1.0041740591635353,-1.8094507283038033,6.455211964164991,4.898157709063656
-1.0222685664465734,-1.590836312425437,6.504193541255628,4.767114077826393
-1.0381769295708279,-1.3814842754268526,6.551864682033892,4.654321241848403
-1.0519917723250964,-1.1798377047953488,6.598407894452376,4.55727545302904
-1.06379014937305,-0.9845940904189088,6.643980648982667,4.4737859157901205
-1.073636090277239,-0.7946819516525567,6.688718508140568,4.4019308996575885
-1.0815829097937646,-0.6092344714422833,6.732737817137143,4.340012100458264
-1.0876752545081874,-0.42756450076750696,6.7761379381417255,4.286512915998029
-1.0919508995158624,-0.24914247468654455,6.819003067301706,4.240062583134083
-1.094442324262728,-0.07357748406516215,6.861403693133047,4.199406459959278
-1.0951780991033795,0.09939880777094659,6.90339775773264,4.163382055348755
-1.09418411102567,0.2699459133215959,6.945031578286128,4.130900181393258
-1.0914846518924541,0.4381264768316844,6.98634058010006,4.100930576092075
-1.0871033871241373,0.6039169389070683,7.02734988586098,4.072491391470439
-1.0810642177350667,0.7672173384884716,7.068074799775685,4.044642009161327
-1.0733920443501819,0.9278605979920405,7.108521219867298,4.016478706970294
-1.0641134383702615,1.0856215533807216,7.148686006937001,3.9871327474647367
-1.0532572228364543,1.2402259100435822,7.188557334411648,3.955770492416454
-1.0408549637360185,1.391359230061088,7.228115039335813,3.92159516790257
-1.0269413714354076,1.5386759886004409,7.2673309910148385,3.883849918543061
-1.0115546115494032,1.6818086786367108,7.306169490200269,3.841821800615912
-0.9947365247630361,1.820376895722945,7.344587708206428,3.79484637714936
-0.9765327558058067,1.9539962996788833,7.382536171977922,3.7423125971087434
-0.9569927928090178,2.0822873288166006,7.419959297949009,3.6836676676923488
-0.9361699195208518,2.204883534795735,7.4567959746259325,3.6184216641556652
-0.9141210841728945,2.3214394114618506,7.492980191267489,3.5461516644821427
-0.890906690058276,2.431637607020083,7.528441707912311,3.466505244112372
-0.8665903139880752,2.5351954326095534,7.563106760353435,3.3792032152238245
-0.8412383596619797,2.631870608085181,7.596898792505673,3.284041541549424
-0.8149196535811278,2.721466213674656,7.629739207921167,3.180892399355393
-0.7877049914443812,2.8038348405380953,7.661548131914721,3.0697043846375283
-0.7596666430390002,2.87888195127108,7.692245175761096,2.950501883826422
-0.7308778235262894,2.9465684713813953,7.721750194599361,2.823383629997774
-0.7014121388124754,3.006912634457322,7.749984030899339,2.688520460272367
-0.6713430124679022,3.059991098281347,7.776869235502062,2.5461522759537223
-0.6407431014850887,3.1059393389309675,7.802330758261599,2.396584189462117
-0.6096837080957791,3.1449513182435447,7.82629660015622,2.240181826419338
-0.5782341949133436,3.1772784105964367,7.848698418420414,2.0773657423782925
-0.5464614108073792,3.203227571288169,7.869472075844197,1.908604915879452
-0.5144291350944975,3.2231587336937744,7.888558125002991,1.7344092954031676
-0.48219754775755974,3.2374814374003855,7.905902217957022,1.5553214079563888
-0.4498227333835559,3.246650714789459,7.921455432036586,1.3719070797586204
-0.41735622623566127,3.2511622974949246,7.9351745028341725,1.1847453708316884
-0.384844603260712,3.2515472438485467,7.947021956542489,0.9944178795265137
-0.35232913082222655,3.2483661297647894,7.956966135337754,0.8014976233704431
-0.31984546952457865,3.2422029839473545,7.964981111571459,0.6065377422212622
-0.2874234396851051,3.2336591794029133,7.971046488993672,0.41006029259202725
-0.25508684789107594,3.2233475134159764,7.975147091919592,0.21254540396285335
-0.2228533727569162,3.2118867150970467,7.97727254595922,0.014421047110718094
-0.19073450560594574,3.1998966127288617,7.977416756430327,-0.1839463782134162
-0.15873553947865712,3.1879941734417785,7.975577292648193,-0.3822604902623644
-0.12685559774423932,3.176790597722611,7.97175468774557,-0.5803023356543774
-0.0950876917670132,3.1668896143397864,7.965951664389026,-0.7779367735341876
-0.06341879562361534,3.15888708123204,7.958172296653684,-0.9751179257570977
-0.031829924811294937,3.153371958186392,7.948421117396113,-1.1718938606691822
-0.0002962052294310166,3.1509286800907934,7.936702178789421,-1.368410740963817
0.031213081571476918,3.1521409257715907,7.923018071379783,-1.5649167110288282
0.06273449082919283,3.1575967449047275,7.907368904269495,-1.761765820290935
0.09431045827824011,3.1678949685225875,7.889751246066585,-1.9594222684568212
0.12598940796346597,3.1836527761135685,7.870157023382017,-2.1584652035229333
0.15782593572460166,3.205514204766394,7.848572371346788,-2.3595941816458064
0.1898810777722656,3.234159230316197,7.82497642953033,-2.5636351696672355
0.22222267007542756,3.270312771733706,7.799340077833658,-2.7715465661092207
0.25492579779276464,3.314752475251564,7.771624612172565,-2.9844240125870303
0.2880733225452803,3.3683132680323404,7.741780372046695,-3.203501554629085
0.3217564552256037,3.4318851717487493,7.709745356500404,-3.430144632030568
0.3560753069430912,3.5063983035742026,7.675443910180099,-3.6658268393869062
0.39113928997883324,3.592784673916125,7.63878564178623,-3.9120764357677893
0.4270671367179945,3.6918992657387415,7.599664877428552,-4.170368729453266
0.4639861293753819,3.804371534232801,7.557961190134019,-4.441924726821686
0.50202984471771,3.930341542966265,7.513541942865802,-4.727352873702285
0.5413332601473726,4.069012961807418,7.46626841412878,-5.026039932046307
0.5820233897654468,4.217935910961039,7.416008014808317,-5.33516972656293
0.6242027488750571,4.371944495803059,7.362656317542688,-5.6482639049719054
0.6679221938330877,4.5217894985581815,7.306173678492969,-5.95329801676803
0.7131400888186695,4.652858744023196,7.2466406983252885,-6.230934135772707
0.7596686762589014,4.745069239530522,7.1843313569675615,-6.4543721892409325
0.8071193686542066,4.775719185297886,7.119787635075152,-6.593300141343378
0.8548765605071855,4.726447626131839,7.053854633661718,-6.623525703719733
0.9021410367685039,4.59192416665229,6.9876193766245205,-6.538958145449559
0.9480602784350268,4.383794266711488,6.922229795170025,-6.3569307956723
0.9918982211021417,4.125576480760062,6.858660487213301,-6.110948986252535
1.0331539859097423,3.842576416825411,6.7975509973507755,-5.836622485280197
1.0715797500779964,3.5544465786371906,6.739184772497974,-5.561407910466803
1.1071242158643684,3.2732138924641383,6.683570693393306,-5.302000653031102
1.1398563547890097,3.0047208635650504,6.630550686862995,-5.066442227780701
1.1699035634246602,2.7508649321655274,6.5798862645851885,-4.857286740993835
1.1974122127463154,2.511394045785054,6.53131339717525,-4.67411377341666
1.222526153204166,2.285046012980279,6.484572259441084,-4.5151103288263785
1.2453766133339688,2.070186009811722,6.43942115615282,-4.377947977581526
1.266078473432086,1.86513290869464,6.3956416763770045,-4.260225779325436
1.2847298025190323,1.6683115476328316,6.35303941858375,-4.159671706571915
1.3014129179953606,1.4783137075909705,6.311442701518031,-4.074218186759008
1.3161960550712704,1.2939137994539902,6.270700519650441,-4.002015689582824
1.3291351930658102,1.1140636423732686,6.230680362754613,-3.9414180776947343
1.340275829489543,0.9378788015941957,6.1912661819776655,-3.890956886433169
1.3496546175054849,0.7646226129207423,6.152356613113334,-3.8493129443462912
1.3573008436346923,0.5936907211285138,6.113863483669871,-3.8152892281868813
1.3632377508459774,0.4245972766854438,6.075710591388002,-3.787786569338834
1.3674837236128319,0.25696309887390667,6.037832725694614,-3.7657827187298603
1.370053354601571,0.0905057153736071,6.000174898507315,-3.748314765986262
1.370958411755307,-0.07496898569610128,5.962691750847452,-3.7344646982850036
1.370208721898346,-0.23957381677925546,5.925347103864602,-3.723347820139521
1.3678129837305535,-0.4033463966742164,5.888113625663206,-3.714103757124597
1.3637795197638114,-0.5662546127507068,5.8509725880919605,-3.70588979337688
1.3581169736363043,-0.7282017189456773,5.813913690158191,-3.6978763241992487
1.3508349564468476,-0.8890313110347502,5.776934926916199,-3.689244231647362
1.3419446433365,-1.0485323801572708,5.740042484599725,-3.6791840087301164
1.3314593195349274,-1.206444603659647,5.703250644512424,-3.6668964660832604
1.319394873498331,-1.3624639897428936,5.666581679851591,-3.6515948547063224
1.305770233600902,-1.5162489499088327,5.630065731304527,-3.632508231628919
1.2906077441018138,-1.6674268318132097,5.593740648988238,-3.608885884788734
1.2739334757836818,-1.8156009061715,5.55765179014035,-3.580002621761532
1.2557774667219668,-1.9603577663373848,5.521851763922735,-3.545164716974417
1.236173889058593,-2.1012750695928895,5.48640011675299,-3.50371630592799
1.2151611383626642,-2.2379295263084176,5.45136295369371,-3.455046014313793
1.19278184309958,-2.3699050277050646,5.416812493550572,-3.3985936153672847
1.1690827928225294,-2.496800795037121,5.382826557396899,-3.3338565199118713
1.1441147848721582,-2.6182394318675724,5.34948799219778,-3.2603959188627742
1.1179323905534826,-2.7338747652253472,5.316884033009152,-3.1778424151746267
1.090593642901229,-2.8433993687145094,5.285105608857405,-3.085900998574735
1.062159649214084,-2.946551668724665,5.254246598871657,-2.984355229207021
1.0326941325268373,-3.043122541539844,5.224403046579587,-2.8730705034126576
1.0022629071114388,-3.132961312715823,5.19567234154546,-2.7519962753384095
0.9709332939842806,-3.215981069934346,5.168152378792076,-2.621167102502127
0.9387734832849371,-3.292163197247757,5.141940707767055,-2.480702374208254
0.9058518513124596,-3.3615610341375413,5.117133684024973,-2.3308045727601483
0.8722362409710842,-3.4243025602364865,5.093825638297371,-2.1717559138726394
0.8379932153687193,-3.480592009776032,5.072108079158645,-2.0039132200223086
0.803187295270959,-3.530710332817254,5.052068946958422,-1.8277009035092187
0.7678801919427864,-3.5750144464790545,5.03379193792333,-1.6436019778252178
0.7321300474779959,-3.6139352606785167,5.0173559181450775,-1.4521470768969436
0.6959906948712108,-3.647974519336356,5.002834447376108,-1.2539015389016528
0.6595109496778472,-3.677700567246636,4.990295431987091,-1.0494506981566425
0.6227339440053808,-3.703743230295446,4.979800925005525,-0.8393836155817649
0.5856965117024264,-3.7267880761413257,4.971407088849707,-0.6242755540769933
0.5484286309410131,-3.747570396706642,4.9651643333089375,-0.4046695582060304
0.5109529269739467,-3.766869316016165,4.961117637726877,-0.18105751771289008
0.47328423381378504,-3.7855024715857772,4.959307062549748,0.04613892529482147
0.43542920909792726,-3.804321741474117,4.959768451802697,0.2765873276289881
0.3973859916831861,-3.8242104916042687,4.962534325078987,0.5100630584444982
0.3591438867671434,-3.846082800606859,4.967634955663431,0.7464675116367316
0.32068305876107484,-3.870885084822799,4.975099630779798,0.9858460057429266
0.28197420791284683,-3.8996004956456782,4.984958090837227,1.2284056116285234
0.24297820295639005,-3.9332563917609558,4.997242146953512,1.4745332744198294
0.2036456390387805,-3.972935086346953,5.01198747969771,1.724814659095555
0.16391628817531095,-4.0197879004720996,5.029235626288666,1.980054088394528
0.12371840917058996,-4.075052249167857,5.049036167172612,2.2412956524622536
0.08296788667891139,-4.140070910739427,5.071449123697234,2.509844862031531
0.04156717757151712,-4.216311527667975,5.096547572317549,2.7872887397378987
-0.0005959377051626344,-4.305382284267969,5.124420459714928,3.0755093448885713
-0.04364976054784232,-4.409035727372842,5.155175553163814,3.3766801984756194
-0.08774011782157075,-4.529145252129363,5.18894235514857,3.6932247140726195
-0.1330315703428644,-4.6676250553406025,5.225874602289296,4.027696637176031
-0.1797078208962704,-4.826239677406673,5.266151568661056,4.382508112153265
-0.22797021767033715,-5.006206783050156,5.309976649782588,4.759371779213746
-0.2780322855008387,-5.207430098058854,5.357570367574726,5.158230150480069
-0.3301065864814272,-5.427115445386127,5.409152669079527,5.575328118011467
-0.3843777409352885,-5.6574865199614495,5.4649059502596415,6.000033436940963
-0.44095260613490295,-5.8825603309265055,5.5249062846290515,6.410349910498294
-0.499778209444168,-6.075003068080302,5.589009783734035,6.768552155279968
-0.560528240124971,-6.196504268036571,5.656695305286835,7.021753085902901
-0.6224932828053368,-6.207342506459629,5.726912836145864,7.115334395172115
-0.6845667078699331,-6.086282462219376,5.798066180097585,7.020789112497642
-0.7454295324921268,-5.84693520666554,5.868274071222562,6.758493194669153
-0.8038988845587822,-5.531409264696464,5.935859003169253,6.388602905520264
-0.8592129772057469,-5.186284490673886,5.999745032224456,5.9772953234996775
-0.9110758221124857,-4.844722545472439,6.059517985459452,5.571756905609821
-0.9595230475672101,-4.5237767394218436,6.11523555451555,5.19650306406019
-1.0047608149614284,-4.22936804101133,6.167200585156152,4.86039889581597
-1.0470544953715417,-3.961558035722814,6.215804574114312,4.564061285667716
-1.08667007572877,-3.7179066885743315,6.261445186970989,4.304565050503639
-1.1238491426145132,-3.495199877464778,6.304490837476026,4.077863484258711
-1.158801141389161,-3.2902252607092786,6.345269472318613,3.87987660679537
-1.1917033939962538,-3.1000721181914503,6.384068238386567,3.7069131966058926
-1.2227041151781683,-2.9222137659744267,6.421137370352626,3.5557881989901685
-1.2519262528379127,-2.7544989360519008,6.456695252342527,3.4238121076672003
-1.2794712421984318,-2.5951102929397596,6.490933373419199,3.3087335989896602
-1.3054223451278293,-2.4425154822857094,6.524020709409095,3.2086709430460654
-1.3298474999506864,-2.2954209617483006,6.556107418839556,3.122046584391996
-1.3528017095681695,-2.1527320901502716,6.587327884683476,3.0475298339405024
-1.3743290304696723,-2.013520054414511,6.617803183022881,2.9839885713302934
