th1 (rad),w1 (rad/s),th2 (rad),w2 (rad/s),a1 (rad/s^2),a2 (rad/s^2)
3.248987132652736,-1.876093487750817,2.55244462335622,2.055600572901361,1.2997683536296376,-4.1842560466518135
3.230226197775228,-1.8630958042145207,2.5730006290852336,2.013758012434843,1.278911901581941,-4.168684516705266
3.2115952397330827,-1.8503066851987013,2.5931382092095823,1.9720711672677904,1.2437789135266808,-4.137864262709584
3.1930921728810957,-1.8378688960634346,2.6128589208822603,1.9306925246406945,1.192705530187243,-4.08926353495277
3.174713483920461,-1.8259418407615622,2.632165846128667,1.8897998892911667,1.1241057506217733,-4.020471627892857
3.1564540655128455,-1.8147007832553443,2.651063845021579,1.8495951730122382,1.0365349232126588,-3.9292891026770995
3.138307057680292,-1.8043354340232178,2.6695597967517015,1.8103022819854673,0.928756043043497,-3.8138227933159947
3.1202637033400595,-1.7950478735927828,2.6876628195715564,1.7721640540523074,0.7998055240211935,-3.6725808954149586
3.102313224604132,-1.787049818352571,2.7053844601120796,1.7354382450981578,0.6490548415760168,-3.5045630120062454
3.084442726420606,-1.7805592699368107,2.722738842563061,1.7003926149780955,0.47626452198284885,-3.309340103030148
3.0666371337212377,-1.7757966247169823,2.739742768712842,1.667299213947794,0.28162739902823725,-3.0871198741428834
3.048879167474068,-1.7729803507267,2.75641576085232,1.6364280152063653,0.06579881192332696,-2.8387941719859744
3.031149363966801,-1.7723223626074667,2.7727800410043835,1.6080400734865055,-0.17008764007494148,-2.565966260791829
3.013426140340726,-1.774023239008216,2.7888604417392484,1.5823804108785873,-0.4244192049739442,-2.2709572097585577
2.995685907950644,-1.7782674310579554,2.8046842458480343,1.5596708387810017,-0.6951175501903851,-1.9567917760247497
2.9779032336400646,-1.7852186065598592,2.8202809542358445,1.5401029210207542,-0.9796658824239883,-1.6271649174212668
2.960051047574466,-1.7950152653840992,2.835681983446052,1.5238312718465414,-1.2751485545838197,-1.2863902957880256
2.942100894920625,-1.8077667509299373,2.8509202961645173,1.5109673688886611,-1.5783023238416083,-0.9393318436136258
2.924023227411326,-1.8235497741683535,2.866029969853404,1.5015740504525248,-1.8855789143502153,-0.591318807177035
2.905787729669642,-1.8424055633118557,2.8810457103579292,1.4956608623807544,-2.1932191054984775,-0.24804390975878116
2.8873636740365236,-1.8643377543668405,2.8960023189817368,1.4931804232831665,-2.497338971339387,0.08455626264542924
2.8687202964928553,-1.8893111440802344,2.9109341232145685,1.4940259859096208,-2.794028888784731,0.4004395096252398
2.849827185052053,-1.9172514329680816,2.9258743830736647,1.4980303810058733,-3.0794653050140814,0.6936148393303789
2.8306546707223723,-1.9480460860182225,2.9408546868837235,1.504966529399177,-3.350033904035121,0.9583158672826809
2.81117420986219,-1.9815464250585737,2.9559043521777153,1.5145496880720037,-3.6024607897553764,1.1891859004379761
2.7913587456116042,-2.0175710329561274,2.9710498490584354,1.5264415470763835,-3.8339458505121917,1.3814663142153354
2.771183035282043,-2.0559104914612494,2.986314264529199,1.5402562102185369,-4.042290020483518,1.531176331653819
2.7506239303674302,-2.0963333916660845,3.0017168266313843,1.5555679735350751,-4.22600627711359,1.6352696276249403
2.729660596450769,-2.1385934544372205,3.017272506366735,1.5719206698113246,-4.384403506815452,1.6917521540159266
2.708274661906397,-2.182437489505375,3.032991713064848,1.588838191351484,-4.517633298923171,1.6997468761137082
2.6864502870113434,-2.227613822494607,3.048880094978363,1.6058356601126211,-4.626692461388225,1.659494972088155
2.6641741487863975,-2.273880747108489,3.064938451579489,1.6224306098335026,-4.713378356485545,1.572289147371242
2.6414353413153124,-2.3210145306733443,3.081162757677824,1.638153501307215,-4.780199384351218,1.4403421402836878
2.618225196008579,-2.3688165245168564,3.097544292690896,1.6525569227100518,-4.830248162569471,1.2666009221573955
2.5945370307634104,-2.417119006142551,3.1140698619179967,1.6652229319316258,-4.867049169998106,1.0545231191174118
2.5703658407019847,-2.465789497842532,3.130722091237313,1.6757681631227999,-4.894395057722261,0.8078356889295184
2.545707945723559,-2.5147334484197548,3.147479772868541,1.6838465200120951,-4.916186106330823,0.5302963421343907
2.5205606112393615,-2.563895309483063,3.164318238068662,1.689149483433439,-4.936285540845778,0.2254757592747857
2.494921658144531,-2.613258164891521,3.1812097329029965,1.691404241026187,-4.958400131358888,-0.10342592951338118
2.4687890764956157,-2.66284216620511,3.1981237753132583,1.6903699817310531,-4.985991469715344,-0.4537205940866599
2.4421606548335646,-2.7127020809022633,3.2150274751305687,1.6858327757901865,-5.0222192960739465,-0.823329305478938
2.415033634024542,-2.762924273863003,3.2318858028884705,1.677599482735397,-5.069914865345396,-1.210837845515408
2.3874043912859118,-2.8136234225164567,3.2486617977158243,1.665491104280243,-5.131579944291823,-1.6155164150154566
2.359268157060747,-2.864939221959375,3.265316708758627,1.6493359401300884,-5.2094057017037585,-2.0373112325451417
2.3306187648411534,-2.9170332789764126,3.2818100681599276,1.628962827804637,-5.305305375918356,-2.4768161469894685
2.301448432051389,-2.970086332735596,3.298099696437974,1.6041946663347424,-5.420954935842529,-2.9352317773996957
2.271747568724033,-3.0242958820940213,3.3141416431013213,1.5748423485607455,-5.557836717685101,-3.4143184220465006
2.241504609903093,-3.079874249270872,3.3298900665869287,1.5406991643402805,-5.717281969182759,-3.916347388553878
2.2107058674103843,-3.1370470689627,3.3452970582303316,1.5015356904547417,-5.900509173835786,-4.444053748854729
2.179335396720757,-3.1960521607010577,3.360312415134879,1.4570951529661944,-6.108655834206596,-5.000591981908327
2.1473748751137465,-3.2571387190431236,3.374883366664541,1.4070892331471112,-6.342802000466381,-5.5894946142971245
2.1148034879233153,-3.3205667390477873,3.388954258996012,1.35119428700414,-6.603984218765847,-6.214632821086961
2.0815978205328376,-3.386606581235446,3.4024662018660536,1.2890479587932704,-6.893198754886317,-6.880176983810685
2.047731754720483,-3.455538568784309,3.415356681453986,1.2202461889551635,-7.211392951147985,-7.5905543771951045
2.01317636903264,-3.527652498295789,3.427559143343538,1.1443406451832123,-7.559443437315362,-8.350400426895522
1.9778998440496822,-3.6032469326689425,3.43900254979537,1.0608366409142571,-7.938119683144576,-9.164499312584015
1.9418673747229929,-3.6826281295003884,3.4496109162045125,0.9691916477884169,-8.348031100011163,-10.037709069287462
1.9050410934279889,-3.7661084405005,3.459302832682397,0.8688145570955423,-8.789555627742876,-10.97486577745941
1.867380009022984,-3.8540039967779287,3.4679909782533525,0.7590658993209483,-9.262747547938398,-11.980660976773072
1.8288399690552046,-3.946631472257313,3.4755816372465618,0.6392592895532175,-9.767222231058993,-13.059486181206534
1.7893736543326315,-4.044303694567903,3.481974230142094,0.5086644277411522,-10.302015757477678,-14.215238455855324
1.7489306173869525,-4.14732385214268,3.4870608744195053,0.3665120431825989,-10.865417982885939,-15.451081638039797
1.7074573788655258,-4.255978031971539,3.4907259948513314,0.2120012268022009,-11.45477879881326,-16.76915920272898
1.6648975985458105,-4.3705258199596715,3.4928460071193532,0.04430963477491112,-12.06628923445223,-18.170257287447306
1.6211923403462138,-4.491188712304194,3.4932891034671023,-0.13739293809956193,-12.69474181049854,-19.6534203238554
1.576280453223172,-4.618136130409179,3.4919151740861065,-0.33392714133811596,-13.333278291676558,-21.215527350671458
1.5300990919190802,-4.751468913325945,3.4885759026727254,-0.5460824148448306,-13.973137680882777,-22.85084454944691
1.4825844027858208,-4.891200290134773,3.483115078524277,-0.7745908603392997,-14.603422747225238,-24.55057872566701
1.4336723998844731,-5.0372345176070255,3.475369169920884,-1.0200966475959699,-15.210909085073032,-26.302466790872955
1.383300054708403,-5.189343608457756,3.4651682034449243,-1.2831213155046994,-15.779925789860773,-28.09044661633062
1.3314066186238254,-5.347142866356364,3.452336990289877,-1.5640257816680057,-16.29234002950546,-29.894463025454495
1.2779351899602618,-5.510066266651419,3.436696732473197,-1.8629704119225505,-16.727677473210626,-31.69046656153147
1.2228345272937475,-5.6773430413835255,3.418067028353972,-2.179875077537865,-17.063405000182513,-33.450658956807494
1.1660610968799123,-5.847977091385351,3.396268277578593,-2.51438166710594,-17.27538998229119,-35.14402504555631
1.1075813259660587,-6.020730991208263,3.3711244609075335,-2.865821917561503,-17.338531318072818,-36.737164424501245
1.0473740160539762,-6.1941163043889915,3.3424662417319184,-3.2331935618065155,-17.22753253925919,-38.19539795768709
0.9854328530100862,-6.3663916297815835,3.310134306113853,-3.6151475413833865,-16.917760104486568,-39.484078047721674
0.9217689367122703,-6.535569230826449,3.273982830700019,-4.009988321860603,-16.386105959936632,-40.56998497831692
0.8564132444040058,-6.699430290425815,3.2338829474814133,-4.415688171643772,-15.611759462926269,-41.422655135721165
0.7894189414997477,-6.855547885055078,3.1897260657649755,-4.829914723000984,-14.57679648358256,-42.01547209396853
0.7208634626491969,-7.001315849890903,3.1414269185349655,-5.250069443940669,-13.26651726827197,-42.32636785453711
0.6508503041502879,-7.133981022573623,3.088926224095559,-5.67333312248604,-11.669509603035232,-42.33803305525983
0.5795104939245517,-7.250676118603976,3.0321928928706985,-6.096713453038639,-9.7774749212642,-42.03761822067424
0.507003732738512,-7.348450867816618,2.971225758340312,-6.517089635245381,-7.584922515494855,-41.41601187432562
0.43351922406034576,-7.424300092971567,2.906054861987858,-6.931249753988637,-5.08889824103393,-40.46688858512604
0.3592762231306301,-7.475189075381906,2.836742364447972,-7.335918639839898,-2.2889556535914912,-39.18581137124596
0.2845243323768111,-7.498078631917822,2.763383178049573,-7.727776753552358,0.8124128808166102,-37.56972966467091
0.20954354605763287,-7.489954503109655,2.6861054105140494,-8.103474050199067,4.208700358351371,-35.61722003838921
0.13464400102653631,-7.447867499526142,2.6050706700120587,-8.459646250582958,7.887563458897446,-33.329758625620904
0.06016532603127489,-7.3689918649371675,2.520474207506229,-8.792943836839168,11.828293736387392,-30.714181125303938
-0.013524592618096784,-7.250708927573293,2.4325447691378375,-9.100085648092207,15.998815157606616,-27.786273844714287
-0.08603168189382972,-7.090720775997227,2.3415439126569155,-9.37794838653935,20.35267557538546,-24.575156106176546
-0.15693888965380198,-6.887194020243372,2.247764428791522,-9.623699947601116,24.826733822090024,-21.127794369107203
-0.2258108298562357,-6.638926682022472,2.151527429315511,-9.834977891292189,29.340409031583025,-17.512701262351822
-0.2922000966764604,-6.345522591706642,2.053177650402589,-10.010104903915707,33.79736226393496,-13.821723355539481
-0.35565532259352683,-6.007548969067292,1.9530766013634318,-10.148322137471101,38.09023516243317,-10.168926660912993
-0.4157308122841998,-5.626646617442961,1.8515933799887208,-10.250011404080231,42.10854264846053,-6.686026514477215
-0.4719972784586294,-5.205561190958355,1.7490932659479184,-10.316871669225003,45.74907829333167,-3.514554971904975
-0.5240528903682129,-4.748070408025039,1.6459245492556684,-10.352017218944052,48.9274380629098,-0.7958499911168166
-0.5715335944484633,-4.258796027395941,1.542404377066228,-10.359975718855221,51.58877408091932,1.33929165709843
-0.6141215547224227,-3.7429082865867476,1.4388046198776756,-10.346582802284237,53.71589249962073,2.7791186582226968
-0.6515506375882901,-3.20574936159054,1.3353387918548332,-10.31879161570201,55.33338188587811,3.4356453968248486
-0.6836081312041955,-2.652415542731759,1.232150875697813,-10.28443516173376,56.507447412371064,3.2443875563011493
-0.7101322866315131,-2.0873410686080485,1.1293065240804754,-10.25199128617075,57.34220674463531,2.158878054495083
-0.7310056973175936,-1.5139190011616952,1.0267866112187678,-10.230402505625799,57.974026222137525,0.140570444112643
-0.7461448873292105,-0.9341787389403199,0.9244825861625098,-10.228996801184673,58.56581099705729,-2.8547902357795034
-0.7554866747186136,-0.348520628969747,0.822192618150663,-10.257544703542468,59.302944590575024,-6.893158050573642
-0.7589718810083111,0.24450881693600324,0.7196171711152384,-10.326476284048205,60.39179370620678,-12.079354579077732
-0.7565267928389511,0.848426753998071,0.6163524082747563,-10.447269829838982,62.060119227505794,-18.573518129452555
-0.7480425252989704,1.4690279462731288,0.5118797099763666,-10.633005011133507,64.55532080282894,-26.601694374670146
-0.7333522458362391,2.114581154301418,0.4055496598650315,-10.899021954880208,68.12798235266143,-36.445023248308175
-0.7122064342932249,2.7958609778280326,0.2965594403162294,-11.26347218736329,72.9659218252877,-48.362216070428495
-0.6842478245149446,3.5255201960809095,0.1839247184425965,-11.747094348067574,78.98592671754452,-62.32018576623385
-0.6489926225541355,4.315379463256354,0.06645377496192076,-12.370296205729913,85.25229034201936,-77.21475033432317
-0.605838827921572,5.167902366676548,-0.05724918709537838,-13.142443709073145,88.5566530429532,-88.92858390911583
-0.5541598042548065,6.05346889710608,-0.18867362418610983,-14.031729548164304,80.86832040048792,-86.78578962858143
-0.4936251152837457,6.862152101110959,-0.32899091966775285,-14.899587444450118,48.848055402563176,-52.73879321117274
-0.4250035942726361,7.35063265513659,-0.47798679411225403,-15.426975376561845,-11.847900058770797,19.200639449248886
-0.3514972677212702,7.232153654548882,-0.6322565478778726,-15.234968982069356,-71.56013799839297,89.04237849673007
-0.27917573117578137,6.516552274564952,-0.7846062376985661,-14.344545197102056,-95.81413346147193,111.31937637482409
-0.21401020843013185,5.558410939950233,-0.9280516896695866,-13.231351433353815,-92.17519404831701,97.73674510126143
-0.15842609903062954,4.636658999467063,-1.0603652040031248,-12.2539839823412,-80.7644096763231,75.49834246842295
-0.1120595090359589,3.8290149027038316,-1.182905043826537,-11.49900055765697,-70.25708072728126,55.6188455846993
-0.07376936000892059,3.126444095431019,-1.2978950494031067,-10.942812101809977,-62.35250425428439,39.81589197360816
-0.0425049190546104,2.502919052888175,-1.4073231704212066,-10.544653182073896,-56.80727020656011,27.420012744206083
-0.01747572852572865,1.934846350822574,-1.5127697022419455,-10.270453054631835,-53.08037873245806,17.52035775028645
0.001872734982497088,1.4040425634979934,-1.6154742327882639,-10.09524947712897,-50.7014717576957,9.40008696757204
0.015913160617477023,0.8970278459210363,-1.7164267275595535,-10.001248607453249,-49.311471214330865,2.5590968823803926
0.024883439076687386,0.4039131337777277,-1.816439213634086,-9.975657638629444,-48.6366279782629,-3.3345592454140105
0.028922570414464662,-0.08245314600490133,-1.9161957900203803,-10.009003231083584,-48.45725381050971,-8.490444921246008
0.02809803895441565,-0.5670256841099985,-2.0162858223312163,-10.093907680296045,-48.582795577734515,-13.028083856906097
0.022427782113315663,-1.0528536398873438,-2.1172248991341767,-10.224188518865105,-48.83390485007463,-16.9983914075367
0.011899245714442225,-1.5411926883880902,-2.2194667843228277,-10.394172432940472,-49.03053688110431,-20.398391922944334
-0.0035126811694386768,-2.0314980571991335,-2.3234085086522325,-10.598156352169916,-48.985548836643964,-23.182881938745542
-0.023827661741430015,-2.521353545565573,-2.4293900721739314,-10.829985171557372,-48.503902452886166,-25.275903802743244
-0.049041197197085745,-3.0063925700944347,-2.537689923889505,-11.082744209584805,-47.3878700052613,-26.584031064099783
-0.0791051228980301,-3.480271270147048,-2.648517365985353,-11.348584520225803,-45.44835141947977,-27.012343917580754
-0.11390783559950057,-3.9347547843418456,-2.7620032111876114,-11.61870795940161,-42.52143074764426,-26.48245699455726
-0.15325538344291903,-4.3599690918182885,-2.8781902907816277,-11.883532529347182,-38.487780701130575,-24.95022807735737
-0.19685507436110192,-4.744846898829595,-2.9970256160750997,-12.133034810120755,-33.29101334466612,-22.419448691450203
-0.24430354334939786,-5.0777570322762555,-3.118355964176307,-12.357229297035257,-26.95047410590613,-18.94783072020261
-0.2950811136721604,-5.347261773335317,-3.2419282571466597,-12.546707604237284,-19.565099939181138,-14.6436317994519
-0.34855373140551354,-5.542912772727129,-3.3673953331890325,-12.693143922231803,-11.30780752178125,-9.654907196097552
-0.4039828591327848,-5.655990847944941,-3.4943267724113505,-12.789692994192778,-2.4131553310922165,-4.156801289464559
-0.4605427676122342,-5.680122401255863,-3.622223702353278,-12.831261007087424,6.837336725590917,1.6569562591245834
-0.5173439916247928,-5.611749033999954,-3.7505363124241526,-12.814691444496178,16.129183961326287,7.575352936389134
-0.5734614819647924,-5.450457194386691,-3.8786832268691143,-12.738937915132286,25.12883840582153,13.366898700770642
-0.6279660539086593,-5.199168810328476,-4.006072606020437,-12.60526892812458,33.50123795500323,18.779308599928402
-0.6799577420119441,-4.8641564307784435,-4.132125295301683,-12.417475842125297,40.93461628162167,23.549660908141227
-0.7285993063197286,-4.454810267962227,-4.256300053722936,-12.181979233043885,47.17211006012634,27.42764391474239
-0.7731474089993509,-3.9830891673609634,-4.378119846053375,-11.90770279389646,52.043997327848736,30.20698221969479
-0.8129783006729605,-3.462649194082476,-4.49719687399234,-11.605632971699512,55.49094538500709,31.754574797951467
-0.8476047926137853,-2.9077397402324054,-4.613253203709335,-11.288087223719998,57.570098956717054,32.0266376096725
-0.8766821900161094,-2.3320387506652347,-4.726134075946535,-10.967820847623273,58.441656494399375,31.06620066807999
-0.9000025775227617,-1.7476221857212408,-4.835812284422768,-10.657158840942472,58.34045425961306,28.98347976755078
-0.9174787993799741,-1.1642176431251103,-4.942383872832193,-10.367324043266965,57.54139705130032,25.926003786276112
-0.9291209758112252,-0.5888036726121071,-5.046057113264863,-10.108064005404204,56.32779170921216,22.04681465361118
-0.9350090125373463,-0.025525755519985482,-5.147137753318905,-9.887595858868092,54.968717633735565,17.477024639484267
-0.9352642700925461,0.5241614208173702,-5.246013711907586,-9.71282561247325,53.70768551750654,12.305457131303724
-0.9300226558843724,1.0612382759924355,-5.3431419680323184,-9.589771041160212,52.76179973857317,6.5648731375235245
-0.919410273124448,1.588856273378167,-5.439039678443921,-9.524122309784977,52.32914664305169,0.2223281192987736
-0.9035217103906663,2.112147739808684,-5.534280901541771,-9.521899028591989,52.6019048671304,-6.829397490656217
-0.8824002329925795,2.638166788479988,-5.629499891827691,-9.59019300349855,53.78289810707604,-14.78173634026304
-0.8560185651077796,3.1759957695507484,-5.725401821862676,-9.73801036690118,56.1027338865477,-23.92177608716855
-0.8242586074122722,3.7370231084162255,-5.822781925531688,-9.977228127772866,59.83085672989723,-34.63878472032579
-0.7868883763281099,4.335331675715198,-5.922554206809417,-10.323615974976125,65.26049419292391,-47.400236679415194
-0.743535059570958,4.987936617644436,-6.025790366559177,-10.797618341770278,72.60690255655254,-62.61542906671505
-0.6936556933945136,5.714005643209962,-6.1337665499768805,-11.423772632437428,81.64325603826279,-80.14491001979238
-0.636515636962414,6.53043820359259,-6.248004276301255,-12.225221732635353,90.61145208959726,-97.81198359203403
-0.571211254926488,7.436552724488562,-6.3702564936276085,-13.203341568555693,93.50762762245704,-107.6494140685025
-0.4968457276816024,8.371629000713133,-6.502289909313165,-14.279835709240718,75.97207633477761,-90.14649210982546
-0.4131294376744711,9.131349764060909,-6.645088266405573,-15.181300630338972,20.41522382237899,-21.188183822336438
-0.321815940033862,9.335502002284699,-6.796901272708962,-15.393182468562337,-57.929929406248576,78.30436709351008
