th1 (rad),w1 (rad/s),th2 (rad),w2 (rad/s)
4.226623188673601,0.722099739857471,3.817734121717405,-2.030111876879183
4.233844186072176,0.8073844253073731,3.7974330029486127,-2.0449655790574783
4.24191803032525,0.8919269168952393,3.776983347158038,-2.059065997729925
4.2508372994942025,0.9756212035454623,3.7563926871807385,-2.072147101019595
4.260593511529657,1.058370199284979,3.7356712161705423,-2.0839426470237905
4.271177213522507,1.1400897142397621,3.7148317897003045,-2.094191058554562
4.282578110664905,1.2207120545741967,3.6938898791147587,-2.102639799138635
4.294785231210647,1.3001890748541103,3.6728634811233722,-2.1090489979223843
4.307787121959188,1.3784945494924294,3.6517729911441483,-2.1131941274667128
4.321572067454112,1.4556257843783462,3.630641049869481,-2.114867610923443
4.336128325297896,1.5316044486813833,3.6094923737602467,-2.1138793145432087
4.351444369784709,1.606476663084501,3.5883535806148146,-2.1100559582216425
4.3675091364155545,1.6803124282165698,3.5672530210325983,-2.103239542440117
4.38431226069772,1.7532045115734434,3.546220625608197,-2.0932849386126327
4.401844305813454,1.8252669307875278,3.5252877762220707,-2.0800568187623942
4.4200969751213295,1.896633176005916,3.5044872080344467,-2.0634261099366364
4.439063306881389,1.9674543064064358,3.4838529469350803,-2.043266151590113
4.458737849945453,2.0378970386385085,3.463420285419179,-2.0194487146186417
4.479116820331838,2.108141921711355,3.4432257982729926,-1.9918400136644958
4.5001982395489515,2.178381666836036,3.4233073981363478,-1.9602968143718595
4.521982056217312,2.2488196746167324,3.4037044299926293,-1.924662708300255
4.544470252963479,2.319668777638386,3.3844578029096266,-1.8847646030426966
4.567666940739863,2.391150194960497,3.3656101568791996,-1.8404094555431987
4.5915784426894675,2.46349267664655,3.347206062323768,-1.7913812635737771
4.616213369455933,2.5369318010470545,3.32929224968803,-1.7374383240554754
4.6415826874664035,2.611709374571135,3.3119178664474753,-1.6783107672021116
4.667699781212114,2.688072872400895,3.295134758775454,-1.6136983819158053
4.694580509936124,2.7662748482495085,3.278997774956296,-1.5432687599829125
4.722243258418619,2.846572231120678,3.2635650873564668,-1.4666558039348758
4.750708980729826,2.9292254165156595,3.248898529317118,-1.3834586655166419
4.780001234894982,3.0144970482836855,3.235063942661952,-1.293241208116851
4.810146205377819,3.102650375224173,3.2221315305807834,-1.1955321167477686
4.841172709130061,3.1939470538715096,3.2101762094133055,-1.0898258124875684
4.873112179668776,3.2886442563036695,3.1992779512884297,-0.9755843635759225
4.905998622231812,3.386990930525955,3.1895221076526705,-0.8522406208136983
4.939868531537072,3.4892230528477715,3.1809997014445335,-0.7192028378884628
4.974760762065549,3.595557709303285,3.173807673065649,-0.5758610638852273
5.010716339158582,3.7061858500011824,3.168049062426797,-0.4215956102810611
5.047778197658594,3.8212635805767947,3.1638331063239864,-0.25578789132561186
5.085990833464361,3.9409018935747064,3.16127522741073,-0.07783390651735955
5.1253998524001085,4.065154804797546,3.1604968883455564,0.11283943259512982
5.166051400448084,4.194005950162381,3.161625282671508,0.316755041553621
5.2079914599497075,4.327353820599885,3.164792833087044,0.5343635452369128
5.2512649981557065,4.46499596610707,3.1701364685394133,0.7660186063653475
5.295914957816777,4.606612680346396,3.1777966546030667,1.0119502863753276
5.341981084620241,4.751750872392284,3.18791615746682,1.2722373522566706
5.389498593344164,4.899809022189365,3.2006385309893868,1.5467797888745478
5.438496683566058,5.050024272153274,3.216106328878132,1.8352730990916333
5.488996926287591,5.201462793373331,3.2344590598690486,2.137186217532782
5.541011554221324,5.35301454307736,3.2558309220443764,2.4517449627200887
5.594541699652098,5.5033933678901095,3.280348371671577,2.7779228424961904
5.649575633330999,5.651143088045246,3.308127600096539,3.1144406617969813
5.706087064211451,5.794649730218658,3.3392720067145087,3.4597757470598838
5.764033561513638,5.932159503792568,3.3738697641851076,3.8121807350987216
5.823355156551563,6.061801514661814,3.411991571536095,4.169710871165765
5.883973171698181,6.181613686448354,3.4536886802477524,4.530257768490958
5.945789308562665,6.2895700248459665,3.498991257932662,4.891586778679544
6.008685008811124,6.383607315986221,3.5479071257194574,5.251374685877692
6.0725210819709865,6.461649654650694,3.6004208725782343,5.607244504156
6.1371375785174935,6.521629856390365,3.6564933176197942,5.956794790253917
6.202353877081397,6.561507758617959,3.7160612655223333,6.2976220535930105
6.267968954667577,6.579286539581245,3.7790374860582636,6.627336430379773
6.33376182006339,6.573029314621267,3.845310850362061,6.943572588691313
6.399492113209602,6.540879210035526,3.9147465762489744,7.243999591281723
6.464900905309958,6.4810866552628115,3.9871865721617916,7.526334874565386
6.529711771862586,6.392047563652715,4.062449920907445,7.788368305877504
6.593632247499113,6.272355202909102,4.14033360396622,8.028002168010865
6.656355799528204,6.12086676116577,4.220613625646329,8.24331165089795
6.717564467139862,5.9367828880783975,4.303046742155308,8.43262788010643
6.776932296020647,5.719735027152212,4.387373020956372,8.594641762503564
6.834129646292169,5.469871621374898,4.473319438581408,8.72852236946607
6.888828362505918,5.187931021022663,4.560604662276068,8.834038959787952
6.940707672716145,4.8752870953074545,4.648945051873948,8.911672134111617
6.989460543669219,4.533954054519102,4.7380617732150645,8.962698181281446
7.03480008421441,4.166540355788505,4.827688755027879,8.989232342845186
7.076465487772295,3.776147617650281,4.9175810784563305,8.994221748401792
7.114226963948798,3.366218176044409,5.007523295940349,8.981386504458653
7.147889145709241,2.9403425607817715,5.097337160984935,8.955116322986996
7.177292571317059,2.5020438428031166,5.186888324214805,8.920338167723864
7.20231300974509,2.0545580238927936,5.276091705892044,8.882375889362462
7.2228585899840185,1.6006278806185792,5.3649154647856685,8.846824736033962
7.238864868790205,1.1423224869292312,5.4533837121460085,8.819462081626389
7.250288093659497,0.6808873991837159,5.541578332962272,8.80621177856621
7.257096967651335,0.21662288778259414,5.629640450747934,8.81317472715097
7.259263196529161,-0.2512187908946555,5.717772198019444,8.846733862400587
7.256751008620214,-0.7245299356007311,5.806239536643449,8.913738191855359
7.249505709264207,-1.206450321539432,5.895376918562003,9.021766397343082
7.237441206048812,-1.7014813132649784,5.985594582535434,9.179460952987117
7.2204263929161625,-2.215592145741867,6.077389192065305,9.396895997524377
7.198270471458744,-2.756237289943213,6.171358152040549,9.685864836832259
7.170708098559312,-3.3320485153949524,6.268216800408871,10.059768933132215
7.137387613405362,-3.95158672485103,6.368814489740194,10.53227760197606
7.097871746156852,-4.619663373555287,6.474137265759954,11.112720372224143
7.051675112421299,-5.327983617051229,6.585264469482196,11.793714387742082
6.998395276250787,-6.0347448724293615,6.703201613359616,12.52348298041001
6.938047827526494,-6.6321292788433945,6.828436443163716,13.161015571907097
6.87172653473806,-6.93466969214406,6.960046598882787,13.459030561939425
6.802379837816619,-6.781495301253215,7.094636904502181,13.202653351170786
6.734564884804087,-6.227570196200647,7.2266634380138886,12.468638753949737
6.67228918284208,-5.507780454694675,7.351349825553386,11.571676847151364
6.617211378295133,-4.803757732430192,7.4670665940248995,10.747426484676028
6.569173800970831,-4.17871308404715,7.57454085887166,10.070739892203555
6.52738667013036,-3.6354848361963454,7.675248257793696,9.538052509733706
6.491031821768397,-3.1597949349004373,7.770628782891032,9.125850292121648
6.4594338724193925,-2.7359249639159295,7.861887285812249,8.810857240085621
6.432074622780233,-2.350639332201283,7.949995858213105,8.574511395308862
6.40856822945822,-1.9935446216282067,8.035740972166193,8.402912317241743
6.388632783241938,-1.656614717828959,8.11977009533861,8.285832430047815
6.372066636063649,-1.3336525043777259,8.202628419639089,8.21574440843321
6.358730111019872,-1.01986732039016,8.284785863723421,8.187047872515098
6.3485314378159705,-0.7115855409873625,8.366656342448572,8.195481077404489
6.341415582406097,-0.4060752594605571,8.448611153222616,8.237666138301325
6.337354829811492,-0.10146350017711447,8.53098781460563,8.310739952955629
6.336340194809721,0.2032712198376182,8.614095214135187,8.41203447964123
6.338372907008098,0.5082446008096002,8.698215558931599,8.538781689226205
6.343455353016194,0.8125637523372269,8.78360337582386,8.687829754194059
6.351580990539566,1.1141927051222968,8.8704816733658,8.855369105379568
6.362722917590789,1.4098111022612327,8.959035364419597,9.03668118459063
6.376821028613401,1.69470292314368,9.049402176265502,9.22593942087457
6.393768057844838,1.9627259710358476,9.141661570474248,9.416109510537554
6.413395317555197,2.206423781570729,9.235822665579624,9.599009645422244
6.435459555370904,2.417341486493174,9.331812762033847,9.76559240404735
6.459632970235836,2.586586097404992,9.42946868607432,9.906488162304777
6.485498831209886,2.7056227648801623,9.52853356769737,10.012798156710977
6.512555058858688,2.767225636195936,9.628661549264478,10.077048737451573
6.540227315220647,2.766425695848768,9.729432036638995,10.09414010743462
6.567891572179135,2.701253015644231,9.830373437713341,10.062080104927132
6.594904102335577,2.573088960624462,9.930994238762612,9.98231842061696
6.620634991941822,2.38653130135166,10.03081742296878,9.859591959758234
6.644500304955338,2.148801890287449,10.129413342566362,9.701322865907613
6.665988323858213,1.8688406440630425,10.226426571225439,9.516722365384162
6.684676730298843,1.5562874813917893,10.32159379487928,9.315804434552621
6.7002396051127615,1.2205431950292234,10.414751839224806,9.108495725780976
6.712445037063054,0.8700398176102684,10.505836796482615,8.903964826861586
6.721145435239157,0.5117737084727355,10.59487644475123,8.710218155128326
6.726263172323884,0.15108847857077218,10.681978626302515,8.533947814303609
6.727774057109592,-0.20834596331393213,10.76731810444555,8.380580314790334
6.7256905974764525,-0.564426942608385,10.851123907593454,8.254463475142067
6.720046328050369,-0.9164501753352365,10.933668542344874,8.159134796499586
6.710881826297017,-1.2649304303701787,11.015259890309869,8.097629622207721
6.698232521993315,-1.6114482921193658,11.096236186531947,8.072804823023244
6.6821180390721215,-1.958546629359177,11.17696423476218,8.087669724187519
6.66253257277853,-2.3096914125439865,11.257840932004054,8.145728959601458
6.63943565865309,-2.669306349061163,11.33929822160007,8.251351541665905
6.612742595162478,-3.0428875882539375,11.421811737016728,8.410186015569293
6.582313719279939,-3.4371992596271044,11.505913597172421,8.629639752608231
6.547941726683668,-3.8605328502324494,11.592209994698504,8.919419819882464
6.509336398181343,-4.322957909956903,11.681404192897329,9.292060341690908
6.466106819081774,-4.836331358928847,11.774324796314238,9.763145953454552
6.417743505492485,-5.4133935686034595,11.871956255848783,10.350342043051048
6.36360956980645,-6.064135677926198,11.975459676279293,11.068765170150602
6.302968213027189,-6.784938834428759,12.086147327980798,11.916490124582284
6.2351188246829015,-7.531452141480948,12.205312229226621,12.837596678241871
6.159804303268092,-8.16821349768133,12.33368819600904,13.652695064953637
6.078122168291278,-8.439006989727995,12.470215146658576,14.017250750925259
5.993732098393998,-8.121686126566681,12.610387654167829,13.633811233595319
5.912515237128331,-7.333650908888505,12.746725766503781,12.668966110081913
5.839178728039446,-6.418340355111727,12.8734154276046,11.589969328190294
5.774995324488329,-5.580507338938539,12.989315120886504,10.666798736234382
5.719190251098944,-4.861763901484957,13.095983108248848,9.94768753786261
5.6705726120840945,-4.245257094224556,13.195459983627474,9.405063670599068
5.628120041141849,-3.705287246557689,13.289510620333465,9.002338365112275
5.591067168676272,-3.219871822550586,13.379534003984586,8.709824590282562
5.558868450450766,-2.7721634009734606,13.466632249887413,8.50586717375554
5.531146816441031,-2.34951608197632,13.551690921624967,8.375067349884027
5.507651655621268,-1.9424026525539277,13.635441595123808,8.306447759148623
5.488227629095729,-1.5436075503213607,13.718506072715295,8.292036192268368
5.472791553592515,-1.1477085604635793,13.801426434637978,8.325824479336577
5.461314467987879,-0.75078871274485,13.884684679431343,8.402984290135269
5.453806580860431,-0.3503230937221341,13.968714522332697,8.519241731221486
5.450303349923209,0.054802568603907365,14.05390693964491,8.670345775723225
5.450851375609249,0.46417896206224035,14.140610397402144,8.851596835360539
5.455493165229871,0.8757068762668461,14.229126365755748,9.057431360958757
5.46425023399254,1.2854307040337314,14.319700679365337,9.28108793947996
5.477104541032877,1.6874423929253448,14.412511558760135,9.514408708711693
5.49397896496213,2.073941791512967,14.507655645847253,9.747850605442483
5.51471838287726,2.4355403445577917,14.605134151901678,9.970781927584541
5.539073786322838,2.7618672769458814,14.704841971177524,10.172106697952097
5.566692459092297,3.0424716595609875,14.806563038157044,10.341185363858573
5.597117175687907,3.267918101585292,14.90997489179563,10.468918593613429
5.62979635670376,3.430880846945195,15.014664077731764,10.548771001134046
5.664105165173211,3.526998809357257,15.120151787743104,10.577486195695574
5.699375153266784,3.5552973048254017,15.22592664970006,10.555314924639104
5.7349281263150385,3.5181022557028476,15.331479798946452,10.485723160443642
5.770109148872067,3.4205153994271122,15.436337030550888,10.374698639517486
5.804314302866338,3.26961958300296,15.540084016946063,10.229862498116825
5.837010498696368,3.0736079565870007,15.642382641927231,10.059591422758569
5.867746578262238,2.8409912771426744,15.742978556154817,9.872290772387501
5.896156491033665,2.5799702748397215,15.841701463878692,9.675877603396312
5.921956193782062,2.2979984295614484,15.938460239912656,9.477469734852942
5.944936178077676,2.0015201433645373,16.033234937261184,9.283244156803311
5.964951379511322,1.6958502656557517,16.126067378829216,9.098419392770243
5.98190988216788,1.3851564725106038,16.21705157275692,8.927320967836256
5.995761446892986,1.0725091472872115,16.306324782435283,8.773498288594926
6.006486538365857,0.7599694812433906,16.39405976532123,8.639870464548059
6.014086233178292,0.4486930476519918,16.48045846996671,8.528886329578357
6.018573163654811,0.13903200294653617,16.565747333262493,8.442690044271739
6.019963483684276,-0.1693760952092409,16.65017423370521,8.383288512524993
6.0182697227321835,-0.4775412161344596,16.734007118830462,8.352720786831735
6.013494310570839,-0.7870813979815856,16.81753432669878,8.35323292756039
6.005623496591023,-1.1002152445890718,16.901066655974383,8.387464555558378
5.994621344145132,-1.4197897731773579,16.984941301529965,8.45865550107751
5.980423446413359,-1.7493458294579027,17.06952785654074,8.570881878709557
5.96292998811878,-2.0932200635387996,17.15523667532784,8.72932865627304
5.941997787483392,-2.4566729612105505,17.24252996189057,8.940595103844545
5.917431057871286,-2.8460065069327847,17.331935912929012,9.212997096817329
5.8889709928019585,-3.268568234261767,17.424065883897185,9.55674303569985
5.856285310459341,-3.73237223538742,17.519633314254182,9.983637824567248
5.818961588105466,-4.244668554479021,17.619469692499855,10.505426041594813
5.776514902560677,-4.807893165564854,17.724523952915803,11.128644399366202
5.728435970905028,-5.409716081523573,17.835810396909466,11.8414536632999
5.674338810089792,-6.002227154065207,17.954224933542466,12.585480875887487
5.61431653854914,-6.47128773878919,18.08007974230134,13.213709803410572
5.549603661161248,-6.633169631613508,18.212216840335447,13.485018399537536
5.4832719648451125,-6.345812661000024,18.347067024330823,13.21502666068948
5.419813838235112,-5.682680047190376,18.47921729093772,12.510194057613031
5.362987037763208,-4.871333244544237,18.60431923151385,11.678104744579473
5.314273705317766,-4.076390873115781,18.721100278959643,10.932981333495182
5.273509796586608,-3.352121877125533,18.830430092294595,10.338571095891316
5.239988577815352,-2.6987577627378023,18.93381580325351,9.888275570662977
5.213001000187974,-2.1016416209204336,19.03269855896014,9.558097961991047
5.19198458397877,-1.5452638683123263,19.12827953858005,9.324607593261799
5.176531945295647,-1.0167763157486154,19.221525614512668,9.168800818996866
5.16636418213816,-0.5063186952302529,19.313213622702637,9.075904198954966
5.161300995185858,-0.006605310961349309,19.403972664692187,9.034351314884997
5.161234942076245,0.48753658698019814,19.494316177841036,9.034796666521254
5.166110307946047,0.9795216272637375,19.58466414450625,9.069338037736301
5.175905524218685,1.4712495523645293,19.675357524883612,9.130942422442269
5.19061801974233,1.9632686009549383,19.766666949108036,9.213040145205468
5.210250705751879,2.454895832454019,19.85879735056009,9.30925775311877
5.234799664076419,2.9443282306609806,19.951889928091276,9.41327124248413
5.264242946383029,3.428773048016138,20.046022640516117,9.518768526390353
5.298530676863191,3.904618459604466,20.141210325780023,9.619511578834935
5.337576861459236,4.367655566797798,20.23740544156837,9.709484448608833
5.381253417127214,4.813350138823216,20.334500286054457,9.78310476316436
5.429386918515446,5.237148588753038,20.4323313336861,9.835466254344668
5.481758404402976,5.634790339989837,20.530685996229547,9.862572101697108
5.538106307802875,6.00259142041151,20.62931171724652,9.86151740566226
5.59813222200699,6.337664607267106,20.72792689130314,9.830586267972967
5.661508868079661,6.638050401120207,20.82623275398287,9.769244320017743
5.727889372090863,6.9027483912370675,20.92392519718305,9.678027539187854
5.796916856003234,7.131655843612712,21.020705472574928,9.558347367797499
5.868233414439361,7.325434743273788,21.116288946252904,9.412245344736657
5.941487761872099,7.485336592914606,21.21041139970027,9.24213485863124
6.016341127801245,7.613015046374867,21.302832748286583,9.050563552011349
6.092471278264994,7.7103513393816145,21.393338383806697,8.840020129669407
6.16957479165881,7.779309179776793,21.48173858510339,8.612797556164715
6.247367883456579,7.821827027545146,21.56786656066504,8.370914021126659
6.32558615373203,7.839748465377992,21.651575700876304,8.116085414182635
6.40398363838581,7.834786489922416,21.732736555018132,7.849738810685951
6.482331503285034,7.808515020111305,21.811233943124993,7.573055104779234
6.560416653486147,7.762380204164461,21.886964494172783,7.287029511334354
6.638040455527792,7.697724548516341,21.959834789286127,6.9925402734813344
6.715017701012955,7.615817905916719,22.02976019202094,6.690417860630609
6.791175880072122,7.517890534044453,22.09666437062725,6.381508801681594
6.866354785412566,7.405164535834466,22.160479458644065,6.066729884463148
6.940406430770911,7.27888092524328,22.221146757488697,5.74710974346565
7.013195240023344,7.140320327306882,22.278617854923354,5.423815922026528
7.084598443296413,6.990815967860962,22.33285601414362,5.098166432470602
7.154506602975022,6.831758198766268,22.383837678468325,4.771625737909156
7.222824184962685,6.6645903897184855,22.431553935847415,4.44578599394816
7.28947008885987,6.490796620225211,22.476011795786896,4.12233531642556
7.3543780550621225,6.311882211903531,22.51723514895115,3.8030157278894303
7.417496877181158,6.1293487053000195,22.555265306230044,3.489574185115458
7.4787903642341576,5.944665338742094,22.5901610480812,3.183710590120816
7.5382370176215785,5.759239358341082,22.621998153982407,2.8870268402714334
7.595829411204989,5.574387525742482,22.65086842238512,2.6009807269517005
7.651573286462414,5.391310976995234,22.676878229654637,2.3268478602206684
7.7054863962323665,5.211075149186021,22.700146708256845,2.0656938609393
7.757597147724227,5.034595897921848,22.720803646866237,1.8183579570182034
7.807943106703446,4.86263226947497,22.738987226436418,1.5854480050104875
