th1 (rad),w1 (rad/s),th2 (rad),w2 (rad/s)
3.63658195184128,-2.2516342928906097,3.970320984353223,-1.097276422363035
3.614065608912374,-2.2114537109990855,3.9593482201295926,-1.0796146331067347
3.591951071802383,-2.1742763613581593,3.9485520737985254,-1.059648323821528
3.5702083081888016,-2.1400660048500613,3.93795559056031,-1.0374353083760202
3.548807648140301,-2.108783858983715,3.92758123747655,-1.0130391436186166
3.527719809550464,-2.0803892717602173,3.9174508460403636,-0.9865277826102927
3.506915916832862,-2.0548402104056707,3.9075855682142606,-0.9579725792182809
3.4863675147288054,-2.0320935943897718,3.898005842422078,-0.9274475926303634
3.4660465787849075,-2.0121054979678727,3.888731366495774,-0.8950291466582982
3.445925523805229,-1.9948312439801226,3.8797810750291912,-0.8607956042578111
3.4259772113654274,-1.9802254078348105,3.871173118986613,-0.824827322392683
3.4061749572870794,-1.9682417484685102,3.8629248457626866,-0.7872067561910917
3.3864925398023944,-1.9588330815577935,3.8550527782007755,-0.7480186843216444
3.3669042089868166,-1.9519511092820054,3.847572591357559,-0.7073505297326041
3.3473846978939967,-1.9475462204166085,3.840499086060233,-0.6652927514571512
3.3279092356898308,-1.945567274374503,3.8338461585456614,-0.6219392842183923
3.308453562946086,-1.9459613829021765,3.8276267657034775,-0.5773880032163337
3.288993949117064,-1.9486737033639956,3.8218528856713143,-0.5317411919064058
3.269507212083424,-1.9536472577898893,3.8165354737522503,-0.4851059909587342
3.249970739505525,-1.9608227919928105,3.811684413842663,-0.4375948071003072
3.230362511585597,-1.970138688955642,3.80730846577166,-0.38932566137086677
3.2106611246960406,-1.9815309502208562,3.803415209157951,-0.3404224576421175
3.190845815193832,-1.9949332580816457,3.80001098458153,-0.291015154213288
3.1708964826130153,-2.0102771298847713,3.797100833039397,-0.24123982402489352
3.1507937113141677,-2.0274921736608564,3.794688434799148,-0.1912385925984764
3.1305187895775592,-2.046506451588958,3.792776048873163,-0.14115944722138188
3.1100537250616695,-2.067246954523026,3.7913644544009495,-0.09115591608517044
3.0893812555164395,-2.089640187059929,3.7904528952400978,-0.04138662190494035
3.06848485364584,-2.113612858571241,3.7900390290210484,0.007985279235961242
3.0473487250601274,-2.139092671464475,3.790118881813408,0.05679275675809674
3.0259577983454826,-2.1660091939328296,3.7906868093809893,0.1048656390630221
3.0042977064061542,-2.194294800863544,3.7917354657716196,0.15203139308786498
2.982354758397519,-2.223885663666151,3.7932557797024984,0.19811591700268327
2.9601159017608576,-2.2547227677840285,3.795236938872525,0.24294431003861292
2.937568674083017,-2.2867529357391803,3.797666381972911,0.28634158192605597
2.9147011447256252,-2.319929833826581,3.8005297977921715,0.3281332646085112
2.8915018463873596,-2.354214942024883,3.8038111304382567,0.36814589077653725
2.8679596969671106,-2.389578469234372,3.807492589346022,0.4062073072031619
2.844063912274767,-2.426000199412904,3.811554662418054,0.44214679560262726
2.819803910280638,-2.4634702583076993,3.81597613037408,0.4757949794312281
2.795169207697561,-2.501989794980139,3.820734080168392,0.5069835012981585
2.7701493097477594,-2.54157157687814,3.825803915181374,0.5355444620373424
2.744733593978978,-2.5822405015208845,3.8311593598017475,0.5613096186175167
2.7189111889637694,-2.624034031650909,3.836772455987923,0.5841093436114058
2.69267084864726,-2.6670025637557346,3.842613549424037,0.6037713536724327
2.666000823009703,-2.711209742001155,3.8486512629607614,0.6201192182555434
2.6388887255896916,-2.756732730746281,3.854852455143317,0.6329706626593372
2.6113213982822288,-2.8036624588742822,3.8611821617699102,0.6421356814633019
2.583284773693486,-2.8521038481600596,3.867603518584543,0.6474144797904012
2.5547637352118855,-2.902176035817818,3.8740776633824474,0.6485952608307584
2.525741974853707,-2.9540125982443035,3.880563615990755,0.645451879075201
2.496201848871264,-3.0077617788024393,3.8870181347815067,0.6377413801414157
2.46612423108324,-3.0635867172542257,3.893395548582921,0.6252014503875919
2.4354883639106975,-3.121665672092748,3.8996475630867966,0.607547803192154
2.40427170718977,-3.18219221943916,3.9057230411187183,0.5844715343586021
2.3724497849953785,-3.245375403215679,3.911567756462304,0.5556364871348101
2.3399960309632215,-3.3114398007964105,3.9171241213336523,0.5206766783918059
2.3068816329552573,-3.3806254560684,3.9223308881175702,0.4791938521731425
2.2730753783945734,-3.4531876176040677,3.9271228266393017,0.4307552456715182
2.238543502218533,-3.529396203297093,3.931430379096017,0.3748916762212722
2.203249540185562,-3.609534894297287,3.9351792958582297,0.3110960864822009
2.1671541912425893,-3.693899740537801,3.9382902567230516,0.23882271874420424
2.1302151938372114,-3.7827971380286534,3.9406784839104936,0.1574871278891515
2.092387222456925,-3.8765410152977635,3.942253355189385,0.06646728502986768
2.0536218123039474,-3.9754490444364396,3.9429180280396836,-0.034893931737458236
2.013867321859583,-4.079837673539767,3.942569088722309,-0.14728451996629693
1.9730689451241852,-4.190015765374941,3.941096243522646,-0.2714170327069023
1.9311687874704357,-4.30627662655492,3.938382073195577,-0.40801975633142246
1.8881060212048866,-4.428888228348586,3.9343018756322627,-0.5578249873199911
1.8438171389214006,-4.558081461708903,3.928723625759063,-0.7215540446707849
1.7982363243043116,-4.694036343027674,3.921508085312355,-0.899898739946236
1.7512959608740348,-4.836866201105772,3.912509097912893,-1.0934991769738232
1.7029272988629771,-4.986600035475361,3.901574106143155,-1.3029179813134868
1.6530612985082236,-5.143163442791441,3.88854492633002,-1.5286113740169618
1.6016296640803092,-5.306358755442937,3.8732588125898504,-1.7708979030495318
1.5485660765258797,-5.475845308204962,3.855549833559355,-2.029926111286764
1.4938076234438302,-5.651121014981988,3.8352505724464874,-2.305642913261829
1.4372964132940103,-5.831506655100267,3.812194143313869,-2.5977649104521356
1.3789813467430077,-6.016134382898667,3.7862164942093477,-2.9057552106655473
1.318820002914021,-6.203941927737685,3.7571589421026923,-3.228808430762317
1.2567805836366441,-6.393673695019095,3.7248708577950693,-3.5658463564656326
1.1928438466864533,-6.58388948795743,3.689212394230413,-3.915526139048642
1.127004951806879,-6.772980860189683,3.6500571328399265,-4.276261911768471
1.059275143204982,-6.959194245905762,3.6072945137222416,-4.6462593709932
0.9896832007459244,-7.140659109841011,3.5608319200123097,-5.023561332958199
0.9182766096475143,-7.315418558578757,3.5105963066827277,-5.406100759433757
0.8451224240617268,-7.48145930442775,3.45653529908839,-5.791756486359591
0.7703078310174493,-7.636737690160367,3.398617734224794,-6.178406108609269
0.6939404541158456,-7.779198725467638,3.3368336731387016,-6.5639703193471775
0.6161484668611692,-7.906785743622961,3.2711939699452297,-6.946443519247802
0.5370806094249396,-8.017439291027616,3.2017295347527517,-7.323906642403118
0.45690621651466345,-8.109085115103355,3.1284904683287205,-7.694519764779875
0.3758153653636299,-8.179612525390082,3.0515452706809216,-8.056494020541855
0.2940192401097291,-8.226845910172056,2.970980330475503,-8.408044534905583
0.2117507810080085,-8.248513778298427,2.886899885126447,-8.747328433254424
0.12926564322502423,-8.242221363450987,2.7994266007939026,-9.072374503275867
0.046843429590514366,-8.20543454282008,2.708702855761144,-9.381013773986915
-0.03521091583768644,-8.135484440021434,2.6148927180212747,-9.670823052323243
-0.11656576023790079,-8.02960325963597,2.518184487498042,-9.939096039713977
-0.19686179283426047,-7.8850020236604665,2.4187935271009025,-10.18285842747209
-0.2757118130708651,-7.6989990604494345,2.3169649428261816,-10.398943339044298
-0.35270180367535947,-7.469203312833077,2.2129755094357386,-10.584140334325678
-0.42739383680369025,-7.193747987929427,2.1071341060924818,-10.735423618939965
-0.4993313166829845,-6.87155779210624,1.9997798699030822,-10.85025247544234
-0.5680468946040469,-6.502618523858738,1.8912773451486589,-10.926920151542985
-0.6330730798426343,-6.088204625404289,1.7820081436332291,-10.964909661876138
-0.6939551260966772,-5.631013480345591,1.6723590470144678,-10.965201578974598
-0.7502652609001331,-5.135159832841559,1.5627070312247218,-10.930476175609366
-0.8016168592285488,-4.606002159682486,1.4534022694686282,-10.865164704922227
-0.8476768808253736,-4.049802685066116,1.344750622419406,-10.775331917462989
-0.8881749076760348,-3.4732561510814164,1.236997303244776,-10.668407836661867
-0.922907469186849,-2.882948735270987,1.1303132248781573,-10.552820782029979
-0.9517369565395588,-2.284818666725129,1.0247850170578576,-10.43760522537273
-0.9745851432068101,-1.6836810550364927,0.9204089648041304,-10.332061767526763
-0.991421953757175,-1.0828551906746848,0.8170883471288627,-10.24553393038148
-1.002250505663922,-0.4839017393365619,0.7146330078250479,-10.187344804396666
-1.0070895230572876,0.1135510162655684,0.6127595597810812,-10.166914740984655
-1.0059540128946318,0.7119319509261225,0.5110904123712346,-10.194065519973279
-0.9988346933853706,1.315849547533245,0.40914975717150187,-10.279507363933734
-0.9856761979100381,1.9322484563257873,0.30635468353216455,-10.435494545113373
-0.9663537133467802,2.57059567561276,0.20199973808103083,-10.676597746997409
-0.9406477565906526,3.242975451469883,0.09523376061105675,-11.020408803242788
-0.9082180020759537,3.963650606381176,-0.014970327421371124,-11.487582634712755
-0.868581496012142,4.746774630138302,-0.12984615376849867,-12.099446887251924
-0.8211137497107589,5.598693757821576,-0.2508406226410179,-12.868318269408622
-0.7651268121325432,6.496441667140745,-0.3795238053351041,-13.768897107820749
-0.7001623954611358,7.339436066136098,-0.5172127764133116,-14.672420970179612
-0.6267680347997748,7.887949723249085,-0.6639369861151078,-15.261324875181352
-0.547888537567284,7.832982788699236,-0.8165502348669212,-15.122885017719252
-0.46955870968029156,7.150233593215386,-0.9677790850441138,-14.230343658227824
-0.3980563737481377,6.202206688317896,-1.110082521626392,-13.072537197214512
-0.3360343068649587,5.293027592966729,-1.2408078935985372,-12.045136693061336
-0.2831040309352914,4.508507591962749,-1.3612592605291505,-11.247411013151911
-0.23801895501566392,3.8386362150817077,-1.4737333706606697,-10.655640455856215
-0.19963259286484683,3.255135343713752,-1.5802897752192318,-10.227063399153852
-0.1670812394277093,2.7326053964772994,-1.6825604092107702,-9.92626252784605
-0.1397551854629363,2.2515147438438383,-1.7818230344892307,-9.727717858405393
-0.11724003802449792,1.797285538870029,-1.8791002130732846,-9.613673570546924
-0.09926718263579763,1.3590195612912308,-1.9752369487787538,-9.571808008200543
-0.08567698702288533,0.9285514996981589,-2.070955028860759,-9.593436257965296
-0.07639147202590374,0.49987605663138673,-2.1668893914404124,-9.672182900554391
-0.07139271145958988,0.06888665538110056,-2.263611220445956,-9.802954048127706
-0.07070384490577887,-0.3666329183278034,-2.361640760927233,-9.981065286486366
-0.07437017408905691,-0.8068077129445095,-2.461451413792097,-10.201427839049298
-0.08243825121850201,-1.2493042051003929,-2.56346569218259,-10.457742590727754
-0.09493129326950595,-1.688859734185396,-2.668043118089867,-10.741706695745949
-0.11181989061135991,-2.1168190169972827,-2.7754601850473266,-11.042308601606448
-0.13298808078133273,-2.5208571749241746,-2.885883271063391,-11.345374466752096
-0.15819665253057447,-2.885139864085569,-2.999337015730912,-11.6336122862725
-0.18704805117143017,-3.191196963638865,-3.1156731385936367,-11.88742962202673
-0.21896002080781882,-3.4196971665967917,-3.234547434813904,-12.086703232030654
-0.25315699247378676,-3.553053600072204,-3.3554144671342105,-12.213402345076792
-0.2886875284745088,-3.5784025020538714,-3.4775484905849785,-12.254562401304717
-0.3244715534950475,-3.490156438416549,-3.6000941145980256,-12.20477316828467
-0.359373117879213,-3.2912900151152797,-3.722141846280872,-12.067343169491423
-0.3922860180303658,-2.9928887836087488,-3.8428152779757863,-11.853726545586081
-0.42221490586645327,-2.612117268718581,-3.961352543431647,-11.581441204562154
-0.4483360785536391,-2.1692896979282095,-4.077166955477269,-11.271200368926495
-0.4700289755329212,-1.6848964472672303,-4.189878959166534,-10.944092479926267
-0.48687794000559353,-1.1772487005935588,-4.299319883965796,-10.619420032492462
-0.4986504270115291,-0.6610409235891037,-4.405514084290721,-10.31345067021961
-0.5052608362474201,-0.14679764395971828,-4.508648590992918,-10.039029897404381
-0.5067288126870173,0.35902539165720415,-4.609038889966961,-9.805837244608767
-0.5031385587704452,0.8535698920028857,-4.707097262413049,-9.621030356717402
-0.49460285985041635,1.3369791179071675,-4.803307565980223,-9.490066375777504
-0.4812330686713447,1.8118483293993322,-4.898208229737998,-9.417566977129132
-0.4631145853773514,2.2828211499991933,-4.9923838995092895,-9.40816878942585
-0.44028637387735947,2.75638073029704,-5.086465587403548,-9.467359545688156
-0.41272256657438905,3.2408555288797403,-5.181139182860429,-9.60233874432871
-0.38031401128559167,3.746642077887668,-5.277162570303716,-9.822957675693038
-0.342847590506715,4.286618120880117,-5.375392147060646,-10.142771016476313
-0.29998140929791384,4.876622197483722,-5.476819857225409,-10.58010605575346
-0.2512151873230766,5.535551862901389,-5.582620917782943,-11.158617290990078
-0.19585966869406274,6.28362758249695,-5.694207090692844,-11.905418657536744
-0.13302339286909323,7.134454836213842,-5.813261277268212,-12.840858906191844
-0.06167884450695481,8.069194612912112,-5.94166986633013,-13.943792669325418
0.01901310162216631,8.970552544874058,-6.081107793023385,-15.061166635628368
0.10871862707090689,9.524788954926985,-6.2317194593796685,-15.772303086865021
0.20396651662017673,9.315067311863551,-6.389442490248319,-15.516054229186187
0.29711718973881224,8.366673851563473,-6.544603032540181,-14.33765273558607
0.38078392825444696,7.2089571580479825,-6.687979559896041,-12.959575738884675
0.45287349983492675,6.177228750420987,-6.817575317284888,-11.824026705032708
0.5146457873391366,5.31928573563305,-6.935815584335215,-10.982970111598439
0.5678386446954671,4.597980835654822,-7.045645285451199,-10.380007611536808
0.6138184530520153,3.9717796318510534,-7.149445361566567,-9.957836710831108
0.6535362493705259,3.4087697343594896,-7.249023728674878,-9.675062674515651
0.6876239467141207,2.8858624089387197,-7.345774355420034,-9.503787071253178
0.716482570803508,2.3862972570179535,-7.440812226132566,-9.425377525408647
0.7403455433736875,1.8977525640523984,-7.535066001386653,-9.427199545147118
0.7593230690142115,1.4112140163233524,-7.6293379968381245,-9.500303773862095
0.773435209177445,0.9204444243584511,-7.724341034576746,-9.637709571101567
0.7826396534210295,0.42191468062367055,-7.820718130287761,-9.83299058318981
0.7868588002272662,-0.08490317945886638,-7.919048036119659,-10.07897683030197
0.7860097684326776,-0.5969768102741296,-8.019837804422679,-10.36649754725731
0.7800400003299363,-1.1070337740557106,-8.12350277989525,-10.683215896588086
0.7689696625893792,-1.603009641200608,-8.230334938861132,-11.01276396966782
0.7529395661773731,-2.0680026574536843,-8.34046257855781,-11.33455248845758
0.7322595396028363,-2.481191690701786,-8.453808103442386,-11.624718054285768
0.7074476226958184,-2.820063634503925,-8.570055283985244,-11.85853177920536
0.6792469863507792,-3.0638768355349475,-8.688640601777298,-12.014105361030953
0.6486082179954297,-3.1976209168499543,-8.808781655387607,-12.076495271195341
0.6166320088269301,-3.215188731244828,-8.92954660809956,-12.04076599437044
0.5844801215144819,-3.120543558887534,-9.049954268043265,-11.91276327447555
0.5532746859256066,-2.926469254913046,-9.16908190078802,-11.707326756220553
0.5240099933764761,-2.651536319209723,-9.286155168350225,-11.444802099891719
0.4974946301843789,-2.3165031993993193,-9.400603189349143,-11.147230562932046
0.4743295981903857,-1.9412445729242995,-9.512075494978463,-10.835320449642394
0.4549171524611427,-1.542753644002941,-9.620428699474887,-10.526655443798388
0.4394896160211133,-1.134236622388399,-9.725695253912871,-10.235048524881785
0.4281472497972293,-0.7250252433178184,-9.82804573916169,-9.970696467207151
0.4208969973640511,-0.3209674740055894,-9.927752703833761,-9.740771654296895
0.4176873226239952,0.07498399615380935,-10.02516042037673,-9.55017911335469
0.4184371625855333,0.4621703127282767,-10.120662211510277,-9.402316276613371
0.4230588657128161,0.8417126450048102,-10.21468537427641,-9.299760684221745
0.4314759921628642,1.2161287337973432,-10.307682981118628,-9.244868514740201
0.44363727950083764,1.589089599997256,-10.40013166626603,-9.240299785097683
0.4595281755008102,1.9653110624598964,-10.492534664117008,-9.28950234541609
0.47918128612540917,2.350569341807852,-10.58542968757117,-9.397192288695212
0.5026869795434877,2.7518261127887818,-10.679401610458122,-9.569864066181596
0.5302052406713755,3.1774339329160823,-10.775100251119937,-9.816341067358831
0.5619795800005364,3.637342791630681,-10.873263661793526,-10.148306999144543
0.5983530079168432,4.143079579947194,-10.974746731784972,-10.580556317494375
0.6397838037163152,4.706862735890764,-11.080552294959915,-11.130145885270863
0.6868524310752228,5.338149994886515,-11.191853753812623,-11.812170370266598
0.740233931024088,6.033417839692152,-11.30997545751529,-12.62641625890157
0.8005681094210095,6.750662712950731,-11.436239620104304,-13.523075758927897
0.8680747365505168,7.361276322078902,-11.571470377693583,-14.336949026044236
0.9416874997713058,7.617130298315759,-11.714839867954025,-14.741481752955023
1.0178588027544635,7.287072518176915,-11.862254685483576,-14.434250137842575
1.0907295279362326,6.460468718460793,-12.006597186862,-13.547556092234693
1.1553342151208406,5.47306885334331,-12.142072747784347,-12.536793603235575
1.2100649036542737,4.541010759512812,-12.267440683816703,-11.683248467518805
1.2554750112494018,3.7135328569374577,-12.384273168491891,-11.042044648501186
1.2926103398187763,2.975963125164438,-12.494693614976903,-10.586662174587966
1.3223699710704206,2.3026839814922644,-12.600560236722783,-10.279702866412284
1.3453968108853434,1.6712766395931857,-12.703357265386906,-10.090303317553444
1.3621095772812752,1.0644882447394783,-12.80426029856244,-9.995519979396644
1.37275445972867,0.46952426132059644,-12.904215498356406,-9.978471761133635
1.377449702341876,-0.12288882387908773,-13.004000215967743,-10.026357803040657
1.376220814103085,-0.7191794626861401,-13.104263793998149,-10.128898734992632
1.3690290194762236,-1.3233248951290544,-13.205552781348075,-10.277183456055898
1.355795770524933,-1.9370377499921525,-13.308324615908633,-10.46282770332675
1.3364253930250116,-2.5598324041331986,-13.4129528929419,-10.67737998302372
1.3108270689836796,-3.1890573625867273,-13.519726692772139,-10.911951815042174
1.2789364953578124,-3.819978534361765,-13.62884621092256,-11.15708003199073
1.2407367100141948,-4.445992179819093,-13.740417011242467,-11.402841017575184
1.196276788216004,-5.05902714025452,-13.85444542141822,-11.639224939989461
1.1456865168134587,-5.650157192689116,-13.970837670818113,-11.856740655726647
1.0891849448865676,-6.21038704506742,-14.08940507737538,-12.047166090724929
1.0270810744358934,-6.7315124339414005,-14.20987673828263,-12.204303467090831
0.9597659500964794,-7.206909147144445,-14.331919772953537,-12.324570709266602
0.8876968586250349,-7.632101098905453,-14.455165480046203,-12.407282062307797
0.8113758476359804,-8.005003058864157,-14.579238300669282,-12.454544429091728
0.7313258170473388,-8.325814987612782,-14.703783744960198,-12.47079658683511
0.648067667171211,-8.596629714120375,-14.82849171082855,-12.462106170763272
0.5621013700300073,-8.820871279582109,-14.953112772536182,-12.43538119739929
0.47389265723418617,-9.002692375001901,-15.077466584510175,-12.397640712512644
0.38386573348416714,-9.146432634352038,-15.201442991635302,-12.355439459101468
0.2924014071406468,-9.256194939377952,-15.324997386226316,-12.31448138704055
