th1 (rad),w1 (rad/s),th2 (rad),w2 (rad/s)
0.1575698001086955,-2.0578158791038517,6.039032123036885,0.9148333977018104
0.13699164131765698,-2.1194628008147616,6.0481804570139035,1.0118200381203935
0.11579701330950937,-2.1786061030015076,6.058298657395108,1.1060650134162686
0.0940109522794943,-2.2346297205894303,6.069359307529271,1.1965813173286781
0.0716646550736,-2.2868134200584453,6.081325120702558,1.2822379703196387
0.048796520873015545,-2.334339954866086,6.094147500405755,1.361772247276015
0.025453121324354684,-2.376313356435291,6.107765222878514,1.4338177806160641
0.0016899877600017703,-2.411790769672525,6.122103400684675,1.4969518860168813
-0.02242791993672348,-2.439828843451072,6.137072919544844,1.5497634527653699
-0.046826208371234204,-2.4595432398455586,6.152570554072497,1.5909392543821927
-0.07142164076968979,-2.470176538564828,6.168479946616319,1.6193618664113092
-0.09612340615533807,-2.471166393001677,6.184673565280432,1.6342075341523925
-0.12083507008535485,-2.4622034027226047,6.201015640621956,1.635028960316167
-0.1454571041125809,-2.443268047124426,6.217365930225118,1.621807840919283
-0.16988978458382514,-2.414638870669018,6.2335840086343115,1.594966047269497
-0.1940361732905153,-2.3768695067429393,6.249533669107007,1.5553320405931932
-0.21780486835794471,-2.330738497827518,6.265086989512938,1.504068175554202
-0.24111225333621988,-2.277181110116765,6.28012767126848,1.4425720145507057
-0.26388406443738754,-2.217214820660027,6.294553391413987,1.372368321848426
-0.28605621264398784,-2.1518694501011413,6.308277074632471,1.2950074288046747
-0.30757490714499924,-2.0821298285510985,6.321227148920518,1.2119812942941497
-0.32839620543051024,-2.0088948539509897,6.33334696186346,1.1246628644076784
-0.3484851539700201,-1.9329531610217983,6.344593590507537,1.0342691497177183
-0.3678146855802381,-1.8549731285841742,6.354936282004714,0.9418448757894449
-0.38636441686607986,-1.7755037604080621,6.364354730762608,0.8482618380969161
-0.4041194544701605,-1.6949828192360603,6.372837349143578,0.7542288423510286
-0.42106928266252114,-1.613749069679664,6.380379637567088,0.6603077637813994
-0.4372067733593178,-1.5320562268881672,6.386982715204901,0.5669322954407234
-0.45252733562819947,-1.4500869646513341,6.392652038159309,0.47442702133385495
-0.4670282052747128,-1.3679659781870954,6.397396308372647,0.3830253579982811
-0.48070786505658375,-1.28577157947913,6.40122656195263,0.29288559407564374
-0.49356558085137503,-1.2035456331100836,6.404155417893386,0.20410472893673495
-0.5056010371824758,-1.121301846558105,6.406196465182753,0.1167301077423998
-0.5168140556480569,-1.0390325441597767,6.407363766260177,0.030769017854364047
-0.5272043810896547,-0.9567141080004791,6.407671456438721,-0.05380350818615029
-0.5367715221696595,-0.8743112848917423,6.40713342135686,-0.13703841236208641
-0.5455146350185769,-0.7917805527218699,6.405763037233239,-0.2190075888488687
-0.5534324405457955,-0.7090727227252813,6.40357296134475,-0.29979987700839394
-0.5605231677730483,-0.6261349334405125,6.400574962574666,-0.3795178554091347
-0.5667845171074535,-0.5429121713432024,6.396779784020574,-0.458275251354572
-0.5722136388208855,-0.4593484345550767,6.3921970315070284,-0.5361948063927076
-0.5768071231664362,-0.3753876407372356,6.386835083443102,-0.6134064598337298
-0.5805609995738086,-0.2909743687381348,6.380701018844764,-0.6900457286870821
-0.58347074326119,-0.20605451592404836,6.373800561557894,-0.7662521733801549
-0.5855312884204305,-0.12057594938268365,6.366138039824092,-0.8421678440736686
-0.5867370479142573,-0.03448922934852704,6.357716361383355,-0.9179356023190877
-0.5870819402077425,0.05225151272759791,6.348537005360164,-0.9936972071506092
-0.5865594250804665,0.13968745099288776,6.3386000332886585,-1.0695910433590685
-0.5851625505705377,0.22785359433258812,6.327904122855068,-1.1457493525478626
-0.5828840146272118,0.3167768491795505,6.316446629329589,-1.2222948046342392
-0.5797162461354164,0.40647347750244905,6.304223681283247,-1.2993362190934534
-0.5756515113603919,0.4969457887038921,6.291230319092312,-1.3769632125335594
-0.570682053473353,0.5881778801777422,6.277460686966976,-1.4552395145430497
-0.5648002746715756,0.680130219420548,6.262908291821546,-1.5341946618122748
-0.5579989724773701,0.7727328467261452,6.247566345203423,-1.6138137594846145
-0.5502716440101086,0.865876981284348,6.231428207608577,-1.6940250020938694
-0.5416128741972651,0.9594048500271848,6.214487957587638,-1.774684695456276
-0.5320188256969932,1.0530976499946822,6.1967411106330745,-1.8555596467105655
-0.5214878491970464,1.146661731801117,6.1781855141659685,-1.9363070353092624
-0.5100212318790353,1.2397133921401726,6.158822443812876,-2.0164522971306313
-0.4976240979576335,1.3317631282712494,6.1386579208415695,-2.0953662053894373
-0.484306466674921,1.4222008685587626,6.1177042587876755,-2.172243260971832
-0.47008445798933335,1.5102845475279003,6.095981826177957,-2.2460847087735747
-0.45498161251405433,1.595135364514432,6.073520979090222,-2.315690869450676
-0.43903025886891,1.675743949497035,6.050364070395715,-2.379668735800078
-0.4222728193739397,1.750992087436185,6.026567383037714,-2.4364614109221367
-0.4047628984995778,1.8196940927721763,6.002202768928493,-2.484405216090466
-0.386565957571856,1.8806598120366071,5.977358716767588,-2.5218173705815534
-0.36775935945148996,1.9327772519116795,5.952140543061772,-2.547111595666565
-0.3484315869323732,1.975107338086514,5.926669427105106,-2.5589313061849435
-0.32868051355150807,2.006977656474316,5.901080114043257,-2.5562821044761987
-0.3086107369867649,2.028058428614659,5.875517292998495,-2.5386401814887924
-0.2883301527006183,2.0384046625730385,5.850130891183607,-2.5060140953843364
-0.2679461060748879,2.038454313358385,5.825070750229764,-2.4589455376874305
-0.24756156294130405,2.028981989932773,5.800481294852889,-2.3984481872377157
-0.2272717430419763,2.0110178624722055,5.776496812980512,-2.3258978622163875
-0.20716156441725425,1.985748231809451,5.753237834358348,-2.2428967142020393
-0.18730408209915975,1.9544156474454997,5.730808867216328,-2.1511362582231666
-0.16775992562470476,1.9182329443317765,5.709297504634096,-2.0522792025046064
-0.148577596181387,1.8783193857722538,5.6887747126090495,-1.947871489052062
-0.12979440232366446,1.8356608570280584,5.669295997718529,-1.8392873065635218
-0.11143779375338388,1.7910914943990195,5.650903124652894,-1.7277035151243187
-0.09352687880939368,1.7452917893753832,5.633626089501651,-1.6140966681997198
-0.07607396091563985,1.698797722999959,5.617485122819653,-1.4992551412106379
-0.05908598368564026,1.6520161529918673,5.602492571407547,-1.3837997944056608
-0.04256582215572159,1.6052428290565643,5.58865457346349,-1.2682081873039124
-0.026513393865155947,1.5586805986154362,5.575972491590451,-1.1528389977054658
-0.010926587879001585,1.5124563572472196,5.564444101613397,-1.0379546642761992
0.004197975693470612,1.4666360258660391,5.554064554970635,-0.9237412724625075
0.018864335952131002,1.421237317937789,5.54482714224601,-0.8103253642433307
0.0330767091315089,1.376240347477713,5.536723888603577,-0.6977877460407959
0.046839112606286024,1.3315962793581604,5.529746011143168,-0.5861745751100927
0.06015507539986763,1.287234285902103,5.523884265392067,-0.47550608961693724
0.07302741825888866,1.24306708366605,5.519129204495898,-0.3657833607328001
0.08545808909554915,1.1989953060413494,5.51547137088857,-0.25699341984995877
0.09744804215596264,1.1549109361944918,5.512901436690071,-0.14911307149893374
0.10899715151790756,1.1106999899905243,5.511410305975081,-0.04211165511167095
0.1201041514178128,1.0662446048253122,5.510989189423965,0.0640470269043093
0.13076659746606592,1.021424660096433,5.511629659693008,0.1694034380647253
0.14098084406703026,0.9761190292381914,5.513323694073655,0.2740015516590717
0.1507420343594122,0.93020654189084,5.516063709590246,0.37788849615069015
0.1600440997783206,0.8835667175295717,5.519842594551753,0.4811145117782699
0.1688797669536163,0.8360803182549057,5.524653739669536,0.5837331462109687
0.17724057013616537,0.7876297579343783,5.530491071131646,0.6858016311843164
0.18511686771550914,0.7380993970293334,5.537349087443489,0.7873813926450878
0.19249786168580246,0.6873757468681726,5.5452229013699394,0.8885386545900181
0.1993716191544842,0.6353476035657274,5.55410828791584,0.9893451018844465
0.20572509519014148,0.5819061300693935,5.564001738934684,1.0898785701327411
0.2115441564908354,0.5269449048775195,5.5749005246360115,1.1902237312276844
0.2168136055396106,0.47035995788158347,5.586802761948288,1.2904727414509052
0.22151720511842643,0.4120498177164017,5.599707489362797,1.3907258146685122
0.22563770329559044,0.3519156012949314,5.613614747509482,1.4910916757926278
0.22915685930853974,0.2898611853643993,5.628525664267408,1.5916878385372084
0.23205547116218372,0.22579351266945474,5.64444254265278,1.6926406355571963
0.23431340628887828,0.15962310262577595,5.661368949008352,1.7940849069225193
0.23590963731513603,0.09126485958542054,5.679309798077577,1.8961632226904084
0.23682228591099025,0.02063930246593547,5.698271430304481,1.9990244747195474
0.2370286789356496,-0.052325620237911735,5.718261675051677,2.1028216188541653
0.2365054227332705,-0.12769191383303838,5.739289891240219,2.2077082776711827
0.2352285035949401,-0.2055078361925547,5.761366974016931,2.3138338222357797
0.23317342523301454,-0.2858027451508051,5.784505312239289,2.4213364350237123
0.2303153977815065,-0.36858002574665144,5.808718676589526,2.530333512965579
0.22662959752404,-0.4538075097462803,5.834022011719181,2.6409086007582836
0.2220915224265772,-0.5414046718106628,5.860431097726764,2.753093859454518
0.21667747570847057,-0.6312257681411159,5.8879620363213085,2.8668468985351305
0.2103652180270594,-0.7230380132313011,5.91663050530666,2.9820206831957488
0.2031348378947464,-0.816493940083194,5.946450712138618,3.098325269709183
0.19496989849391447,-0.911097380194538,5.9774339648357095,3.2152804867360927
0.18585892469196907,-1.0061632200620068,6.009586769703071,3.332159629395871
0.175797292491349,-1.1007725023012738,6.04290836599703,3.447926129581712
0.16478956746833628,-1.193726844864501,6.077387627292847,3.561168436462207
0.15285229901969127,-1.2835097784837644,6.112999311657469,3.670043313446224
0.14001720123485362,-1.3682673332359976,6.149699744791931,3.7722442922604422
0.12633452790249364,-1.4458251212814566,6.187422187714536,3.865018879503499
0.11187627668967907,-1.5137620082497465,6.226072376509571,3.9452621942503767
0.09673865660718162,-1.5695574815207793,6.265524998452075,4.009710842815968
0.08104308179197382,-1.6108168218615586,6.305622106880235,4.055243202396114
0.06493491357335823,-1.6355536510444157,6.346174538904196,4.079258745008977
0.04857937706291408,-1.6424788894333409,6.386967126354286,4.080067154430052
0.03215458816858067,-1.631223013667359,6.4277677978985865,4.057187593242215
0.01584235803190708,-1.6024221396708698,6.468339673831009,4.011463496400852
-0.00018186336480162033,-1.5576347971909448,6.5084543087950175,3.9449481626049265
-0.01575821133671107,-1.499111512474312,6.547903790421067,3.860592054215557
-0.030749326461454188,-1.4294850392244687,6.586509710963223,3.7618249186528083
-0.045044176853698874,-1.3514626889990957,6.624127960149751,3.652143736840066
-0.05855880374368983,-1.2675827556238302,6.660649397518152,3.5347901523770604
-0.07123463129992813,-1.1800618162528764,6.695997299041923,3.4125525235381295
-0.0830352494624569,-1.0907284051228183,6.730122824277304,3.287685109901459
-0.09394253351368508,-1.0010212635644744,6.762999675376318,3.1619137489440763
-0.10395274614932982,-0.9120266123118523,6.7946188128657585,3.036492790096776
-0.11307301227244834,-0.8245331762672623,6.824983740766727,2.912284329123264
-0.12131834403512097,-0.7390906066184418,6.854106584057959,2.7898404659056375
-0.12870925010130538,-0.6560632601613553,6.882004988717015,2.6694780083642886
-0.13526988270291893,-0.575675829610211,6.908699768800658,2.551341211461406
-0.14102664099902104,-0.4980500745196861,6.934213180915272,2.43545183224594
-0.1460071417442179,-0.42323332756483417,6.958567699237731,2.3217476469788654
-0.15023947501986623,-0.3512200317152767,6.98178517570752,2.210111297322355
-0.153751675337019,-0.28196767513392834,7.003886288680744,2.1003914278672244
-0.1565713520883583,-0.21540837628804532,7.0248902029594165,1.992417880115097
-0.15872543585123874,-0.1514571726841339,7.044814381760568,1.8860124083360812
-0.16024000757808007,-0.09001785574610256,7.063674505843928,1.7809960769154454
-0.1611401861355411,-0.030987004403488408,7.081484466613083,1.677194228745974
-0.16145005617957597,0.025743287942422338,7.098256408900543,1.5744396928114948
-0.16119262330015174,0.0802836236934216,7.114000805828658,1.472574725421536
-0.16038978706321752,0.13274617573879874,7.128726553082873,1.3714520471224911
-0.15906232530582953,0.18324402671483653,7.142441073554098,1.2709352382451813
-0.15722988503868116,0.23189082749405854,7.15515042593655,1.1708986829314787
-0.15491097676374058,0.27880066988224905,7.166859412765865,1.0712271980407784
-0.1521229700649181,0.3240880981631295,7.1775716847462725,0.9718154445669567
-0.1488820890832868,0.3678682058534867,7.187289839191942,0.8725671912447567
-0.14520340702475193,0.41025677987932335,7.19601551110439,0.7733944799911746
-0.1411008392259587,0.4513704658945785,7.203749455904302,0.674216728564278
-0.1365871345670129,0.49132693677051775,7.210491623189945,0.5749597957571382
-0.13167386519930774,0.5302450522105466,7.216241221147516,0.4755550274406347
-0.12637141467720228,0.5682450015853048,7.220996771421923,0.37593829701265835
-0.12068896466134924,0.6054484248563748,7.2247561543920495,0.2760490507319135
-0.11463448041278548,0.6419785081526285,7.227516644899369,0.1758293666237628
-0.1082146953312592,0.677960051368852,7.229274938565607,0.07522303489527325
-0.10143509481757068,0.7135195051787624,7.230027168914559,-0.02582533204959099
-0.09429989976578305,0.7487849741324301,7.229768915594064,-0.12737115088809597
-0.08681205002445876,0.7838861810178769,7.228495204085183,-0.22947066892304474
-0.07897318821427998,0.8189543853229994,7.226200497395952,-0.33218170191262447
-0.07078364436104999,0.8541222452856063,7.222878680376827,-0.435564289999966
-0.06224242190819393,0.8895236084392306,7.218523037476827,-0.5396812477766503
-0.05334718582380162,0.9252932094332076,7.213126224999061,-0.6445985767118958
-0.04409425372946955,0.9615662458001538,7.206680239231942,-0.750385697753695
-0.03447859127146801,0.9984777917008657,7.1991763822544055,-0.8571154480717865
-0.024493813354459354,1.0361619957717068,7.190605227773688,-0.9648637676490265
-0.014132193396742286,1.0747509911176387,7.180956590097197,-1.0737089774512845
-0.0033846834855658994,1.114373422107073,7.170219500322684,-1.1837305196260077
0.007759050735504831,1.1551524625902945,7.158382195126424,-1.2950069896939422
0.019310575361407775,1.1972031619703327,7.145432125229484,-1.4076132388484937
0.0312826069811111,1.2406289076638601,7.131355992840999,-1.521616259029753
0.0436888960577497,1.2855167336461948,7.1161398302507015,-1.6370694825088123
0.05654406339421165,1.3319311346367648,7.099769135425613,-1.7540050306093284
0.0698633747405793,1.3799059657704587,7.08222908511952,-1.8724233349774384
0.08366243439828389,1.4294339241004779,7.063504851769745,-1.9922794370659422
0.09795677363928866,1.4804530341347144,7.043582057399086,-2.113465164854711
0.1127613039806358,1.5328295204537616,7.022447405750539,-2.2357863250663894
0.12808959918517343,1.586336491805783,7.000089542499874,-2.3589340964523107
0.14395296410323127,1.6406280577709316,6.976500201535352,-2.482450067944124
0.1603592446809406,1.6952089648759119,6.95167570085591,-2.605684991504527
0.1773113343296997,1.7494007302347587,6.9256188509408645,-2.7277525298563106
0.1948053416320473,1.8023067508126245,6.898341325642301,-2.8474813290945864
0.21282840914017354,1.8527811271454708,6.869866512351355,-2.9633718487108154
0.23135622041162823,1.8994089470256466,6.840232793864247,-3.0735685211483044
0.25035030988188467,1.940509108633411,6.809497108652764,-3.1758624161278344
0.26975540096821876,1.9741732942736658,6.777738484491485,-3.267743093246512
0.28949713391095544,1.9983543966605728,6.74506105355902,-3.346517920069371
0.30948067787756117,2.0110119115973353,6.711595874358326,-3.4095091598818597
0.32959079699353455,2.0103086222832456,6.677500782759507,-3.454320936296542
0.349693883216367,1.9948334697573427,6.642957573396542,-3.479141382140207
0.3696422179139405,1.9638061875632986,6.6081661595751395,-3.4830187108265185
0.38928027978957347,1.9172107595686967,6.573335972466874,-3.4660384198313112
0.40845238738526046,1.8558162287494446,6.538675588268561,-3.4293450209872303
0.4270105496727549,1.7810744159219787,6.5043821380586895,-3.3749948497550895
0.4448212938319747,1.6949216981351907,6.4706321895611385,-3.3056784531553953
0.46177051081332665,1.5995378656987247,6.437575405029585,-3.224386428040012
0.4777658894703139,1.497118240452811,6.405331540749184,-3.134096326392967
0.492737071874842,1.3896985483820479,6.373990577485254,-3.0375345896710586
0.5066340573586625,1.2790476361402554,6.343615231588544,-2.9370334352659246
0.519424533720065,1.1666227901592179,6.314244897235884,-2.83447453905137
0.5310907616216572,1.0535715663653658,6.285900151845371,-2.731296604408462
0.5416264772853109,0.9407619071561492,6.258587185801286,-2.6285412714138965
0.5510340963568724,0.8288253510622476,6.232301773087147,-2.5269162669578846
0.5593223498674949,0.7182029055267984,6.207032610417568,-2.4268614502404793
0.5665043789227628,0.6091875683056369,6.182763995915163,-2.328609590215972
0.5725962546058192,0.5019607355852075,6.1594779000130035,-2.2322382253608812
0.5776158619616713,0.39662178058250724,6.137155517759394,-2.13771176761764
0.5815820797674963,0.2932111946408155,6.115778400083218,-2.044914514169775
0.5845141917139045,0.19172817226328898,6.09532925494152,-1.9536758751201657
0.5864314734365373,0.0921436507118084,6.075792496190318,-1.8637892752871126
0.5873529099436554,-0.005590240072911007,6.057154603437447,-1.7750260896425152
0.5872970075429264,-0.10153349365871846,6.039404342541022,-1.6871457719021288
0.5862816726063391,-0.19575363697743653,6.022532884822001,-1.5999031142862479
0.5843241362365648,-0.2883227031612867,6.006533853679139,-1.513053371639751
0.581440909204952,-0.379315357781016,5.991403319962742,-1.4263558095817286
0.5776477556271418,-0.46880786697187254,5.977139761866924,-1.3395760967206254
0.572959676957423,-0.5568776726620585,5.963744000899718,-1.2524878523126923
0.5673909002308024,-0.6436033987375105,5.951219122376591,-1.1648735782069783
0.5609548662434273,-0.729065155947016,5.939570386594521,-1.0765251424582403
0.5536642146839571,-0.8133450457901508,5.928805135169938,-0.9872439371116865
0.5455307642260556,-0.8965277871078923,5.918932695798821,-0.8968408006985499
0.5365654863549767,-0.9787014056090667,5.909964287791835,-0.8051357740893638
0.5267784722988861,-1.05995793758477,5.901912930050941,-0.711957744445362
0.5161788929230384,-1.1403941055961355,5.894793352606488,-0.6171440246508038
0.5047749518670771,-1.2201119265760216,5.88862191235998,-0.5205399139227274
0.4925738326013169,-1.2992192118128538,5.8834165132207525,-0.4219982888962975
0.47958164048318835,-1.3778299136008436,5.8791965303317895,-0.321379283449918
0.46580334134717993,-1.4560642645274187,5.87598273749729,-0.2185501303976289
0.45124269870190575,-1.534048641655224,5.873797236193314,-0.11338525995257598
0.43590221228535353,-1.6119150680824041,5.872663383593789,-0.005766780102570299
0.4197830616045295,-1.689800236935752,5.872605715792763,0.10441449511971863
0.402885059235172,-1.767843905696681,5.87364986074396,0.2172572492517199
0.3852066201782052,-1.8461864593337238,5.875822433236477,0.3328468076081884
0.3667447555848679,-1.9249653760928571,5.879150901312559,0.4512508389368073
0.34749510182393933,-2.0043102469851877,5.883663409701927,0.5725131147435192
0.3274519993540875,-2.084335896670429,5.889388540849362,0.696644682047201
0.30660864038738317,-2.1651330293525275,5.8963549876698345,0.8236116330382953
