th1 (rad),w1 (rad/s),th2 (rad),w2 (rad/s)
4.580516681405854,2.3747334390947104,4.416026114074144,2.809001875081782
4.604264015796801,2.4524546407081957,4.444116132824962,2.8352918919045997
4.628788562203883,2.5297711600692963,4.4724690517440076,2.863050319233162
4.654086273804576,2.606589123923163,4.5010995549363395,2.8923253385310255
4.680152165043808,2.682803454660891,4.530022808321649,2.923175661465731
4.706980199590417,2.758297782403652,4.559254564936307,2.9556703286623263
4.734563177414453,2.832944551148643,4.58881126822293,2.9898882065724917
4.76289262292594,2.9066053394583147,4.6187101502886545,3.025917152279663
4.791958676320523,2.9791314156718687,4.648969321811451,3.063852818159793
4.821749990477242,3.050364546297154,4.679607849993049,3.1037970721387347
4.8522536359402135,3.1201380739959887,4.710645820714436,3.1458560150217303
4.883455016680173,3.188278278342462,4.742104380864654,3.1901375841192112
4.915337799463598,3.254606028300753,4.774005756705846,3.236748742139221
4.9478838597466055,3.318938730187036,4.806373244127238,3.285792261902169
4.981073247048476,3.38109256886398,4.83923116674626,3.3373631305443503
5.014884172737116,3.4408850332407686,4.872604798051704,3.391544611042218
5.049293023069524,3.4981377100353654,4.906520244162126,3.448404013500069
5.084274400169877,3.552679322437356,4.941004284297127,3.507988242988753
5.119801193394251,3.6043489830115383,4.976084166727015,3.5703192040493805
5.155844683224366,3.6529996230699493,5.011787358767508,3.635389153565779
5.192374679455066,3.6985015538786894,5.048141250303166,3.703156102966928
5.229359694993852,3.7407461083850735,5.085172811332836,3.7735393772607724
5.266767156077703,3.779649305421476,5.1229082051054435,3.846415442124189
5.304563649131918,3.815155471179705,5.161372359526686,3.921614111415139
5.342715203843715,3.8472407446450085,5.200588500640837,3.998915246608509
5.381187611290166,3.8759163840686734,5.240577653106922,4.078046057661241
5.419946775130852,3.90123177993214,5.281358113683535,4.158679112755104
5.458959092930174,3.9232770658997085,5.322944904811085,4.240431163351071
5.498191863589171,3.942185203026636,5.365349216444596,4.322862891938019
5.537613715619438,3.9581333945997117,5.408577845363976,4.4054796932465905
5.577195049565435,3.9713436708013528,5.452632642296442,4.487733605273484
5.616908486273449,3.9820824661765015,5.497509978349177,4.569026512964513
5.656729310935214,3.990659001913886,5.543200243478822,4.648714752352963
5.696635900954353,3.9974222834704274,5.589687391002351,4.72611524253363
5.736610123789057,4.002756537070649,5.636948543427687,4.800513262040145
5.776637689159763,4.007074941400763,5.684953676048089,4.871171959129423
5.81670843857377,4.010811568219931,5.733665395639383,4.9373436362654655
5.856816554255969,4.014411530907926,5.783038832002037,4.998282772992005
5.896960669565049,4.018319453561387,5.8330216597319575,5.053260646346874
5.937143864100663,4.022966511290837,5.883554266195426,5.101581276347433
5.977373529213571,4.028756445667648,5.934570078958901,5.142598274042631
6.017661093670247,4.03605111293456,5.985996061699327,5.175732015843902
6.058021604799593,4.045156256867102,6.037753381857765,5.2004864307582
6.0984731673682635,4.056308290752315,6.089758246165347,5.216464590526925
6.139036250275787,4.069662902743506,6.141922892070617,5.223382259458605
6.179732879303222,4.08528625060295,6.194156714665203,5.2210786077758575
6.220585741809251,4.103149380570766,6.246367500742962,5.2095234252721045
6.261617235614959,4.1231262989586295,6.298462734995683,5.1888203822455266
6.302848498604545,4.144995865542595,6.350350938818138,5.159206148732521
6.344298457259971,4.168447396678074,6.4019430003054625,5.121045466711467
6.385982931226752,4.193089599545939,6.453153454972577,5.07482253462028
6.427913827222211,4.218462240758473,6.50390168031878,5.021129274428636
6.470098449629796,4.244049807372387,6.5541129730630665,4.960651184728024
6.512538947703519,4.269296357667779,6.603719484910346,4.894151530071857
6.555231911280197,4.2936207802872195,6.652661000211065,4.822454583804671
6.598168119083069,4.316431769075652,6.700885546049112,4.746428547805785
6.641332436773825,4.337141955292712,6.74834983152717,4.666968643683888
6.6847038563267525,4.355180794369064,6.7950195179640085,4.5849807326058
6.728255664270443,4.370005958580336,6.8408693252900665,4.501365697683499
6.771955723856246,4.381113122440149,6.885882982266901,4.417004729143358
6.815766855080648,4.38804413320243,6.9300530295583345,4.3327455957073315
6.859647296412672,4.390393629985091,6.973380485515408,4.249389965553068
6.903551232712523,4.387814212579455,7.015874385170939,4.167681850781521
6.947429374838318,4.380020270036774,7.057551203678754,4.0882972804549365
6.991229577538686,4.366790567324948,7.098434176483304,4.01183534695237
7.034897483211935,4.3479696646774215,7.138552529952827,3.9388108063908276
7.07837717985871,4.323468217674108,7.177940638016736,3.869648435229364
7.121611862035451,4.293262184506111,7.216637122369029,3.8046793434910726
7.164544483880512,4.257390956254553,7.25468391580394,3.7441394153910634
7.207118393443057,4.215954429759669,7.292125309957851,3.688169989786227
7.249277937740654,4.169109061274974,7.329007009855713,3.6368208093460037
7.290969028353404,4.117062970273518,7.365375217949174,3.5900551662264526
7.332139658056139,4.0600702018533825,7.401275769611438,3.5477570638267495
7.372740360074673,3.9984242970844646,7.436753340249705,3.509740110883291
7.412724603045517,3.9324513569220483,7.471850741358538,3.475757777313342
7.452049116614738,3.8625028113648323,7.506608319131671,3.445514580317735
7.490674144728386,3.7889481174741984,7.541063464934848,3.41867774022217
7.528563625903128,3.712167606096798,7.57525024233707,3.394888850059071
7.565685301964096,3.63254567839384,7.609199130837661,3.3737751384484804
7.602010758748034,3.550464522307648,7.642936882222146,3.354959965971765
7.63751540397111,3.4662984799208023,7.676486481881863,3.3380722727969014
7.672178388770319,3.380409153816184,7.709867204609832,3.3227547808893156
7.705982480308481,3.2931412983107924,7.743094752418726,3.308670839346301
7.738913893291588,3.204819503289869,7.776181460812189,3.2955098793611652
7.770962088324487,3.115745646675324,7.8091365596058,3.2829915112534582
7.802119544791241,3.026197067513905,7.841966474718335,3.270868347277375
7.83238151546638,2.936425395412678,7.874675158191109,3.2589276698972096
7.861745769420506,2.8466559629327266,7.907264434890081,3.2469920868008986
7.890212329049834,2.7570877244202068,7.93973435575809,3.2349193230561877
7.917783206294036,2.667893606216226,7.972083548988652,3.2226012999963882
7.9444621423561985,2.5792212178377145,8.004309561988617,3.2099626422947374
7.970254354534576,2.491193860292051,8.036409188411564,3.196958741734528
7.995166293137496,2.4039117751334276,8.06837877582891,3.1835734905539903
8.01920541088883,2.3174535853984333,8.10021451073445,3.1698167806614257
8.042379946742814,2.231877886628613,8.131912678541063,3.1557218487577763
8.0646987256091,2.147224952470113,8.16346989702864,3.1413425323451865
8.0861709751338,2.0635185246771193,8.194883322352092,3.1267504882719694
8.106806160380572,1.9807676617034156,8.226150827234813,3.112032414126493
8.126613836997606,1.8989686234937593,8.257271151376077,3.097287303505782
8.145603523232543,1.818106772678996,8.288244024411135,3.082623758875628
8.163784590959333,1.7381584742500578,8.319070261999892,3.068157380252538
8.181166175701833,1.659092977050853,8.349751835802417,3.05400824407762
8.197757105472341,1.5808742611929714,8.380291918243193,3.0402984842081193
8.21356584808427,1.5034628358465323,8.410694903085274,3.027149985715913
8.228600476442736,1.4268174718797708,8.440966402942433,3.014682201954292
8.242868651161533,1.3508968535775496,8.471113224961975,3.0030101059423586
8.256377619697309,1.2756611332411965,8.501143326021399,2.992242288327567
8.269134231029721,1.2010733719468427,8.531065748904675,2.982479215818353
8.28114496474919,1.127100849226237,8.560890541062859,2.9738116658065943
8.292415973241452,1.053716224069956,8.590628657720925,2.966319354671273
8.302953135482152,0.9808985296044266,8.620291851267638,2.9600697786864543
8.312762120778196,0.9086339842521525,8.649892549054503,2.9551172872386067
8.321848460620718,0.8369166033525642,8.679443721926889,2.9515024078694974
8.330217626654242,0.7657485972955702,8.708958746005584,2.9492514411943804
8.337875112627199,0.6951405453645304,8.738451260417527,2.9483763407426564
8.344826518080843,0.6251113387995679,8.767935023824954,2.9488748880607303
8.35107763146884,0.555687892080594,8.797423772705562,2.950731166967192
8.356634510389647,0.48690462797572037,8.826931084375234,2.9539163327894618
8.361503556669405,0.4188027492514611,8.856470247703129,2.958389663060218
8.365691584161919,0.35142931770611685,8.88605414433373,2.9640998660247906
8.36920587733898,0.28483616886010465,8.915695142993979,2.9709866130873337
8.37205423902758,0.21907869763410504,8.945405009124853,2.9789822517962516
8.374245026003921,0.15421455606826523,8.975194831642815,2.98801364796349
8.375787171564603,0.09030230803715686,9.00507496812245,2.9980040997910034
8.376690194644976,0.027400087574000753,9.03505500912036,3.0088752640443786
8.376964195520715,-0.03443569340302875,9.065143761760803,3.020549034727765
8.376619838586684,-0.09515154548308419,9.09534925210808,3.032949318436464
8.375668323131853,-0.1546979733807215,9.125678745292445,3.046003657339298
8.374121343398047,-0.2130303893165292,9.156138781865838,3.0596446600303553
8.37199103950488,-0.270109847380427,9.186735228466143,3.073811211526106
8.369289941031077,-0.32590358735794056,9.217473340581403,3.0884494455798337
8.366030905157498,-0.38038538565143054,9.2483578350372,3.1035134743310615
8.362227051300984,-0.433535719352556,9.279392969780512,3.1189658812733256
8.357891694107458,-0.4853417567262807,9.310582628593245,3.134777992939959
8.353038276540195,-0.5357971930205195,9.341930408522645,3.1509299521160545
8.34768030460999,-0.5849019544643393,9.373439708043804,3.167410620555143
8.341831285065346,-0.6326617955715966,9.405113814249356,3.1842173420959186
8.33550466710963,-0.6790878155734846,9.436955987670315,3.2013555979002777
8.328713788953895,-0.7241959192098454,9.468969543649317,3.2188385845591005
8.321471829761796,-0.7680062455215924,9.501157929494909,3.2366867433989057
8.31379176730658,-0.8105425860331928,9.533524796928898,3.254927265853352
8.305686341446247,-0.8518318111142749,9.566074069587431,3.2735935955985194
8.297168023335104,-0.8919033206529617,9.598810005543417,3.2927249435957195
8.288248990128574,-0.9307885327095864,9.631737254979374,3.3123658274719245
8.278941104801477,-0.9685204217537461,9.664860913254094,3.3325656419436616
8.26925590058394,-1.0051331165870472,9.69818656967353,3.353378262317296
8.259204569418069,-1.040661567255863,9.731720352296703,3.37486167845538
8.24879795374551,-1.075141290284072,9.765468969081256,3.3970776518843384
8.23804654084267,-1.108608202524528,9.7994397456001,3.4200913837568496
8.226960458817425,-1.1410985559733884,9.833640659437668,3.443971175922833
8.215549473257692,-1.1726489891763308,9.868080371196896,3.46878806108082
8.203822983365928,-1.203296715587332,9.902768251807705,3.49461537047212
8.191790016210055,-1.2330798756832495,9.937714405512427,3.52152819835354
8.179459217453223,-1.2620380881209399,9.972929687495963,3.54960271095962
8.166838836572014,-1.290213246144882,10.00842571460556,3.5789152331724217
8.153936704110565,-1.3176506192620712,10.044214866937283,3.6095410279141547
8.140760197917945,-1.3444003373595048,10.080310277216425,3.641552660603626
8.12731619454435,-1.3705193553342128,10.116725803822462,3.6750178132023117
8.113611000991009,-1.3960740210779263,10.153475981954484,3.7099963790639525
8.09965026078023,-1.4211433979023904,10.190575945745124,3.746536631351084
8.085438826801205,-1.4458235227398155,10.228041312058634,3.784670215954987
8.070980591573807,-1.4702328103399251,10.265888014218184,3.824405678953508
8.056278263470409,-1.4945188346405083,10.30413207100772,3.865720207288685
8.041333075124005,-1.5188667198102035,10.342789273080607,3.908549255151009
8.026144407925903,-1.5435093356641034,10.381874765632118,3.9527737738059328
8.010709314569262,-1.56873938471206,10.421402503370176,3.9982049008524365
7.995021920722141,-1.5949232462991347,10.4613845523787,4.044566257598102
7.97907268825915,-1.6225160470536006,10.501830214954682,4.091474533746121
7.962847527788614,-1.6520767855730438,10.542744960292143,4.138419906281898
7.946326759932883,-1.684281389958902,10.584129159354962,4.184749135755547
7.929483946033294,-1.7199303160507269,10.625976650712518,4.2296559349369085
7.912284642872787,-1.7599458149066354,10.668273210061887,4.272185269502899
7.894685184723721,-1.8053526611180415,10.710995062756917,4.3112601614526165
7.87663165811254,-1.8572356414059732,10.754107664371443,4.345740372335306
7.85805930169848,-1.9166685273982742,10.797565068094796,4.374520575999334
7.838892616424498,-1.9846137869378235,10.84131027385479,4.396669634168372
7.819046478555119,-2.061800536451639,10.885276970196474,4.4116014637813885
7.798428473190603,-2.148599153054628,10.929392984834287,4.419253079630247
7.776942481660057,-2.244920963981974,10.973585515630589,4.420231532197446
7.754493272020237,-2.3501748797075077,11.017787830952564,4.4158863301744615
7.730991523223161,-2.4633047759090125,11.061946694254308,4.408274432947284
7.7063584754640715,-2.5829116208768563,11.10602943858378,4.4000115734257115
7.680529359255303,-2.707439499584912,11.150029554318037,4.394037600559117
7.653454964259454,-2.8353858298756824,11.193969930323627,4.393349760065339
7.625101105960697,-2.965491894833553,11.23790342792428,4.400764372974645
7.595446187012361,-3.0968811413770925,11.281911071654026,4.418752839678797
7.564477375598591,-3.2291326006257246,11.326098600050814,4.449371477234143
7.532186049592333,-3.3622958505863543,11.370592314823156,4.494279162826202
7.49856309108647,-3.496865795022911,11.415535106451419,4.554820921726942
7.46359443313624,-3.63373892118647,11.461083315668688,4.632151411637891
7.427257043924375,-3.774170059060419,11.507404829785067,4.727376639864583
7.3895153433337715,-3.919743508194926,11.554678596183713,4.841700612607518
7.350317908251823,-4.0723674767228495,11.603095602309788,4.97657236662278
7.309594233484594,-4.234297520575862,11.652861325976016,5.133836190745335
7.267251258278836,-4.40819344620841,11.704199687883468,5.315893500557857
7.223169323816752,-4.597214724077209,11.757358622889047,5.525889245089942
7.177197176575979,-4.805161344515738,11.812617515339946,5.767939457701889
7.129145563130822,-5.036669378376013,11.870296909916965,6.047419592508564
7.078778869347062,-5.297471389850778,11.93077110584205,6.371333855066735
7.0258041554485535,-5.594726273360713,11.994484444392716,6.748777470430919
6.9698568927149465,-5.937397230653178,12.061972219097026,7.191467939657265
6.910482920408414,-6.336572489236235,12.133886898493598,7.71420528495448
6.847117195516052,-6.805377915228323,12.211028951343144,8.334781609139242
6.779063416363769,-7.35745303003934,12.294376767434535,9.071918481024476
6.7054888860633755,-8.001206952284598,12.38509595224478,9.937361726039732
6.625476816540529,-8.723167453597025,12.484469569505178,10.91279530566207
6.538245142004559,-9.44890479633634,12.593597522561799,11.895418945131306
6.443756094041196,-9.984485089548752,12.712551712013113,12.616149059179127
6.343911243145708,-10.038783322809497,12.838713202604904,12.670511467689305
6.243523409917613,-9.504329421126213,12.965418317281797,11.909945824155088
6.148480115706351,-8.663842316986218,13.084517775523349,10.727269492083504
6.061841692536489,-7.841269891489938,13.191790470444184,9.569350303004793
5.983428993621589,-7.154523751626538,13.287483973474233,8.596456221393684
5.911883756105324,-6.6045080360925015,13.37344853568817,7.807899596452837
5.845838675744399,-6.164531557367511,13.451527531652697,7.16582125111746
5.784193360170724,-5.808829826788338,13.523185744163872,6.634193605362424
5.726105061902841,-5.517581641841545,13.589527680217495,6.1854788989391345
5.670929245484425,-5.276297028912937,13.651382469206887,5.799665229876908
5.618166275195295,-5.074414469970785,13.709379121505656,5.462297738124311
5.567422130495587,-4.90412118269258,13.764002098886898,5.162864999329082
5.518380918668662,-4.759500498267126,13.815630748880189,4.893665616832983
5.47078591368599,-4.635935534641789,13.864567405048518,4.649048737300372
5.424426558339572,-4.529689899593971,13.911057892421523,4.424913935900914
5.379129659343633,-4.437607276557322,13.955307031780531,4.218384441148024
5.33475358657806,-4.356892587481834,13.997490876192012,4.027592891142466
5.291184660703242,-4.284953454316236,14.037766805103438,3.8515350172879166
5.24833512616008,-4.219292491053722,14.076282155276317,3.689955513099069
5.206142201249542,-4.157449356215062,14.113181710407307,3.543234903035049
5.164567707687391,-4.096996377755456,14.148614059437657,3.4122499115716356
5.123597743909837,-4.0355919105363185,14.182736558553373,3.2981863340667155
5.083241824804474,-3.971090126997608,14.21571842189404,3.2022959982857877
5.043530923534497,-3.901694459014973,14.247741381876898,3.125609279380621
5.004513978944348,-3.8261268336991634,14.278997474670703,3.0686387806469693
4.966252710607356,-3.743771992944712,14.309683862477172,3.031130026602569
4.928814990677909,-3.654753208208969,14.339995162743199,3.011920311408811
4.892267458595819,-3.5599079527360495,14.370114365857287,3.008949491616409
4.856668379068458,-3.4606580946759653,14.40020386077345,3.0194288234106046
4.822061798121699,-3.3587995400513635,14.430398149007557,3.040129855719255
4.788473802721185,-3.256258159458673,14.46079944756475,3.067723831742675
4.755911221126598,-3.154863478374153,14.491476685882176,3.0990959030827234
4.724362586342856,-3.0561791192934984,14.522467644913004,3.1315773687533923
4.693800795149921,-2.961407223049476,14.553783418600538,3.1630713697887667
4.6641867229194265,-2.871363061216131,14.585414132298427,3.1920782290710052
4.635473092307265,-2.7865025471929497,14.617334914589136,3.2176460966171394
4.607608066835335,-2.7069809261544595,14.649511375555308,3.239278638773625
4.5805382575737905,-2.6327233032191915,14.681904161943045,3.2568276954592905
4.5542110245415985,-2.5634933080583355,14.714472438897637,3.2703904025168478
4.528576091461015,-2.4989521803680974,14.747176342922806,3.280221496443086
4.503586569657334,-2.438705305861268,14.779978557887237,3.286664658336862
4.4791995165987215,-2.3823362922785982,14.812845204470605,3.2901024031526735
4.455376153675935,-2.329430262893182,14.845746228502131,3.2909218228088437
4.432081851047004,-2.2795886065435496,14.87865544673022,3.2894927727100733
4.409285964981568,-2.2324373872902457,14.91155037445732,3.286155216814453
4.3869615911086655,-2.1876312997865557,14.944411926625465,3.281212956370642
4.3650852781108,-2.144854654579869,14.977224056189172,3.274931581268649
4.3436367315650015,-2.103820494210326,15.009973372001859,3.267539055999522
4.322598526622898,-2.0642686196427418,15.042648762561853,3.259227826334063
4.301955840426471,-2.0259630572097738,15.075241040825194,3.2501576973556694
4.281696209854373,-1.9886893127651617,15.10774261779875,3.240458999876898
4.261809316726722,-1.9522516301718924,15.14014720779752,3.2302357495785143
4.242286800425003,-1.9164703829346081,15.172449565293306,3.2195686307813713
4.223122096595657,-1.8811796696620189,15.20464525160112,3.2085177212092595
4.204310299899037,-1.8462251473031999,15.236730428813212,3.1971249284937606
4.1858480484260046,-1.811462114119726,15.26870167809815,3.185416143243122
4.167733427284808,-1.7767538423457625,15.300555839530581,3.1734031342215436
4.14996588886135,-1.7419701550809947,15.332289870872797,3.161085223412266
4.13254618731054,-1.7069862408264476,15.36390072310692,3.1484507857434334
4.115476324902276,-1.6716817006089941,15.395385230964354,3.13547862217748
4.098759507896186,-1.6359398257314393,15.426740017186129,3.1221392570211206
4.082400109638871,-1.5996471080199475,15.45796140975634,3.1083962114252968
4.066403638558672,-1.562692988374853,15.489045371870594,3.0942073053836214
