th1 (rad),w1 (rad/s),th2 (rad),w2 (rad/s)
3.2684458604448157,0.6856594510986683,3.718505518672476,-2.597732702693357
3.2753024549558023,0.692271980586191,3.6925281916455424,-2.5522788877334004
3.282225174761664,0.6986288878060504,3.667005402768208,-2.5087309962696054
3.2892114636397247,0.7049707408621881,3.641918092805512,-2.467287310483016
3.2962611710483465,0.7115374786987869,3.617245219700682,-2.428154894674903
3.3033765458353344,0.7185656502962543,3.592963670753933,-2.3915454089842383
3.310562202338297,0.7262854361585993,3.5690482166640907,-2.357670624309922
3.3178250566998826,0.7349175432737729,3.5454715104209913,-2.3267377609731548
3.3251742321326203,0.7446700637094155,3.5222041328112597,-2.298944773238882
3.3326209327697143,0.7557353801272483,3.499214685078871,-2.274475693354676
3.340178286570987,0.7682871905504857,3.476469928145324,-2.2534961346432545
3.3478611584764915,0.7824777121203601,3.4539349667988914,-2.2361490366744814
3.355685935597695,0.7984351119811115,3.431573476432147,-2.2225507202619
3.363670286717506,0.8162612052722327,3.4093479692295277,-2.2127873093227257
3.3718328987702284,0.8360294572755173,3.3872200961363004,-2.2069115729905
3.3801931933429836,0.857783329867791,3.3651509804063955,-2.2049402459094956
3.3887710266416615,0.8815350211566109,3.3431015779473006,-2.2068518968297086
3.3975863768532277,0.9072646598106404,3.3210330589790034,-2.2125854331196986
3.406659023451334,0.9349200291945835,3.2989072046478065,-2.222039347574814
3.41600822374328,0.9644169070625401,3.276686811172058,-2.235071828516758
3.4256523928139053,0.9956401098183948,3.2543360928868905,-2.2515018585272313
3.435608793912089,1.0284453219278658,3.2318210743016182,-2.2711114152973764
3.4458932471313677,1.062661767655418,3.2091099601486444,-2.2936488554256322
3.456519864807922,1.0980957424809357,3.186173471594388,-2.3188335066001797
3.467500822232731,1.1345349665994484,3.1629851365283863,-2.3463614172398968
3.4788461718987254,1.1717536572475435,3.139521522355987,-2.3759121214995758
3.4905637084712007,1.2095181476780934,3.1157624011409912,-2.407156181924182
3.502658889947982,1.24759281800945,3.0916908393217493,-2.439763185283986
3.515134818128076,1.2857460570457822,3.0672932074689094,-2.4734098033051253
3.527992278698534,1.3237559531582543,3.0425591094358584,-2.5077875011115767
3.5412298382301164,1.3614154216187246,3.017481234424743,-2.542609489352246
3.554843992446304,1.3985365157313854,2.9920551395312205,-2.5776165715935515
3.5688293576036174,1.43495373490203,2.966278973815285,-2.6125816298468667
3.5831788949526375,1.4705262253560833,2.940153157516816,-2.647312605419841
3.5978841572061984,1.5051388571368536,2.9136800314626177,-2.681653953734205
3.612935545777567,1.5387022428306185,2.8868634919252756,-2.715486664457151
3.6283225682058733,1.5711518298429803,2.859708625280704,-2.7487270293589097
3.6440340865043033,1.6024462432092248,2.832221354987115,-2.781324401806442
3.6600585489363957,1.6325650780864562,2.8044081109690504,-2.8132582213766923
3.67638419971726,1.6615063420345937,2.7762755287552836,-2.8445345772949233
3.6929992631376063,1.6892837312393498,2.747830182982334,-2.8751825612879096
3.70989210045,1.7159238974800335,2.719078357369455,-2.905250621654293
3.7270513394248,1.7414638294744365,2.690025851152912,-2.934803083593647
3.7444659777195444,1.7659484380373751,2.6606778203169754,-2.963916952671509
3.762125462099918,1.789428402836104,2.63103865079026,-2.9926790735585445
3.780019746128279,1.8119583116562328,2.6011118600546745,-3.0211836778270937
3.798139329244841,1.8335951020682069,2.5709000232764034,-3.0495303239149303
3.8164752802655233,1.8543968003663445,2.540404720037254,-3.0778222093927914
3.835019248269187,1.8744215432070066,2.509626497943326,-3.1061648195634595
3.853763463701257,1.8937268627556518,2.4785648497476913,-3.1346648658640004
3.8727007323288136,1.9123692155295648,2.4472182010890515,-3.1634294610397107
3.8918244244841094,1.9304037377215646,2.4155839064786546,-3.1925654741113587
3.911128461861325,1.9478842149929483,2.383658251737541,-3.222179005374363
3.9306073040112546,1.964863262116483,2.3514364616837975,-3.252374918797823
3.9502559366324195,1.9813927172351182,2.3189127124958193,-3.283256365111709
3.9700698638047704,1.997524266894472,2.286080148844702,-3.3149242225574937
3.990045106473715,2.0133103316161027,2.252930906619127,-3.3474763727628223
4.010178209789876,2.028805257974695,2.2194561428914987,-3.381006715543447
4.030466262369623,2.044066882404188,2.1856460757360643,-3.415603807725251
4.050906931193665,2.0591585547796214,2.151490037658812,-3.451348986501528
4.071498516741461,2.0741517365477966,2.1169765477937967,-3.488313806851893
4.092240034106939,2.0891293187149236,2.0820934097252777,-3.5265565852335343
4.113131327294088,2.104189838303553,2.046827843872942,-3.566117799483708
4.134173225677124,2.119452805137552,2.011166665878105,-3.607014051437008
4.155367753728499,2.1350653780295965,1.9750965253637347,-3.649230262235304
4.176718407508795,2.151210639418135,1.9386042227413816,-3.692709755937193
4.198230513902976,2.1681176907491615,1.9016771251820097,-3.7373419214531314
4.219911690810467,2.186073695680942,1.8643037059674783,-3.782947269684745
4.241772427767277,2.2054377860704837,1.8264742332706307,-3.8292599890242722
4.263826805627982,2.226656348479974,1.788181633380388,-3.875908643048069
4.286093369112781,2.2502785413185555,1.7494225469499072,-3.922396569244239
4.308596154525967,2.2769698692907165,1.7101985812574647,-3.9680849492665096
4.331365853218874,2.307520222333185,1.6705177317647997,-4.0121834926064075
4.354441055442206,2.342841066381291,1.6303958968387355,-4.053756085804146
4.377869466106019,2.3839448289066665,1.5898583359806941,-4.091751103115443
4.401708914395086,2.4318987753713275,1.5489408249495398,-4.125067227956885
4.4260279021488,2.487747160339308,1.5076901526699709,-4.152663750529273
4.450905373752192,2.552400737427272,1.4661635151646781,-4.173717178302989
4.476429381126465,2.626502746019245,1.4244263433816482,-4.187812284972087
4.502694408586658,2.7102939989036576,1.3825482205319273,-4.195137072188186
4.529797348575695,2.8035119032189786,1.3405968498100453,-4.196634025700445
4.557832467607884,2.9053615010425435,1.2986305095530408,-4.194055086112769
4.586886082618309,3.014584378087703,1.2566899586919131,-4.189884112500787
4.617031926399187,3.1296241124891315,1.2147911175669053,-4.187127835416565
4.6483281675240775,3.248855320123585,1.1729198392127396,-4.189020171518611
4.680816720725313,3.3708228808424114,1.1310296374975535,-4.198713858067054
4.714524949533738,3.494438890924363,1.089042498916883,-4.219033202670216
4.749469338442982,3.6191051674350927,1.046852166890181,-4.252334828769491
4.785660390117332,3.744756719165322,1.004328818602486,-4.300485918821642
4.823107957308985,3.871843660966979,0.9613239594142695,-4.364939361992111
4.861826393918655,4.001279234515513,0.9176745657943484,-4.446871467915843
4.9018391862638095,4.134380982187792,0.8732058511151899,-4.547349415056953
4.943182996085688,4.272825623774939,0.8277323569646203,-4.667505880643521
4.9859112523234375,4.4186306858061,0.7810572981581851,-4.808710834898612
5.030097559181498,4.574170374100216,0.732970189809199,-4.972741403266672
5.0758392629225,4.742230558598288,0.6832427757765324,-5.161958865618994
5.123261568508483,4.926107876912936,0.6316231871203424,-5.379507789745273
5.172522647277613,5.129760196371021,0.5778281092228896,-5.629557018795467
5.223820249241323,5.358019067398267,0.521532539034935,-5.917606343115884
5.277400439915305,5.616877618162759,0.4623564756037762,-6.250885157445143
5.333569216096933,5.913865100193014,0.3998476240293247,-6.638864868379501
5.3927078670988635,6.258499243506102,0.3334589753455297,-7.093878031828312
5.455292859533925,6.662733288241669,0.2625201950272466,-7.6317337253291155
5.521920192416341,7.141083238667214,0.18620285777395545,-8.271897278067405
5.593331024803013,7.709449923233365,0.1034838849932814,-9.035868125605415
5.6704255240353465,8.37982005343935,0.013125203737227253,-9.939833046276831
5.75422372456974,9.143638247017256,-0.08627312672554106,-10.971519129782891
5.845660107039913,9.929903635359084,-0.19598831802336997,-12.031690623197122
5.944959143393503,10.535064464659424,-0.3163052242553412,-12.836054002343829
6.050309788040098,10.630014874982916,-0.44466576427877946,-12.924825566469128
6.156609936789927,10.075167911320797,-0.5739140199434707,-12.102688722894337
6.257361615903135,9.188378360818838,-0.6949409071724141,-10.810856388114125
6.349245399511323,8.336324207399818,-0.8030494710535553,-9.556086639086452
6.432608641585322,7.642518790072141,-0.8986103374444198,-8.506955867566925
6.509033829486043,7.101506351374118,-0.983679896120089,-7.654087251448615
6.580048892999784,6.681514852703125,-1.0602207686345753,-6.952287574203091
6.646864041526816,6.353976464634726,-1.1297436443766062,-6.361048535895006
6.710403806173163,6.097659385596499,-1.1933541297355563,-5.850092120659727
6.771380400029129,5.897405070803149,-1.2518550509421535,-5.39760013483834
6.83035445073716,5.742362816552763,-1.305831052290537,-4.987834714993159
6.887778078902688,5.6246039535568775,-1.3557093994404685,-4.60934358417636
6.944024118438256,5.5381358320035705,-1.401802835282232,-4.253771170302198
6.999405476758292,5.478202005802114,-1.444340546985254,-3.915118137291487
7.054187496816313,5.440769122623044,-1.4834917283581688,-3.5893091002307624
7.1085951880425435,5.422135106787775,-1.5193848193604764,-3.273965771176763
7.1628165391104215,5.418623367059121,-1.552124477072244,-2.9683074578425486
7.217002772781012,5.42635198320735,-1.5818075516506696,-2.673110903833265
7.2712662926130855,5.441085803792379,-1.6085386606890022,-2.3906620024239125
7.32567715065101,5.458191994397065,-1.6324452807132412,-2.1246305919407638
7.38025907059498,5.47272242585208,-1.653691586632649,-1.8798058002386724
7.434986294853501,5.47963541913011,-1.6724896446350357,-1.6616524091324893
7.489782649044802,5.47414362745122,-1.6891061687263607,-1.475692649409785
7.544524085319314,5.452139598985375,-1.7038630952204585,-1.3267764005456208
7.599045481309168,5.41061857951289,-1.7171308592259147,-1.2183573698820644
7.6531516671042965,5.348005010544724,-1.7293144329247354,-1.1519190236191093
7.706631717209744,5.264304764790171,-1.7408336231609265,-1.1266749805644163
7.759274764857645,5.16104645906604,-1.7521003729665707,-1.13960681682025
7.8108852294483055,5.041027112752211,-1.7634964411347733,-1.1858202592857974
7.861295500575828,4.907921068690266,-1.7753546437276313,-1.2591290209188484
7.9103747112627305,4.7658333135217825,-1.7879459339368198,-1.3527369057287257
7.958033044397948,4.618876318839533,-1.801473302994107,-1.4598897832228117
8.004221807586344,4.470829208008735,-1.816072200826335,-1.574401004112998
8.048930099666432,4.324909392528466,-1.831816210867465,-1.6910004657844757
8.092179193591717,4.183659308681443,-1.8487262155253097,-1.8055026587506255
8.134015786678532,4.0489308356985605,-1.866781242112816,-1.9148217691111349
8.174505095035517,3.92193971317413,-1.8859294598039273,-2.016878368690121
8.213724492167259,3.803360780057295,-1.9060982434908285,-2.1104442519072117
8.251758099967832,3.693439238239929,-1.9272026860099005,-2.194964539694461
8.288692492350231,3.592100170157207,-1.949152331406845,-2.2703846588434353
8.324613494051803,3.49904568686123,-1.9718561779952795,-2.3369983206112614
8.359603950920416,3.413834909292509,-1.9952261612013922,-2.3953234209969327
8.393742300013342,3.335946007847494,-2.0191793954113617,-2.4460065526164527
8.427101760091817,3.2648218739374237,-2.043639460937526,-2.4897532721550575
8.459749978831193,3.199902074814081,-2.0685369936590767,-2.527279720027764
8.491748999579332,3.140643992029585,-2.0938097908593543,-2.5592809165500396
8.523155439499629,3.0865358305818726,-2.1194026000248547,-2.586411478123214
8.554020797805448,3.037103766302149,-2.1452667148060867,-2.60927520800577
8.58439183546847,2.991915030019892,-2.1713594668861442,-2.628420780406856
8.614310985768668,2.950578291362337,-2.197643674690213,-2.6443414315495497
8.643816768682292,2.91274233782313,-2.2240870890057085,-2.657477148365321
8.672944192060523,2.878093753651694,-2.2506618604893616,-2.6682182972542003
8.70172512959704,2.8463540821309086,-2.2773440434619037,-2.676909974448713
8.73018867041835,2.817276792441273,-2.304113143206391,-2.6838566058070645
8.758361438342764,2.7906442561130014,-2.3309517092644616,-2.689326497799768
8.786267880903894,2.7662648567632533,-2.357844974242459,-2.6935561611066805
8.813930529471527,2.7439703010557785,-2.384780535853526,-2.6967543082782397
8.841370232482085,2.7236131612658077,-2.4117480789363084,-2.6991054786375237
8.868606364094743,2.7050646549242776,-2.4387391337226836,-2.7007732753952656
8.895657010643987,2.688212650642293,-2.4657468664766364,-2.701903217862403
8.92253913715041,2.6729598783938746,-2.4927658986552603,-2.702625219924976
8.94926873593435,2.6592223151262946,-2.51979215085451,-2.7030557075232737
8.975860959085614,2.6469277110736718,-2.546822707929743,-2.7032993847458795
9.00233023619635,2.6360142175638877,-2.5738557017772017,-2.7034506516888848
9.028690378371989,2.626429072835927,-2.6008902082940906,-2.7035946684796754
9.054954669100349,2.6181272982249,-2.6279261549788875,-2.703808049780265
9.081135942082598,2.611070353270616,-2.6549642354766902,-2.704159163812703
9.107246645615305,2.6052246956652403,-2.6820058271148173,-2.7047080011229028
9.133298892571958,2.60056019200207,-2.7090529071260465,-2.7055055733756115
9.159304494491979,2.59704833045595,-2.7361079628598026,-2.7065928050623618
9.185274977796539,2.5946602002909103,-2.7631738909104264,-2.707998896101158
9.211221579799448,2.5933642298915265,-2.790253879871438,-2.7097391672193543
9.237155222098362,2.5931237197329757,-2.8173512715436315,-2.7118124596456616
9.263086459295693,2.5938942733635866,-2.844469396140088,-2.7141982516763203
9.289025402029328,2.5956213188273853,-2.8716113786568513,-2.7168537781906195
9.3149816152176,2.5982380188800893,-2.8987799164387575,-2.719711586531119
9.340963995406401,2.6016639736272955,-2.925977032304069,-2.722678109018883
9.366980635142674,2.605805192472529,-2.9532038133942575,-2.72563393444898
9.3930386870674,2.6105558094046266,-2.9804601527387473,-2.7284364559030876
9.419144245161446,2.6158018896692505,-3.007744517297778,-2.730925393668091
9.445302264058139,2.6214273971776954,-3.035053771234459,-2.7329312980543325
9.471516538029915,2.6273219753913026,-3.062383084215002,-2.7342865481367618
9.497789757783828,2.6333897196302245,-3.0897259496963696,-2.7348376912589742
9.52412365498013,2.6395577258090706,-3.1170743266089596,-2.7344574120178486
9.550519232238221,2.6457830469525874,-3.144418900729138,-2.733054200561144
9.576977062707748,2.652056877712332,-3.1717494427347495,-2.730578054138114
9.60349763148487,2.6584053033002792,-3.1990552232761305,-2.72702127170194
9.630081684517874,2.664886646829282,-3.2263254359931497,-2.722414383269493
9.656730550986167,2.671586108529411,-3.2535495798258447,-2.716818184238223
9.683446412071461,2.6786088165831266,-3.280717761668227,-2.7103134447882313
9.710232500237293,2.6860725123841767,-3.3078208961161093,-2.702990008885571
9.737093225361134,2.694100907881073,-3.334850796204965,-2.694936735528079
9.764034234439945,2.702818398269676,-3.361800163560246,-2.6862332343539004
9.791062418422642,2.7123464259938066,-3.3886624959037848,-2.6769438006773543
9.818185882682581,2.7228014729495134,-3.415431933910558,-2.66711350392203
9.845413897412076,2.734294452992621,-3.4421030689497782,-2.656766093088482
9.872756841942001,2.746931185270986,-3.468670729880663,-2.6459032518043193
9.900226153794712,2.760813622959602,-3.4951297623987063,-2.63450472478115
9.927834290024308,2.776041557021994,-3.521474809646518,-2.622528898352387
9.955594705594528,2.792714581045564,-3.5477000986300418,-2.609913508526254
9.983521851404983,2.810934170993163,-3.573799233715304,-2.596576242559679
10.011631193114916,2.830805792121656,-3.599764996140901,-2.582415079416789
10.039939251036133,2.852440990365867,-3.6255891469350687,-2.5673082752068725
10.068463660939791,2.87595945724512,-3.6512622296871373,-2.551113942170196
10.097223255512242,2.901491077784898,-3.6767733691088393,-2.5336691971521716
10.126238166290092,2.9291779825279844,-3.702110061080361,-2.514788871816068
10.155529946115372,2.9591766296591784,-3.727257949798522,-2.4942637860223993
10.185121712411965,2.991659943227176,-3.752200587658746,-2.471858591298835
10.215038311844236,3.0268195293827462,-3.7769191735717342,-2.4473091960945754
10.245306507138062,3.064867984762174,-3.80139226553268,-2.4203197911927603
10.275955186985684,3.1060412992909705,-3.825595463444608,-2.3905595048088575
10.307015599978593,3.150601338806348,-3.8495010584926965,-2.357658735308306
10.338521613366657,3.198838369402024,-3.8730776458457794,-2.321205238408723
10.370509997060678,3.2510735530040162,-3.8962896982298667,-2.2807400892534657
10.403020732590718,3.307661299357609,-3.9190970991224012,-2.235753702976264
10.436097345584294,3.368991299502681,-3.941454636152164,-2.1856821867285054
10.46978725857932,3.435489985298217,-3.963311458019449,-2.129904419416851
10.504142158432302,3.5076210533537777,-3.984610502213618,-2.0677404216730064
10.53921836896584,3.585884554391526,-4.005287906430348,-1.998451797602144
10.575077214509754,3.6708138759667044,-4.025272424406369,-1.921245310661702
10.611785353269422,3.7629697356286007,-4.044484877512986,-1.8352810041845402
10.649415050625707,3.862930056746872,-4.062837687554831,-1.7396866899390757
10.688044351193176,3.971274334633146,-4.080234554454222,-1.6335810872357774
10.727757094539507,4.088560847936737,-4.0965703653265795,-1.5161083549277508
10.768642703018875,4.21529488748554,-4.111731448875857,-1.3864871317927647
10.81079565189373,4.3518861553783275,-4.125596320193785,-1.2440773409406476
10.854314513447514,4.498593767283842,-4.138037093603192,-1.0884677016964994
10.899300451120352,4.655458046533637,-4.148921770620157,-0.9195858340237476
10.945855031585689,4.822219723231416,-4.158117628960394,-0.7378306957657625
10.994077228818004,4.998229401597988,-4.1654959359180515,-0.54422355447133
11.044059522833983,5.182353257575969,-4.1709381714627645,-0.34056863731986176
11.095883055409743,5.372884637929029,-4.1743438578359635,-0.12960829326692838
11.149611901789033,5.567474930340688,-4.175639940768633,0.08484917210442369
11.20528665109244,5.76309972785581,-4.174791449047589,0.29785625232782753
11.262917648370998,5.956076645220564,-4.171812886524311,0.5033368653573143
11.322478414823204,6.142148074928237,-4.166779517870737,0.6942066403684081
11.383899895572487,6.316635409580208,-4.1598374514670535,0.862618594774333
11.44706624966829,6.474661789998372,-4.1512112655193105,1.000334135255306
11.511812867568272,6.611430453157107,-4.141207924166758,1.0992007459354356
11.577927172099843,6.7225377994858775,-4.130215916707404,1.1517004886289974
11.645152550094702,6.804295974988184,-4.118698911821114,1.1515209583156842
11.713195509844583,6.854038767174592,-4.107183702237957,1.0940937516859743
11.781735897516329,6.870384990579356,-4.096242764721097,0.9770436054157743
11.850439747422122,6.853433276506285,-4.0864723286669395,0.800492427026527
11.918974080187185,6.804861263096052,-4.078467404396674,0.567166869395877
11.987022692818146,6.727903573986424,-4.072795735702716,0.2822696101798815
12.05430172855801,6.627191407716322,-4.069973039600917,-0.04690177693745601
12.120573642635172,6.5084552082890825,-4.0704420573702915,-0.4115667244825004
12.185658194718062,6.378118769534761,-4.074557724615117,-0.8022371103732917
12.24943938241341,6.242840044662806,-4.08258009571885,-1.2095500452253367
12.311867782860038,6.10906972973421,-4.094675596171103,-1.625036257016946
12.37295848015738,5.982695515591027,-4.110925958741273,-2.0417193906971223
12.43278543531329,5.868818260078729,-4.1313431526482445,-2.454486451584843
12.491473617914078,5.7716750113720305,-4.155888017164093,-2.8602255949006574
12.549190368027798,5.694694752744568,-4.1844902731130995,-3.2577750405021106
12.606137315555243,5.640654764280908,-4.217068023518121,-3.6477536489675164
