th1 (rad),w1 (rad/s),th2 (rad),w2 (rad/s),a1 (rad/s^2),a2 (rad/s^2)
2.121264878075061,-2.4639961410915197,1.7181894684927232,0.47908085151351937,-8.725875037580282,0.7142866435396098
2.0966249166641457,-2.5512548914673223,1.7229802770078584,0.48622371794891545,-9.029045302378144,1.0951557611769305
2.0711123677494725,-2.641545344491104,1.7278425141873475,0.49717527556068475,-9.32168497893314,1.4469443188793445
2.0446969143045615,-2.734762194280435,1.7328142669429543,0.5116447187494781,-9.59591220082835,1.7562404040889539
2.0173492923617573,-2.830721316288719,1.737930714130449,0.5292071227903676,-9.842235842811098,2.0070272289239797
1.98904207919887,-2.92914367471683,1.7432227853583526,0.5492773950796074,-10.049539191967582,2.180677088920455
1.9597506424517017,-3.0296390666365056,1.7487155593091488,0.571084165968812,-10.205240692833929,2.2562200731761313
1.9294542517853366,-3.131691473564845,1.7544264009688368,0.5936463667005732,-10.295711598139242,2.2110078213653104
1.8981373370496881,-3.2346485895462376,1.7603628646358427,0.6157564449142263,-10.307026255297803,2.0218865364617487
1.8657908511542258,-3.337718852099216,1.766520429084985,0.6359753102788438,-10.2260899156351,1.6669480055159727
1.8324136626332337,-3.4399797512555668,1.7728801821877733,0.6526447903340036,-10.042120414838848,1.127826451085755
1.798013865120678,-3.540400955403955,1.7794066300911133,0.6639230548448611,-9.74835158227157,0.392349112423758
1.7626098555666385,-3.6378844712266707,1.786045860639562,0.6678465459690988,-9.343694481595348,-0.5428465018388124
1.726231010854372,-3.7313214160426242,1.792724326099253,0.6624180809507106,-8.833980148627209,-1.6702840727908437
1.6889177966939457,-3.819661217528896,1.79934850690876,0.6457152402228022,-8.232376684962631,-2.970814962929679
1.6507211845186567,-3.9019849843785224,1.8058056593109881,0.6160070905935054,-7.558679791216807,-4.414437968098114
1.6117013346748714,-3.9775717822906906,1.8119657302169232,0.5718627109125243,-6.837426975090309,-5.962869632612984
1.5719256168519644,-4.045946052041594,1.8176843573260484,0.5122340145863944,-6.095113688563296,-7.573484613031289
1.5314661563315484,-4.106897188927227,1.8228066974719124,0.4364991684560815,-5.357065896667115,-9.203835847579107
1.490397184442276,-4.160467847893898,1.827171689156473,0.34446080998029044,-4.64462357861708,-10.81580449558687
1.448792505963337,-4.2069140836800685,1.830616297256276,0.23630276502442174,-3.9731683729482334,-12.378589604445672
1.4067233651265365,-4.246645767409551,1.8329793249065203,0.11251686897996502,-3.3512487365717036,-13.87014210748465
1.364256907452441,-4.280158254775268,1.83410449359632,-0.02618455209488149,-2.7807463931515066,-15.277094329713426
1.3214553249046885,-4.307965718706782,1.8338426480753711,-0.17895549539201575,-2.257806070794502,-16.593564374932935
1.2783756677176208,-4.330543779414727,1.832053093121451,-0.34489113914134506,-1.7741677954046053,-17.819346979698057
1.2350702299234735,-4.348285457368773,1.8286041817300376,-0.5230846089383256,-1.31857850046149,-18.957961268328813
1.1915873753497856,-4.361471242373388,1.8233733356406543,-0.7126642216216138,-0.8780618733194535,-20.014888192034654
1.1479726629260518,-4.370251861106582,1.8162466934244381,-0.9128131035419603,-0.438937377522049,-20.996174082340907
1.104270144314986,-4.3746412348818025,1.8071185623890185,-1.1227748443653693,0.012432358470504716,-21.907450595404914
1.060523731966168,-4.374516911297097,1.7958908139453649,-1.3418493503194184,0.4891328724527908,-22.75334205610704
1.0167785628531971,-4.369625582572569,1.7824723204421706,-1.5693827708804888,1.003371773516642,-23.537194194459627
0.9730823070274714,-4.359591864837403,1.7667784927333658,-1.8047547128250852,1.5662765745296663,-24.261050253794668
0.9294863883790975,-4.343929099092106,1.748730945605115,-2.047365215363032,2.1877664770245633,-24.925808066305912
0.8860470973881764,-4.32205143432186,1.7282572934514846,-2.296623296026091,2.876461057070117,-25.5315050805501
0.8428265830449578,-4.293286823751159,1.7052910604912237,-2.551938346831592,3.6396019107067925,-26.0776916250496
0.7998937148074462,-4.256890804644091,1.6797716770229079,-2.812715263082088,4.482974677172898,-26.563863133659485
0.7573248067610053,-4.212061057872362,1.651644524392087,-3.078353894418683,5.4108277897218295,-26.989928812856867
0.7152041961822817,-4.157952779975144,1.6208609854479001,-3.3482531825472517,6.42579070392758,-27.356697476677844
0.6736246683825302,-4.093694872935868,1.5873784536224276,-3.6218201573140303,7.5287982524444566,-27.66636157764384
0.6326877196531715,-4.018406890411423,1.5511602520492873,-3.8984837730904687,8.719029089255004,-27.922958398246426
0.5925036507490573,-3.9312165995188733,1.5121754143183825,-4.177713357072933,9.993864583611302,-28.132783279207146
0.5531914847538686,-3.8312779536827604,1.4703982807476532,-4.459041189865005,11.348869335055523,-28.304723541026327
0.5148787052170409,-3.717789260332205,1.4258078688490032,-4.742088425275268,12.777784594431292,-28.45047258348666
0.4777008126137189,-3.590011414387892,1.3783869845962506,-5.026593151110135,14.272509558899875,-28.584569597908548
0.44180069846983994,-3.447286318798893,1.3281210530851493,-5.31243884708922,15.823020095869808,-28.724187776669144
0.407327835281851,-3.289056117840195,1.274996664614257,-5.5996807248559115,17.41713583868666,-28.888556669063494
0.37443727410344907,-3.114884759453328,1.218999857365698,-5.888566291546546,19.039988530445257,-29.097842491860547
0.3432884265089158,-2.9244848741488756,1.1601141944502324,-6.179544716465151,20.672957779261385,-29.371208781355755
0.31404357776742703,-2.7177552963562617,1.0983187472855809,-6.473256804278709,22.29171270285279,-29.72361807747244
0.2868660248038644,-2.4948381693277337,1.0335861792427938,-6.770492985053433,23.862816270748795,-30.160689584237904
0.2619176431105871,-2.256210006620246,0.9658812493922595,-7.072099880895813,25.338110473316075,-30.67058441842865
0.2393555430443846,-2.002828901887085,0.8951602505833014,-7.378805725080099,26.64584421786005,-31.21148827208272
0.21932725402551376,-1.7363704597084846,0.8213721933325004,-7.690920607800926,27.677397729690664,-31.693005022100298
0.20196354942842892,-1.459596482411578,0.7444629872544912,-8.00785065802193,28.26897528132491,-31.950287281168713
0.18736758460431313,-1.1769067295983289,0.6643844806742719,-8.327353530833618,28.179906725354982,-31.71252019741896
0.17559851730832984,-0.8951076623447791,0.5811109453659358,-8.644478732807807,27.075327333152643,-30.575338492155403
0.16664744068488205,-0.6243543890132527,0.4946661580378577,-8.95023211772936,24.533489936238794,-28.00344375483937
0.16040389679474953,-0.37901948965086474,0.40516383686056406,-9.230266555277755,20.115295548549845,-23.41344039778779
0.1566137018982409,-0.17786653416536627,0.3128611713077865,-9.464400959255633,13.538424328538806,-16.3946899840978
0.15483503655658723,-0.04248229087997821,0.2182171617152302,-9.62834785909661,4.946860176861957,-7.058637536053863
0.15441021364778745,0.006986310888641364,0.1219336831242641,-9.698934234457148,-4.87243811627248,3.677879141775076
0.15448007675667386,-0.04173807027408344,0.02494434077969261,-9.662155443039397,-14.589493457098369,14.223058102135102
0.15406269605393302,-0.18763300484506712,-0.07167721365070137,-9.519924862018046,-22.840392243542755,22.970618686688123
0.15218636600548235,-0.4160369272804947,-0.16687646227088182,-9.290218675151165,-28.80701628165098,29.035223392365644
0.1480259967326774,-0.7041070900970046,-0.25977864902239345,-8.999866441227509,-32.407950498016646,32.464206039993044
0.14098492583170735,-1.028186595077171,-0.34977731343466856,-8.675224380827578,-34.05981621893638,33.8964577551094
0.13070305988093564,-1.3687847572665348,-0.43652955724294434,-8.336259803276484,-34.326871298648854,34.101059442703644
0.11701521230827029,-1.7120534702530232,-0.5198921552757092,-7.995249208849447,-33.70069286364996,33.70498002795524
0.09989467760574006,-2.049060398889523,-0.5998446473642036,-7.658199408569895,-32.53265789963323,33.12405771251078
0.07940407361684482,-2.3743869778858553,-0.6764266414499026,-7.326958831444787,-31.048133478267985,32.5955624088856
0.05566020383798626,-2.6848683126685353,-0.7496962297643505,-7.001003207355931,-29.38347234053184,32.23424648750812
0.028811520711300907,-2.9787030360738536,-0.8197062618379097,-6.67866074248085,-27.61958589010929,32.07963973637548
-0.0009755096494376281,-3.2548988949749464,-0.8864928692627182,-6.357864345117095,-25.805667732823135,32.12835667736606
-0.033524498599187096,-3.512955572303178,-0.9500715127138891,-6.036580778343435,-23.974093304127962,32.354175013272524
-0.06865405432221888,-3.7526965053444576,-1.0104373204973234,-5.7130390282107095,-22.149087198406665,32.71999659235857
-0.10618101937566346,-3.974187377328524,-1.0675677107794306,-5.385839062287124,-20.351398438457895,33.184894745345886
-0.1459228931489487,-4.177701361713103,-1.121426101402302,-5.053990114833665,-18.600541057032355,33.70830911698305
-0.18769990676607973,-4.363706772283426,-1.1719660025506387,-4.716907023663834,-16.915598559166458,34.25259194619052
-0.231336974488914,-4.53286275787509,-1.219135072787277,-4.374381104201929,-15.315214737783545,34.78456351736741
-0.2766656020676649,-4.686014905252926,-1.2628788838292961,-4.026535469028255,-13.81715672481448,35.27641389715661
-0.32352575112019416,-4.824186472501071,-1.3031442385195786,-3.673771330056689,-12.437687999300342,35.70611048677435
-0.3717676158452049,-4.948563352494075,-1.3398819518201455,-3.3167102251889453,-11.190891996306185,36.05737765533284
-0.42125324937014563,-5.060472272457137,-1.3730490540720348,-2.956136448635617,-10.088017607415996,36.319267598049045
-0.471857972094717,-5.1613524485312965,-1.402610418558391,-2.5929437726551265,-9.136862714567203,36.485316131508675
-0.52347149658003,-5.252721075676969,-1.4285398562849423,-2.22809061134004,-8.341163432789916,36.55225754554945
-0.5759987073367997,-5.336132710004868,-1.4508207623983427,-1.8625680358845453,-7.6999108903456115,36.51824876244315
-0.6293600344368484,-5.413131818908324,-1.469446442757188,-1.4973855482601137,-7.206472464752619,36.380519703294155
-0.6834913526259316,-5.48519654355585,-1.4844202982397892,-1.133580351227172,-6.847351833752093,36.132325072853966
-0.7383433180614901,-5.553670061893372,-1.4957561017520609,-0.7722571004986324,-6.600389900624136,35.75903511846559
-0.7938800186804238,-5.619673960899613,-1.5034786727570473,-0.41466674931397646,-6.432208828082687,35.233203636933915
-0.85007675828942,-5.68399604918044,-1.5076253402501871,-0.06233471294463733,-6.294785158765947,34.5085668379433
-0.9069167187812244,-5.746943900768099,-1.5082486873796335,0.28275095543479567,-6.121307508656928,33.51330503661958
-0.9643861577889054,-5.8081569758546685,-1.5054211778252855,0.6178840058009915,-5.822104208777063,32.143789282602015
-1.022467727547452,-5.866378017942439,-1.4992423377672757,0.9393218986270115,-5.28264481122206,30.26175599057277
-1.0811315077268764,-5.919204466054659,-1.4898491187810055,1.2419394585327392,-4.367541491583693,27.700552030307826
-1.140323552387423,-5.962879880970497,-1.477429724195678,1.5189449788358176,-2.936594975738628,24.28902084270202
-1.199952351197128,-5.9922458307278825,-1.4622402744073197,1.7618351872628377,-0.8791777600840899,19.90178335873074
-1.2598748095044068,-6.001037608328724,-1.4446219225346915,1.9608530208501451,1.832581619577423,14.536113323827323
-1.319885185587694,-5.98271179213295,-1.42501339232619,2.1062141540884185,5.087048310545664,8.392992780004064
-1.3797123035090235,-5.931841309027493,-1.4039512507853058,2.190144081888459,8.60831585099181,1.9109323472608504
-1.4390307165992984,-5.845758150517574,-1.3820498099664211,2.2092534053610677,12.001791967345042,-4.302508103824732
-1.4974882981044741,-5.725740230844124,-1.3599572759128105,2.1662283243228204,14.870876984583324,-9.64210379854504
-1.5547457004129155,-5.577031460998291,-1.3382949926695822,2.06980728633737,16.946148451950087,-13.694292967442971
-1.6105160150228983,-5.40756997647879,-1.3175969198062085,1.9328643566629404,18.150445964031544,-16.33331414744506
-1.6645917147876863,-5.226065516838474,-1.2982682762395792,1.7695312151884899,18.573941874384357,-17.68592405414248
-1.7168523699560712,-5.0403260980946305,-1.2805729640876944,1.592671974647065,18.397270584524755,-18.019188187060653
-1.7672556309370175,-4.856353392249383,-1.2646462443412236,1.4124800927764585,17.816806758172117,-17.629888002448524
-1.8158191648595114,-4.678185324667662,-1.250521443413459,1.2361812127519731,17.000073961152186,-16.777000312891754
-1.862601018106188,-4.5081845850561395,-1.2381596312859393,1.0684112096230556,16.07073304282401,-15.657361947956975
-1.9076828639567494,-4.3474772546279,-1.2274755191897087,0.9118375901434859,15.111098519920018,-14.40750206503743
-1.9511576365030283,-4.196366269428699,-1.2183571432882738,0.7677625694931116,14.171308986685249,-13.115897374091587
-1.9931212991973153,-4.054653179561846,-1.2106795175933427,0.6366035957521957,13.279038063175184,-11.836597797679056
-2.033667830992934,-3.9218627989300945,-1.2043134816358207,0.5182376177754051,12.447378703294493,-10.600571054583103
-2.072886458982235,-3.7973890118971494,-1.1991311054580667,0.4122319072295741,11.68049844540336,-9.424011025051838
-2.1108603491012063,-3.680584027443116,-1.195008786385771,0.3179917969790557,10.977414557001955,-8.314004856795187
-2.1476661893756375,-3.5708098818730964,-1.1918288684159806,0.23485174841110384,10.334396047268271,-7.27223100185469
-2.1833742881943685,-3.4674659214004135,-1.1894803509318694,0.16212943839255695,9.746435671462246,-6.297299269564684
-2.2180489474083727,-3.3700015646857913,-1.1878590565479439,0.09915644569691011,9.208119968747788,-5.386195435155278
-2.2517489630552308,-3.2779203649983133,-1.1868674920909748,0.04529449134535733,8.71412137113425,-4.535151842666407
-2.284528166705214,-3.190779151286971,-1.1864145471775212,-5.702708130673334e-05,8.259458590692828,-3.74015721013589
-2.316435958218084,-3.108184565380043,-1.1864151174483342,-0.037458599182665635,7.839618057129002,-2.9972432135202136
-2.347517803871884,-3.029788384808753,-1.1867897034401609,-0.06743103131786778,7.450594162115669,-2.3026350947730165
-2.3778156877199716,-2.955282443187596,-1.1874640137533397,-0.09045738226559794,7.088883742039895,-1.6528209615977272
-2.4073685121518476,-2.884393605767197,-1.1883685875759957,-0.1069855918815752,6.751456239919658,-1.0445737028246629
-2.4362124482095195,-2.8168790433680004,-1.1894384434948115,-0.11743132890982183,6.435712320869808,-0.47494636783939737
-2.4643812386431994,-2.7525219201593023,-1.1906127567839098,-0.1221807925882158,6.139438395540979,0.05874632825483823
-2.4919064578447925,-2.6911275362038927,-1.1918345647097919,-0.12159332930566742,5.86076126772587,0.5589528105218251
-2.5188177332068316,-2.632519923526634,-1.1930504980028485,-0.11600380120044917,5.5981051701759865,1.027911355579327
-2.545142932442098,-2.5765388718248743,-1.194210536014853,-0.10572468764465591,5.350152290786299,1.4676762446398584
-2.570908321160347,-2.5230373489170113,-1.1952677828912994,-0.09104792519825733,5.115807212492596,1.8801420758396183
-2.596138694649517,-2.471879276792085,-1.196178262143282,-0.07224650443986114,4.894165304862915,2.267065660808636
-2.6208574874174375,-2.422937623743456,-1.1969007271876806,-0.04957584783177478,4.6844848967371915,2.6300853430385
-2.645086863654872,-2.376092774776084,-1.1973964856659984,-0.02327499440138978,4.486162955751618,2.970737806078011
-2.6688477914026327,-2.3312311452185677,-1.1976292356100122,0.006432383659390334,4.298713958383621,3.2904725585596486
-2.6921601028548183,-2.2882440056347315,-1.1975649117734184,0.03933710924498682,4.121751626638261,3.5906643347909557
-2.7150425429111658,-2.247026489368349,-1.1971715406809684,0.07524375259289637,3.9549732185954003,3.872623661789206
-2.7375128078048494,-2.2074767571823948,-1.1964191031550395,0.11396998921078844,3.798146080157572,4.137605833369178
-2.759587575376673,-2.169495296380819,-1.1952794032629317,0.15534604754448023,3.6510961888467204,4.386818509757772
-2.7812825283404816,-2.1329843344923516,-1.193725942787487,0.19921423264205795,3.5136984441562933,4.621428133551477
-2.802612371685405,-2.0978473500507886,-1.1917338004610663,0.24542851397757273,3.3858684809693957,4.842565323333071
-2.823590845185913,-2.063988665241095,-1.1892795153212905,0.29385416721090346,3.267555801937346,5.051329376910574
-2.844230731838324,-2.031313107221721,-1.1863409736491815,0.3443674609800092,3.158738040980764,5.248791987843614
-2.8645438629105415,-1.9997257268119135,-1.1828972990393813,0.39685538085844535,3.0594161829755655,5.43600025190171
-2.884541120178661,-1.969131564982158,-1.1789287452307968,0.4512153833774625,2.969610574071813,5.61397901413213
-2.9042324358284826,-1.9394354592414398,-1.1744165913970221,0.5073551735187838,2.889357562832854,5.783732581785337
-2.923626790420897,-1.9105418836131112,-1.1693430396618343,0.5651924993366372,2.818706614304548,5.946245802733697
-2.942732209257028,-1.8823548174700657,-1.1636911146684679,0.6246549573639741,2.757717736981773,6.102484482352944
-2.9615557574317286,-1.854777640100248,-1.1574445650948282,0.6856798021875036,2.7064590560813344,6.253395083119207
-2.980103533832731,-1.8277130495394347,-1.1505877670729532,0.7482137530186956,2.665004355086075,6.3999036192963095
-2.9983806643281254,-1.801063005988574,-1.1431056295427662,0.8122127892116587,2.633430390591598,6.542913622826313
-3.0163912943880113,-1.7747287020826579,-1.1349835016506495,0.8776419254399219,2.6118137623245365,6.683303014558625
-3.034138581408838,-1.7486105644594125,-1.1262070823962502,0.9444749555855082,2.600227089939447,6.821919665827198
-3.0516246870534323,-1.722608293560018,-1.116762332840395,1.0126941522437802,2.5987342098605484,6.95957537760152
-3.0688507699890324,-1.6966209514614126,-1.1066353913179572,1.0822899060197955,2.607384057975037,7.097037936464912
-3.0858169795036465,-1.6705471108816623,-1.0958124922577592,1.1532602853844445,2.626202846394439,7.2350208270623995
-3.1025224506124633,-1.644285082417718,-1.0842798894039147,1.2256104936550685,2.655184073945905,7.374170088219537
-3.1189653014366403,-1.6177332416782588,-1.0720237844673641,1.299352194537264,2.69427583012227,7.515047694023329
-3.1351426338534227,-1.590790483377036,-1.0590302625219914,1.3745026714774973,2.7433647612898264,7.6581107221475895
-3.151050538687193,-1.5633568357641379,-1.0452852358072164,1.4510837786989732,2.8022559677690926,7.80368544167702
-3.1666841070448344,-1.535334276086447,-1.0307743980202266,1.5291206331157434,2.8706479949043078,7.951935316458981
-3.1820374498056987,-1.506627796137404,-1.0154831916890692,1.6086399862803333,2.9481019777470414,8.102821786641524
-3.1971037277670726,-1.4771467763599335,-0.9993967918262658,1.6896682041467486,3.0340039098785705,8.256056575915697
-3.211875195530672,-1.4468067372611477,-0.9825001097847984,1.7722287699059056,3.1275189518779563,8.411044199610918
-3.2263432629032835,-1.4155315477423682,-0.9647778220857394,1.8563392119020148,3.227536703969333,8.566813356642285
-3.2404985783807074,-1.3832561807026749,-0.9462144299667192,1.9420073454684377,3.3326064843582,8.721936031412687
-3.2543311401877344,-1.3499301158590928,-0.9267943565120349,2.0292267057825644,3.4408619418100366,8.874433488222826
-3.2678304413463253,-1.3155214964409925,-0.9065020894542093,2.1179710406647927,3.5499348728523743,9.021669017378498
-3.2809856563107354,-1.2800221477124687,-0.8853223790475614,2.208187730838578,3.6568590213702477,9.160228429204148
-3.29378587778786,-1.2434535574987662,-0.8632405017391757,2.299790015130619,3.7579660486589224,9.285791064122026
-3.3062204133628477,-1.205873897012177,-0.8402426015878695,2.3926479257718394,3.8487779332078578,9.392996695745326
-3.3182791523329693,-1.1673861176800984,-0.816316122330151,2.4865778927292927,3.923902952549963,9.475317356945023
-3.3299530135097704,-1.1281470881545987,-0.7914503434028581,2.581331066298743,3.9769462409908294,9.524947982312987
