th1 (rad),w1 (rad/s),th2 (rad),w2 (rad/s),a1 (rad/s^2),a2 (rad/s^2)
0.016308579357146795,-0.11306162753206327,2.1608791871343156,1.5746888500469447,-1.5614585800680343,-9.001071419821406
0.015177963081826163,-0.12867621333274362,2.176626075634785,1.4846781358487307,-1.7520183589168408,-9.045348625421946
0.013891200948498727,-0.14619639692191203,2.191472856993272,1.3942246495945112,-1.9293655002623533,-9.089894042852693
0.012429236979279607,-0.16549005192453556,2.205415103489217,1.3033257091659842,-2.0934295132927385,-9.134256682126855
0.010774336460034251,-0.18642434705746294,2.218448360580877,1.2119831423447156,-2.24415456059129,-9.178037943109812
0.008910092989459622,-0.20886589266337585,2.2305681920043243,1.1202027629136175,-2.3814997573121817,-9.220885339420064
0.006821434062825863,-0.23268089023649768,2.2417702196334606,1.0279939095194168,-2.505438908012175,-9.262486602703914
0.004494625160460886,-0.25773527931661944,2.2520501587286548,0.9353690434923777,-2.6159597818392886,-9.302564155100335
0.0019172723672946919,-0.2838948771350123,2.2614038491635786,0.8423434019413744,-2.713063017889325,-9.340869941184483
-0.0009216764040554312,-0.31102550731390555,2.2698272831829924,0.7489347025295295,-2.79676074379746,-9.377180612470198
-0.004031931477194487,-0.33899311475188015,2.2773166302082877,0.6551628964048275,-2.8670749822229284,-9.411293058284276
-0.0074218626247132885,-0.36766386457410943,2.283868259172336,0.5610499658219847,-2.9240359120034425,-9.443020277040407
-0.011098501270454383,-0.39690422369414385,2.289478758830556,0.46661976305158065,-2.9676800435846857,-9.47218758210041
-0.015067543507395822,-0.4265810241299907,2.294144956461072,0.37189788723057654,-2.9980483620271534,-9.49862913689722
-0.019333353748695728,-0.4565615077502623,2.2978639353333774,0.27691159586160435,-3.0151844855816807,-9.522184815111382
-0.023898968826198352,-0.48671335260607906,2.3006330512919932,0.1816897477104905,-3.019132883588837,-9.542697383666562
-0.028766102352259144,-0.5169046814419674,2.302449948769098,0.08626277387382489,-3.0099371943316386,-9.560010009289305
-0.03393514916667882,-0.5470040533852838,2.3033125765078366,-0.009337326219068173,-2.9876386814409788,-9.573964093439756
-0.03940518970053166,-0.5768804401996935,2.303219203245646,-0.10507696715346573,-2.952274866450902,-9.584397445565079
-0.0451739941025286,-0.6064031888642025,2.3021684335741113,-0.20092094160911653,-2.9038783750031385,-9.591142810785366
-0.051238025991170624,-0.635441972614234,2.30015922415802,-0.2968323697169702,-2.842476034827751,-9.594026775150194
-0.057592445717312965,-0.6638667329625114,2.2971909004608504,-0.39277263746847213,-2.7680882647416327,-9.592869079285785
-0.06423111304693808,-0.6915476156099277,2.2932631740861655,-0.48870132826133,-2.680728795213516,-9.587482379298706
-0.07114658920303736,-0.7183549035620629,2.288376160803552,-0.5845761520543171,-2.580404762188991,-9.577672501847095
-0.07833013823865799,-0.7441589511839528,2.282530399283009,-0.680352877072788,-2.4671172164416144,-9.563239247896599
-0.08577172775049752,-0.768830123348369,2.275726870512281,-0.775985269551754,-2.34086209025309,-9.543977806335343
-0.0934600289839812,-0.7922387442508999,2.2679670178167637,-0.8714250476151074,-2.201631661217431,-9.519680843754115
-0.10138241642649021,-0.8142550608630742,2.2592527673406124,-0.9666218560526486,-2.0494165488666725,-9.490141339672865
-0.10952496703512095,-0.8347492263517409,2.249586548780086,-1.0615232694493772,-1.8842082730669378,-9.455156236641248
-0.11787245929863836,-0.8535913090824102,2.238971316085592,-1.1560748318157896,-1.706002393176081,-9.414530971273646
-0.12640837238946245,-0.870651333014171,2.2274105677674343,-1.2502201415285261,-1.5148022332684974,-9.368084944732537
-0.13511488571960417,-0.8857993553468559,2.214908366352149,-1.3439009909758515,-1.310623180875941,-9.315657978847904
-0.14397287927307273,-0.8989055871556153,2.2014693564423906,-1.4370575707643305,-1.093497524349625,-9.257117786477753
-0.15296193514462889,-0.9098405623991116,2.1870987807347473,-1.529628748629108,-0.8634797669852984,-9.192368461590053
-0.16206034076862,-0.9184753600689646,2.1718024932484563,-1.6215524332450086,-0.620652324581449,-9.121359965863135
-0.17124509436930965,-0.9246818833147791,2.155586968916006,-1.71276603290364,-0.3651314775414032,-9.044098554696765
-0.18049191320245744,-0.9283331980901931,2.13845930858697,-1.8032070184506077,-0.09707340977040373,-8.96065804717279
-0.18977524518335936,-0.9293039321878971,2.120427238402464,-1.8928135989223356,0.18331987434192099,-8.87119180298662
-0.19906828450523834,-0.9274707334444778,2.1014991024132406,-1.9815255169522017,0.4757950049879219,-8.775945226539342
-0.2083429918396831,-0.9227127833945986,2.0816838472437187,-2.069284969217595,0.7800423640167672,-8.675268576676435
-0.2175701196736291,-0.914912359754431,2.0609909975515426,-2.1560376549843596,1.0956921897644214,-8.569629822995214
-0.2267192432711734,-0.9039554378567868,2.039430621001699,-2.241733953214312,1.4223120244268646,-8.459627259726812
-0.23575879764974128,-0.8897323176125181,2.0170132814695556,-2.32633022581158,1.7594058782470112,-8.34600156979467
-0.24465612082586646,-0.872138258830048,1.9937499792114397,-2.4097902415095267,2.1064154920143374,-8.229647028773448
-0.2533775034141669,-0.8510741039099047,1.9696520767963444,-2.492086711797261,2.4627240720494394,-8.111621555016669
-0.261888244453266,-0.8264468631894103,1.9447312096783718,-2.573202927347428,2.8276628483671864,-7.993155351651682
-0.2701527130851601,-0.7981702347057384,1.9189991804048976,-2.6531344808639448,3.20052076651427,-7.875657951152424
-0.27813441543221745,-0.7661650270405957,1.892467835596258,-2.731891060375469,3.5805575674215175,-7.760723565404101
-0.2857960657026234,-0.7303594513663806,1.8651489249925033,-2.8094982960295103,3.9670204398311424,-7.650134763834343
-0.2930996602162872,-0.6906892469680692,1.8370539420322083,-2.8859996436678537,4.359164350495582,-7.545864648074133
-0.3000065526859679,-0.6470976034631134,1.8081939455955298,-2.961458290148595,4.756276074152752,-7.450077861007316
-0.306477528720599,-0.5995348427215859,1.7785793626940438,-3.035959068758668,5.1577018655706635,-7.365130956944413
-0.3124728771478149,-0.5479578240658792,1.7482197720064572,-3.1096103783281124,5.562878648256773,-7.293572863068728
-0.3179524553884737,-0.4923290375833115,1.717123668223176,-3.1825461069587995,5.971368548017801,-7.2381463749540575
-0.32287574576430683,-0.43261535210313345,1.685298207153588,-3.25492757070834,6.3828965838303855,-7.201791845903017
-0.32720189928533816,-0.3687863862648296,1.6527489314465047,-3.3269454891673704,6.797391352260775,-7.187654447280224
-0.33088976314798646,-0.3008124727422219,1.619479476554831,-3.398822033640173,7.215028612443683,-7.1990965929047475
-0.3338978878754087,-0.22866218661778506,1.5854912562184293,-3.4708129995692203,7.636277801784418,-7.239717335186646
-0.33618450974158653,-0.1522994085999409,1.5507831262227372,-3.5432101729210865,8.061951690523443,-7.313380756587747
-0.33770750382758596,-0.07167989169470647,1.5153510244935262,-3.616343980486964,8.493259614530594,-7.424255601207937
-0.33842430274453306,0.013252704450599465,1.4791875846886566,-3.6905865364990436,8.931865003006465,-7.5768686213526655
-0.33829177570002705,0.10257135448066411,1.4422817193236661,-3.76635522271257,9.379948225626709,-7.776174351656242
-0.3372660621552204,0.1963708367369312,1.4046181670965403,-3.8441169662291323,9.840276093117488,-8.027644255228156
-0.3353023537878511,0.29477359766810607,1.366176997434249,-3.924393408781414,10.316279604568198,-8.337378372864483
-0.33235461781117004,0.3979363937137881,1.326933063346435,-4.007767192510059,10.812141652275123,-8.712242657819106
-0.32837525387403216,0.5060578102365393,1.2868553914213343,-4.09488961908825,11.332896207605705,-9.160034911575318
-0.3233146757716668,0.6193867723125963,1.2459064952304517,-4.186489968204003,11.884539728417169,-9.68968129609513
-0.3171208080485408,0.738232169596768,1.2040415955484116,-4.283386781164954,12.474153628977932,-10.311463120350776
-0.3097384863525731,0.8629737058865473,1.161207727736762,-4.386501412368462,13.11003270150027,-11.037268756199182
-0.3011087492937076,0.99407403290155,1.1173427136130774,-4.496874099930454,13.80180669041804,-11.880855882942306
-0.29116800896469214,1.1320920998057304,1.0723739726137729,-4.615682658759877,14.56052776062083,-12.858090689443513
-0.2798470879666348,1.2776973774119387,1.0262171460261742,-4.744263565654313,15.39866989066708,-13.98709570754984
-0.2670701141925154,1.4316840763186094,0.978774510369631,-4.884134522729811,16.32993738467613,-15.288173040681592
-0.2527532734293293,1.5949834501653708,0.9299331651423329,-5.037016253136627,17.36869100987228,-16.78325037141916
-0.23680343892767558,1.7686703602640936,0.8795630026109666,-5.204848756850819,18.528640316413753,-18.49437954069782
-0.21911673532503465,1.953956763428231,0.8275145150424584,-5.389792552257797,19.820165250412444,-20.44042565449669
-0.19957716769075234,2.1521584159323557,0.7736165895198804,-5.594196808802764,21.245130673883814,-22.63039338930669
-0.17805558353142878,2.3646097226711937,0.7176746214318528,-5.82050074269583,22.787216423659757,-25.050663850832
-0.15440948630471685,2.5924818869077915,0.6594696140048945,-6.07100738120415,24.39447853790391,-27.641574401792287
-0.12848466743563894,2.8364266722868305,0.5987595401928529,-6.347423125222073,25.94918127508921,-30.25637451235411
-0.10012040071277063,3.0959184850377226,0.5352853089406322,-6.6499868703456135,27.21897100155455,-32.59408356253038
-0.0691612158623934,3.368108195053268,0.46878544023717605,-6.975927705970918,27.787323463538865,-34.10282957616739
-0.03548013391186072,3.6459814296886566,0.39902616317746686,-7.316956001732591,26.98105055356716,-33.87735683419263
0.0009796803850258412,3.9157919352243282,0.325856603160141,-7.655729570074517,23.868287245861918,-30.651227149895085
0.040137599737269124,4.154474807682948,0.2492993074593958,-7.962241841573468,17.493978912126725,-23.114403303019003
0.08168234781409861,4.329414596804215,0.16967688904366113,-8.193385874603658,7.531547837441618,-10.804501313045622
0.12497649378214076,4.404730075178631,0.08774303029762455,-8.301430887734114,-4.865270325535005,4.725343120969277
0.16902379453392707,4.3560773719232815,0.0047287214202834105,-8.25417745652442,-17.001724112788928,19.829995790109166
0.21258456825315988,4.186060130795393,-0.0778130531449608,-8.055877498623328,-26.113838409695962,30.799698688063106
0.2544451695611138,3.924921746698433,-0.1583718281311941,-7.747880511742697,-31.089727772396067,36.20393344613019
0.29369438702809814,3.6140244689744723,-0.2358506332486211,-7.385841177281396,-32.58544371553759,37.01014111195345
0.3298346317178429,3.2881700318190963,-0.30970904502143504,-7.015739766161861,-31.926351262704408,35.05650387918804
0.3627163320360339,2.968906519192052,-0.37986644268305364,-6.665174727369981,-30.23675488964968,31.870204347841305
0.3924053972279544,2.666538970295555,-0.44651818995675346,-6.346472683891568,-28.209789300011987,28.373118951870755
0.41907078693091,2.384441077295435,-0.5099829167956691,-6.06274149437286,-26.19840477135447,25.020593019406444
0.44291519770386434,2.1224570295818905,-0.5706103317393977,-5.812535564178796,-24.353677986544227,21.996655969711803
0.46413976799968326,1.8789202497164483,-0.6287356873811857,-5.592569004481677,-22.72291308178232,19.349420216487587
0.48292897049684774,1.6516911188986252,-0.6846613774260024,-5.399074802316801,-21.305257331838554,17.066465351498362
0.499445881685834,1.4386385455802397,-0.7386521254491705,-5.228410148801817,-20.080070516945153,15.112491918450855
0.5138322671416364,1.2378378404107881,-0.7909362269371887,-5.077285229617309,-19.020461690058614,13.446759303894142
0.5262106455457443,1.047633223510202,-0.8417090792333618,-4.942817636578368,-18.099340109724462,12.030492896252571
0.5366869777808463,0.8666398224129573,-0.8911372555991455,-4.822512707615842,-17.291853961778926,10.829553052136124
0.5453533760049759,0.6937212827951681,-0.9393623826753039,-4.714217177094481,-16.576154359438167,9.814972986640445
0.5522905888329276,0.5279597392007864,-0.9865045544462487,-4.616067447228077,-15.933425772413775,8.962609235866665
0.5575701862249355,0.36862548147664864,-1.0326652289185294,-4.5264413548694105,-15.34762927996342,8.252480857164597
0.561256441039702,0.21514918867701444,-1.0779296424672236,-4.443916546297764,-14.805163717563516,7.66805349439846
0.5634079329264721,0.06709755150137928,-1.1223688079302012,-4.367236011353779,-14.29453354079799,7.195573737503241
0.5640789084414859,-0.07584778390660063,-1.166041168043739,-4.295280273978747,-13.806057086465568,6.823490019764065
0.5633204306024199,-0.2139083547712563,-1.2089939707835264,-4.227045373781107,-13.331623447964663,6.541965942789687
0.5611813470547073,-0.34722458925090294,-1.2512644245213376,-4.16162571435321,-12.864495048286136,6.342479779676698
0.5577091011621983,-0.47586953973376434,-1.2928806816648697,-4.0982009165564435,-12.399148706862327,6.217500057213366
0.5529504057648607,-0.5998610268023876,-1.333862690830434,-4.03602591598431,-11.931146921451083,6.1602268118097205
0.5469517954968368,-0.7191724960168985,-1.3742229499902772,-3.974423647866213,-11.457031470404969,6.1643891152174
0.5397600705366679,-0.8337428107209481,-1.4139671864689394,-3.912779756714039,-10.974232449063882,6.2240907581344675
0.5314226424294584,-0.943485135211587,-1.4530949840360798,-3.850538849132694,-10.480987094446958,6.333697137625945
0.5219877910773425,-1.0482950061560565,-1.4916003725274067,-3.7872018777564347,-9.976264041215419,6.487757279395873
0.511504841015782,-1.1480576465682106,-1.529472391304971,-3.722324304962476,-9.459689898947824,6.680955535946294
0.5000242645500999,-1.242654545557689,-1.5666956343545957,-3.655514749603013,-8.931476194928193,6.908087895345731
0.487597719094523,-1.331969307506971,-1.6032507818506259,-3.586433870649556,-8.392345751583681,7.16405809385494
0.4742780260194533,-1.4158927650228077,-1.6391151205571215,-3.514793289711007,-7.843458433589257,7.443888931225195
0.4601190983692252,-1.4943273493587004,-1.6742630534542315,-3.4403544003987547,-7.286336882401785,7.742744410899485
0.4451758248756382,-1.5671907181827183,-1.7086665974582191,-3.3629269562897597,-6.722793339707369,8.055958620683384
0.429503917693811,-1.634418651579792,-1.7422958670211168,-3.282367370082926,-6.154858941241212,8.379067662384905
0.4131597311780131,-1.6959672409922042,-1.775119540721946,-3.198576693459077,-5.584716947066806,8.707841438190837
0.39620005876809106,-1.7518144104628723,-1.8071053076565369,-3.1114982790771686,-5.014641285367114,9.038312693182382
0.37868191466346235,-1.8019608233165434,-1.8382202904473086,-3.0211151521453448,-4.446941557303998,9.366801367202095
0.3606623064302969,-1.8464302388895835,-1.868431441968762,-2.927447138473324,-3.883915321836412,9.689932984832065
0.34219800404140105,-1.8852693921079475,-1.8977059133534953,-2.830547808625003,-3.327808096511725,10.004650465419482
0.3233453101203216,-1.9185474730730647,-1.9260113914397452,-2.7305013039708084,-2.780781117099795,10.308219324312738
0.30415983538959096,-1.9463552842440626,-1.9533164044794533,-2.627419110727681,-2.2448865342461968,10.598226727761471
0.28469628254715035,-1.9688041495865245,-1.9795905955867301,-2.5214368434500662,-1.7220494194153242,10.872575234275104
0.2650082410512851,-1.9860246437806777,-2.004804964021231,-2.4127110911073153,-1.2140557254099995,11.12947229409566
0.24514799461347833,-1.9981652010347777,-2.028932074932304,-2.301416368166359,-0.7225452082135225,11.367416687525788
0.22516634260313056,-2.005390653116913,-2.0519462386139677,-2.187742201291101,-0.24900826651931085,11.585183074435454
0.20511243607196145,-2.007880735782106,-2.073823660626879,-2.071890370546747,0.20521431527995468,11.781805721602156
0.1850336287141404,-2.0058285926293067,-2.0945425643323463,-1.9540723133307254,0.6389296399066021,11.956562296830851
0.1649753427878473,-1.9994392962302407,-2.1140832874656534,-1.834506690362417,1.05108976225437,12.108958396220762
0.1449809498255449,-1.988928398607697,-2.1324283543692775,-1.7134171064002093,1.4407881513713405,12.238713229978273
0.12509166583946793,-1.9745205170939837,-2.1495625254332795,-1.5910299741004266,1.8072559716362562,12.345746656513253
0.1053464606685281,-1.9564479573776212,-2.165472825174284,-1.4675725075352941,2.149858428479216,12.43016754364736
0.08578198109475188,-1.934949373092829,-2.180148550249637,-1.3432708320988205,2.468091265686975,12.492263263964425
0.0664324873638236,-1.9102684604359594,-2.1935812585706254,-1.2183481994591763,2.7615773711519753,12.532490007624494
0.047329802759463996,-1.8826526867244398,-2.205764740565217,-1.0930232993829314,3.030063351683676,12.551463524112084
0.0285032758922196,-1.852352053207603,-2.216694973559046,-0.9675086641418106,3.27341587746331,12.549949883463738
0.009979755360143568,-1.81961789443297,-2.2263700602004644,-0.8420091653071732,3.4916175719945657,12.528855872651539
-0.008216423584186134,-1.7847017187130243,-2.2347901518535362,-0.7167206065806577,3.684762230480817,12.489218706105136
-0.02606344077131638,-1.747854096408216,-2.241957357919343,-0.5918284195196064,3.8530491829778644,12.432194820943701
-0.04354198173539854,-1.7093236045784375,-2.247875642114539,-0.4675064713101694,3.996776671686839,12.35904763647719
-0.060635217781182915,-1.6693558378615692,-2.2525507068276407,-0.34391599494539754,4.116334177030092,12.271134273012597
-0.0773287761597986,-1.6281924960912681,-2.2559898667770946,-0.22120465221527158,4.212193697402992,12.169891336879267
-0.09361070112071129,-1.5860705591172382,-2.2582019132992475,-0.0995057388464789,4.284900056023266,12.05681997829851
-0.10947140671188367,-1.5432215585570055,-2.259196970687712,0.021062460936506197,4.335060369448125,11.933470509706854
-0.12490362229745372,-1.4998709548625242,-2.258986346078347,0.14039716603357474,4.363332861774503,11.801426930122481
-0.13990233184607898,-1.4562376262447791,-2.2575823744180115,0.25841143533479954,4.370415243444168,11.662291734178835
-0.15446470810852678,-1.4125334738103374,-2.2549982600646636,0.3750343526765879,4.357032892611406,11.517671392784496
-0.16859004284663015,-1.3689631448842234,-2.251247916537898,0.49021106660443287,4.3239270802503205,11.369162878121676
-0.18227967429547237,-1.3257238740817203,-2.2463458058718535,0.6039026953856497,4.27184346881069,11.21834157242892
-0.19553691303628956,-1.2830054393936134,-2.240306778917997,0.7160861111099389,4.201521090398715,11.06675085223889
-0.2083669674302257,-1.2409902284896264,-2.2331459178068975,0.8267536196323279,4.11368197686876,10.915893582426476
-0.22077686971512198,-1.1998534087209387,-2.224878381610574,0.9359125554565926,4.009021573848333,10.767225692529514
-0.23277540380233136,-1.1597631929824554,-2.2155192560560084,1.0435848123818876,3.8882000265664587,10.622151945916034
-0.2443730357321559,-1.1208811927167908,-2.2050834079321895,1.1498063318410479,3.751834380178501,10.48202395440362
-0.2555818476593238,-1.0833628489150058,-2.193585344613779,1.2546265713850842,3.6004916934604845,10.348140439962867
-0.26641547614847383,-1.047357931980401,-2.181039078899928,1.3581079757847128,3.4346830241914494,10.221749703310442
-0.27688905546827786,-1.0130111017384864,-2.167457999142081,1.4603254728178172,3.2548582086624753,10.104054227755698
-0.2870191664856627,-0.9804625196518617,-2.1528547444139026,1.5613660150953743,3.061401327484073,9.996217325995218
-0.2968237916821813,-0.949848506377021,-2.137241084262949,1.6613281883553266,2.8546267257566034,9.899371727289232
-0.3063222767459515,-0.921302239119455,-2.1206278023793956,1.7603219056282189,2.6347754379926442,9.814630001597768
-0.31553529913714606,-0.8949544847395285,-2.1030245833231134,1.8584682056441966,2.4020118570804603,9.743096724243589
-0.32448484398454136,-0.8709343661687239,-2.0844399012666712,1.9558991728866324,2.1564204822523623,9.685882297432368
-0.3331941876462286,-0.8493701613462002,-2.064880909537805,2.052757995860956,1.898002583939261,9.644118360880773
