th1 (rad),w1 (rad/s),th2 (rad),w2 (rad/s)
0.7753983978333606,-1.2814523482342435,5.791683766298819,-2.1947622413494816
0.7625838743510182,-1.3870248882931766,5.769736143885324,-2.1012508146746574
0.7487136254680864,-1.4898519185664771,5.748723635738577,-2.004833453497482
0.7338151062824216,-1.5899584887527844,5.7286753012036025,-1.9052322305285556
0.7179155213948938,-1.687379088745954,5.709622978898317,-1.8022007475851742
0.7010417305074342,-1.7821608975367287,5.6916009714224645,-1.6955228368286366
0.6832201215320669,-1.8743668170765981,5.674645743054178,-1.5850110008526097
0.6644764533613009,-1.9640782769857839,5.658795633045652,-1.4705045341117633
0.6448356705914431,-2.051397799975605,5.644090587704534,-1.3518672770714206
0.624321692591687,-2.1364513224242114,5.63057191493382,-1.2289849651100158
0.6029571793674449,-2.2193902695017433,5.6182820652827195,-1.1017621464676601
0.5807632766724274,-2.300393389166961,5.607264443818043,-0.9701186574410896
0.5577593427807578,-2.3796683535734604,5.597563257243632,-0.833985658859541
0.5339626592450232,-2.457453138924954,5.589223400655037,-0.6933012562864088
0.5093881278557736,-2.5340171941605782,5.582290388092173,-0.5480057485877878
0.4840479559141678,-2.6096624029636954,5.576810330606295,-0.3980365775607333
0.45795133188453085,-2.6847238294900624,5.572829964830688,-0.24332308859895851
0.43110409358963026,-2.7595702115650975,5.5703967339446985,-0.08378126424689267
0.40350839147397927,-2.834604119528022,5.56955892130223,0.08069133271797238
0.37516235027869904,-2.9102616249570668,5.57036583462941,0.2502200595582381
0.3460597340291284,-2.987011207148723,5.572868035224992,0.4249566245541717
0.31618962195764116,-3.0653514455748407,5.577117601470534,0.6050806863708073
0.28553610750189273,-3.145806772800296,5.5831684083342425,0.7907984826353635
0.25407803977388976,-3.2289201497085878,5.591076393160596,0.9823367818166429
0.2217888382768039,-3.3152409099199662,5.600899760978762,1.1799296073286965
0.18863642917760423,-3.405305117403386,5.6126990570520485,1.383793940008014
0.15458337800357036,-3.4996044851243946,5.626536996452129,1.594088818756345
0.11958733315232642,-3.59853810830183,5.642477884639692,1.8108497854507175
0.08360195206930812,-3.7023389341952466,5.660586382494198,2.033887409774817
0.04657856272735565,-3.810964212474678,5.680925256591947,2.2626349597833424
0.00846892060260887,-3.9239369323064874,5.70355160618978,2.495927271800258
-0.030770448720456006,-4.040125544193144,5.728510878907783,2.731693470725594
-0.07117170416238744,-4.157456627515466,5.755827813615039,2.9665567948629024
-0.1127462704375421,-4.27257782743377,5.785493381563668,3.1953669523034987
-0.1554720487118798,-4.380537733930804,5.817447051086703,3.410760134313893
-0.19927742605118784,-4.47463257629754,5.851554652429842,3.602958942373995
-0.24402375181416325,-4.546667385354516,5.887584241853582,3.7601615806289095
-0.2894904256677084,-4.587910059173044,5.925185857659871,3.8699114272715676
-0.33536952625943883,-4.590831575419525,5.963884971932587,3.921574540839492
-0.38127784201363407,-4.551235851542,6.003100717340982,3.9093598037780075
-0.4267902005290541,-4.469828722172539,6.0421943153787625,3.83453478702196
-0.47148848775077945,-4.352257728226173,6.080539663248982,3.705468199062682
-0.5150110650330412,-4.207484689931912,6.117594345239609,3.5353058195227103
-0.5570859119323603,-4.045389400051388,6.152947403434836,3.3385530693994654
-0.5975398059328743,-3.874772251201778,6.1863329341288305,3.1282193436122747
-0.636287528444892,-3.702346874535661,6.217615127564954,2.914364565153045
-0.6733109971902487,-3.5326194357613616,6.246758773216484,2.7039057427002287
-0.7086371915478623,-3.368253774585332,6.2737978306434865,2.5011183860999804
-0.7423197292937156,-3.2105745270855865,6.298809014504486,2.3083401929103333
-0.7744254745645714,-3.06002147976924,6.321892416433589,2.1266110252120503
-0.8050256893622638,-2.9164939187506613,6.343158526685709,1.9561605593403713
-0.8341906285497704,-2.7795872180987558,6.3627201322791125,1.7967451928845783
-0.861986500730758,-2.648745316705214,6.3806875842079585,1.6478666096295558
-0.8884739538978101,-2.5233543054406886,6.397166250304254,1.5089070767604784
-0.913707496952217,-2.4027972811871954,6.412255321071859,1.3792096921386137
-0.937735469764089,-2.286484738396323,6.426047417993245,1.2581236606707507
-0.9606003171480522,-2.1738699728683186,6.4386286545999525,1.1450279972502317
-0.9823390168767353,-2.064455552060524,6.4500789345724545,1.039342265305455
-1.0029835723973406,-1.9577946241962658,6.460472357225509,0.9405297514052127
-1.0225615186393033,-1.8534893720837708,6.469877654739561,0.848096405216278
-1.041096412360141,-1.7511879966690456,6.478358618791724,0.7615875664138346
-1.0586082923268314,-1.6505810457977073,6.485974494455862,0.6805836859022917
-1.0751141027848086,-1.551397555533686,6.492780331314885,0.6046957466138099
-1.0906280783401454,-1.4534012609612916,6.498827288781023,0.5335607820548478
-1.1051620909497584,-1.3563870078642954,6.504162896601571,0.466837704553439
-1.1187259610284013,-1.2601774231089193,6.508831273647105,0.4042035434983273
-1.1313277352594904,-1.1646198595783956,6.512873309082088,0.3453501279955223
-1.1429739338552742,-1.0695836085554766,6.516326810362043,0.28998121050877146
-1.153669769940829,-0.9749573608108338,6.51922662246713,0.23781000721809037
-1.1634193435489373,-0.8806468926076216,6.521604722539311,0.18855712025885377
-1.1722258124750136,-0.7865729515005729,6.5234902937419,0.14194880253079753
-1.1800915419900193,-0.6926693174559834,6.5249097817672075,0.09771552483685587
-1.187018235164579,-0.5988810164129461,6.525886937015576,0.05559080616293373
-1.1930070453287085,-0.5051626653439438,6.526442845077206,0.015310269989124603
-1.198058671982148,-0.4114769298162244,6.526595947777097,-0.023389107946570724
-1.2021734412803102,-0.3177930768262588,6.526362056697631,-0.06076959237667103
-1.205351372048573,-0.22408560719549722,6.525754360773864,-0.09709315113887185
-1.2075922281205278,-0.1303329530494074,6.524783429262476,-0.1326218148269847
-1.2088955576510219,-0.036516226856536646,6.523457211114206,-0.16761795856255687
-1.2092607199195873,0.05738199080185322,6.5217810315285805,-0.202344529325591
-1.2086869000115688,0.1513788371046239,6.5197575862353245,-0.23706524097933995
-1.2071731116405224,0.2454923386366344,6.517386933825531,-0.2720447581946182
-1.204718188254156,0.3397425808893116,6.514666486243585,-0.30754888992701357
-1.2013207624452629,0.4341528878263729,6.511590997344315,-0.3438448129230597
-1.196979233566999,0.5287510240201918,6.508152549215084,-0.3812013459196609
-1.1916917233267972,0.623570432317334,6.504340535755888,-0.4198892957376301
-1.1854560190036239,0.7186515205951719,6.5001416427985115,-0.46018189732653636
-1.178269503797672,0.8140430119137811,6.495539823825246,-0.5023553709486261
-1.1701290736785341,0.9098033732264008,6.49051627011576,-0.5466896210228758
-1.1610310399462702,1.006002338744049,6.4850493739055315,-0.5934691025745463
-1.1509710165588298,1.102722544973961,6.479114682879786,-0.642983882576843
-1.1399437911090902,1.2000612952225689,6.472684844054017,-0.6955309244582473
-1.1279431781568645,1.2981324717245775,6.465729534809435,-0.7514156242596306
-1.1149618534396188,1.3970686131203025,6.458215378566838,-0.8109536257023878
-1.1009911673084158,1.4970231730877275,6.4501058423098145,-0.8744729377503793
-1.0860209355775385,1.5981729714768156,6.441361112932311,-0.94231637052445
-1.0700392058627703,1.7007208405993204,6.431937949227066,-1.0148442911856228
-1.0530319974567772,1.8048984537312267,6.42178950631521,-1.0924376767950708
-1.034983012919465,1.9109692962035634,6.410865129547259,-1.175501400202576
-1.0158733199574295,2.019231695147219,6.399110115545233,-1.264467618406249
-0.9956810030059573,2.1300217518100055,6.386465439361171,-1.3597990261070076
-0.9743807854878572,2.2437159044992057,6.3728674491001005,-1.4619915679250657
-0.9519436264428651,2.360732666021182,6.35824753342085,-1.571575936287322
-0.9283362997826533,2.48153278914729,6.342531774057977,-1.6891167650963994
-0.9035209718911804,2.606616659572655,6.3256406064070125,-1.8152077811054386
-0.8774548052954538,2.7365170121659808,6.307488528595958,-1.9504601749942831
-0.850089635173794,2.8717839890099954,6.287983926846016,-2.0954799288243144
-0.8213717952836941,3.0129579379074563,6.267029127557772,-2.2508275499085917
-0.7912422159046195,3.1605229831289154,6.244520852058686,-2.416950328590377
-0.7596369860733304,3.314831104068039,6.220351348772782,-2.594072608572807
-0.72648867503265,3.4759822546872297,6.194410622687054,-2.782023675395029
-0.6917288524857778,3.643641635098426,6.166590385933104,-2.979976717270628
-0.6552924361347935,3.8167729448018175,6.136790618760398,-3.186069241219323
-0.6171247066867753,3.99327219030341,6.104929926348205,-3.396883664601102
-0.5771919847837412,4.16951234110243,6.070961089702194,-3.606803434156243
-0.5354968613727169,4.339873714982448,6.034893055360631,-3.8073516021985263
-0.4920981242228924,4.496455332769344,5.996819539338646,-3.986789118781106
-0.44713357089519895,4.629319192242213,5.956951648150835,-4.130471637096906
-0.4008403789727768,4.727691852531212,5.915646931779866,-4.222565918573836
-0.3535634604474647,4.782289760608951,5.873421272594128,-4.249362241475069
-0.3057405628413752,4.788184902401196,5.830927650179378,-4.2033590986115845
-0.25785871381736325,4.74678891045721,5.788894059193262,-4.086109405183492
-0.21039082471279114,4.665608092284942,5.748032965141427,-3.9079170390513527
-0.1637347437899417,4.555799775332447,5.708953794750913,-3.6844138676038276
-0.11817674603661724,4.429011082280402,5.672109656074875,-3.4320986866366656
-0.07388663521381322,4.29506705307731,5.637788669208509,-3.1650513417597415
-0.03093596468304012,4.1610526335389135,5.606138155790911,-2.893601724267241
0.010674561652349014,4.03143506188745,5.577202138548239,-2.6244672379619534
0.05098891227122351,3.9086443969524183,5.55095746616862,-2.36154444381212
0.0900753562407477,3.793709035095323,5.527342021730498,-2.1067876872863533
0.1280124465917009,3.6867727452104395,5.506274144857635,-1.8609283646152557
0.1648801740438053,3.587460320430005,5.487664861211482,-1.6239858895190418
0.20075477724810536,3.4951158748085103,5.471425002316292,-1.3956020092846948
0.23570593599619047,3.4089498458950196,5.457468982223445,-1.1752477089563445
0.26979543445514065,3.328125803697286,5.445716505133881,-0.9623455149307627
0.3030766924921135,3.251809541122657,5.436093049984573,-0.7563382610722216
0.3355947879033401,3.1791953675713844,5.4285296673738515,-0.5567250039127355
0.36738674157905393,3.1095190534594166,5.422962417334724,-0.36307722909919704
0.3984819321136481,3.042063231326589,5.419331645043732,-0.17504346601393692
0.428902564426914,2.9761587421555964,5.4175812103835925,0.007652767270159205
0.45866415184847,2.9111839781159747,5.4176577380562945,0.18521874280627357
0.4877759916296297,2.8465633943109507,5.419509925484357,0.3578002803428625
0.5162416255727392,2.781765830121495,5.423087928287786,0.5254904583398092
0.5440592838739542,2.7163029611636373,5.428342832871184,0.6883386787884795
0.5712223134855906,2.6497280127409137,5.435226219659069,0.8463597341273458
0.5977195936129998,2.5816347543879905,5.443689817000342,0.9995426662270797
0.6235359411568797,2.5116567320184426,5.453685243662613,1.1478592865130532
0.6486525084770641,2.439466660793174,5.4651638365277435,1.2912722693857885
0.6730471750849959,2.3647758869095803,5.478076559221601,1.4297427543187755
0.6966949339540917,2.2873338232452123,5.492373986764789,1.5632374050670976
0.7195682721865437,2.2069272679487613,5.50800636081546,1.6917348830598031
0.7416375448660314,2.1233795239741893,5.524923709646058,1.8152316995691566
0.7628713401057733,2.036549249430089,5.543076026641749,1.9337474194173174
0.7832368326000742,1.9463289822329153,5.562413500835922,2.0473291986110995
0.8027001224224033,1.8526432969968265,5.582886792822033,2.156055649617633
0.8212265553923715,1.755446566647061,5.604447349318209,2.2600400408842534
0.8387810210588421,1.654720315315931,5.627047749727052,2.3594328513373815
0.8553282242120014,1.5504701621664927,5.650642078240426,2.454423715531567
0.8708329258336663,1.4427223674555147,5.675186315395742,2.5452428103761595
0.8852601495082215,1.3315200020290112,5.700638743499503,2.6321617494441254
0.8985753495285116,1.216918769250106,5.726960360993945,2.7154940652705712
0.9107445372210127,1.0989825138932983,5.75411530164665,2.795595373291723
0.9217343623599457,0.977778455726086,5.7820712553795675,2.8728633226722873
0.9315121469172065,0.85337218642701,5.81079988860629,2.947737448705911
0.9400458687814767,0.7258224674711242,5.840277263093349,3.0206990481508633
0.9473040934561879,0.5951758642737484,5.870484253574858,3.0922712019958225
0.9532558520989254,0.46146124928740173,5.901406965594816,3.163019068593308
0.9578704645917994,0.3246842056056602,5.933037156280749,3.233550562057794
0.961117306647856,0.18482136561509246,5.965372661901327,3.304517513394226
0.962965520304007,0.04181473049992007,5.998417837035269,3.3766173802291024
0.9633836676090062,-0.1044339576142945,6.03218401083756,3.4505955174289307
0.9623393280328633,-0.2540686683353145,6.066689966011849,3.5272479325153387
0.9597986413495101,-0.4072841466414091,6.101962445337003,3.6074243058456696
0.955725799883096,-0.5643302168977373,6.13803668839546,3.6920308225008176
0.9500824977141187,-0.7255146953558969,6.174956996620469,3.7820319870075543
0.9428273507605597,-0.8912038518516422,6.212777316490544,3.8784499881715724
0.9339153122420433,-1.0618186723850032,6.251561816372259,3.982359215862607
0.9232971255181932,-1.237824077949465,6.291385408530886,4.094871999757949
0.9109188847386985,-1.4197065372088045,6.332334128528465,4.217109238831548
0.8967218193666104,-1.6079328769705645,6.37450522091678,4.350145900146284
0.8806424905969048,-1.8028791938912871,6.418006679918243,4.494915879570001
0.862613698657992,-2.0047133313879333,6.462955838713943,4.652053025171973
0.8425665653441127,-2.2132076405866967,6.509476368965663,4.821635500424763
0.8204344889382457,-2.427452517899378,6.55769272396991,5.002791577041211
0.7961599637592519,-2.6454412695638565,6.6077206397403225,5.193124342585612
0.7697055510636134,-2.8635169934590943,6.659651883166179,5.3879398652332995
0.7410703811290225,-3.07573851472626,6.713531281818511,5.579354605860544
0.7103129959817599,-3.273368821416415,6.769324827877117,5.75556101681864
0.6775793077675958,-3.4449193895036068,6.826880438045303,5.900851276065025
0.6431301138725597,-3.5773704674067788,6.8858889508059535,5.997262695957691
0.6073564091984919,-3.6589752119078875,6.94586157776553,6.028419528410705
0.570766657079413,-3.6830730958804416,7.006145773049638,5.98478561650217
0.5339359261206086,-3.6509870132191007,7.06599362921466,5.867667365084413
0.4974260559884176,-3.571921116393988,7.124670302865503,5.689088095169922
0.4617068448244777,-3.4597333544837,7.181561183817203,5.4673669870847315
0.4271095112796407,-3.3287149328792522,7.23623485368805,5.221352729132325
0.3938223619508482,-3.190640312059794,7.288448380979373,4.966424146532958
0.36191595883025024,-3.05376223716461,7.338112622444703,4.7131645742462265
0.33137833645860415,-2.92313997918376,7.385244268187165,4.467850449323717
0.30214693666676656,-2.801466074503259,7.429922772680402,4.233602727704813
0.27413227592173395,-2.6898809045259435,7.47225879995745,4.011505180043327
0.24723346687647452,-2.5885924313952415,7.512373851757883,3.8014463814253108
0.2213475425625221,-2.4972912510155236,7.550388315572136,3.6026776900985333
0.19637463005236686,-2.415408118041796,7.586415092473121,3.4141552226266545
0.1722205488719489,-2.3422652432324536,7.620556644699388,3.234737675814459
0.14879789643962438,-2.2771608487016404,7.652904021457532,3.0632945838162438
0.12602628795260798,-2.219413573122904,7.683536967295694,2.898761410934989
0.10383215222137894,-2.1683834762499523,7.712524581405044,2.7401641882218604
0.08214831745887942,-2.123479801564138,7.739926223287263,2.5866273211340056
0.06091351944323804,-2.0841615139120435,7.765792496498603,2.4373725360396605
0.04007190430411761,-2.0499341133960614,7.790166221859,2.291713524350203
0.019572563170156997,-2.0203447290248326,7.813083357102502,2.149048831008704
-0.0006308841200913309,-1.9949766153904227,7.834573845412589,2.0088543629150104
-0.020580650273995558,-1.9734436637275499,7.854662389041739,1.8706762192684308
-0.04031508691127106,-1.9553852443493887,7.873369151234423,1.7341241636002482
-0.05986893935476495,-1.9404615307347144,7.890710392870425,1.598865844514553
-0.0792735546621121,-1.9283493632323412,7.906699051315571,1.4646217573407745
-0.09855704829443551,-1.9187386610375103,7.921345268888979,1.3311608802995356
-0.11774443490481062,-1.9113293662690929,7.934656877691975,1.1982968921601136
-0.13685772856750156,-1.9058288927418834,7.946639846613576,1.0658848697231822
-0.1559160174949204,-1.901950047994292,7.957298695310808,0.9338183647719197
-0.1749355179748633,-1.899409396579674,7.966636878958527,0.8020267668475831
-0.19392961194066005,-1.8979260334349568,7.974657146627003,0.6704728677752942
-0.21290887227500963,-1.8972207371383532,7.9813618753047555,0.539150554881213
-0.23188107964639315,-1.8970154734783382,7.986753380853568,0.4080825715164539
-0.2508512343811765,-1.8970332197590223,7.990834206568732,0.277318295371531
-0.2698215665787667,-1.896998079667507,7.993607389522448,0.14693149681160375
-0.28879154737544177,-1.8966356574704273,7.995076704490564,0.017018050823652014
-0.307757903950146,-1.8956736590136893,7.9952468849988,-0.11230641311560327
-0.32671464054028293,-1.8938426857328974,7.994123820867644,-0.24090892913335982
-0.3456530673976119,-1.8908771869062964,7.991714731576311,-0.3686416782656282
-0.3645618392666749,-1.8865165349349708,7.988028314793654,-0.4953445270164774
-0.38342700461602464,-1.8805061887030794,7.983074869523489,-0.6208476056413901
-0.40223206650305543,-1.8725989111700874,7.976866393467075,-0.7449739068219716
-0.4209580556147563,-1.8625560093097384,7.969416654398856,-0.8675418834129979
-0.4395836157078537,-1.8501485672802787,7.960741235564726,-0.988368023710428
-0.4580851013806565,-1.8351586471444814,7.950857555327621,-1.107269384034976
-0.4764366878521013,-1.8173804353387084,7.939784861487271,-1.2240660610674072
-0.49461049220548836,-1.796621317143972,7.927544200876597,-1.3385835899365686
-0.5125767053769281,-1.7727028653341292,7.914158364977232,-1.4506552581151686
-0.5303037340302694,-1.7454617326600257,7.899651812396081,-1.5601243292610503
-0.5477583513568697,-1.7147504405944451,7.88405056910347,-1.6668461748063552
-0.5649058557628142,-1.680438058587926,7.867382107355406,-1.77069031395088
-0.5817102363486935,-1.642410768826859,7.849675204215898,-1.8715423644579041
-0.5981343440369621,-1.6005723110974592,7.830959780571319,-1.9693059071018089
-0.6141400671479367,-1.5548443009038275,7.8112667215003,-2.063904265741173
-0.6296885101569749,-1.50516641163374,7.790627678842888,-2.155282202905639
-0.6447401742733123,-1.451496408576978,7.769074856813832,-2.243407527755859
-0.6592551383590821,-1.3938100193196272,7.746640781536273,-2.328272609701988
-0.6731932385522784,-1.3321006218537308,7.723358055439253,-2.4098957873499707
-0.6865142447708157,-1.2663787290576172,7.699259097565753,-2.4883226593528245
-0.6991780320613918,-1.1966712463936497,7.674375870972225,-2.563627241760038
-0.7111447445253284,-1.123020479044369,7.648739598554625,-2.6359129761317237
-0.7223749493157721,-1.0454828654657131,7.622380468793308,-2.705313574481084
-0.7328297779704291,-0.9641274165394,7.595327333048497,-2.7719936913666405
-0.7424710521358231,-0.8790338430578045,7.567607396134831,-2.8361494203511324
-0.7512613905664012,-0.7902903589080109,7.53924590193132,-2.8980086215757375
-0.7591642941554813,-0.6979911526106453,7.510265815715563,-2.957831099189108
-0.7661442056815877,-0.602233525249171,7.480687504723672,-3.0159086614904087
-0.7721665409340794,-0.5031146976305909,7.450528418108768,-3.072565112452892
-0.7771976879103853,-0.40072829302797974,7.4198027669842395,-3.1281562402954943
-0.7812049708406651,-0.2951605033447764,7.388521204581284,-3.1830698864854394
