th1 (rad),w1 (rad/s),th2 (rad),w2 (rad/s)
5.711421450729004,-2.19220669447299,4.437413577659229,-0.5022712493663665
5.689499383784274,-2.1594964819879903,4.432390865165566,-0.3715623962585636
5.667904418964394,-2.1250656355884923,4.42867524120298,-0.2436445925494258
5.646653762608509,-2.089141408405218,4.426238795277486,-0.11855725110016449
5.625762348524457,-2.0519345357558127,4.4250532227664845,0.003679676837310311
5.605243003166899,-2.013639388917804,4.425090019534857,0.1230643869666265
5.585106609277721,-1.9744342710497154,4.426320663404524,0.23961174476237346
5.565362266567224,-1.9344818207303034,4.428716780852148,0.35335168784345866
5.546017448359921,-1.8939294895407262,4.432250297730582,0.46432754316028263
5.5270781534645135,-1.8529100615612382,4.436893573162185,0.5725942872263974
5.508549052848901,-1.8115421844012607,4.442619516034449,0.6782167706262194
5.490433631004888,-1.7699308832718053,4.449401683740711,0.7812679212362448
5.47273432217217,-1.72816803152314,4.457214362953073,0.8818269341529353
5.4554526418569385,-1.6863327529314112,4.466032632294603,0.9799774503461474
5.438589314327625,-1.644491732794629,4.475832406798064,1.075805720660413
5.422144396999679,-1.6026994166100805,4.486590464004668,1.1693987470781568
5.406117402833578,-1.5609980768265423,4.49828445147545,1.260842389270253
5.390507422065313,-1.5194177300331977,4.510892875368152,1.3502194215622167
5.375313244764981,-1.4779758891723738,4.5243950695837745,1.4376075237736605
5.360533485873257,-1.4366771382368055,4.538771144821511,1.5230771892651944
5.34616671449089,-1.3955125208184749,4.554001916714163,1.606689535379381
5.332211589282705,-1.3544587392998328,4.570068812067957,1.6884940058445501
5.318667001889707,-1.3134771690046687,4.586953752126402,1.7685259623079805
5.30553223019966,-1.2725127019265308,4.604639011749482,1.8468041737818508
5.292807103180395,-1.2314924484452672,4.623107053487301,1.9233282292946259
5.280492178695942,-1.190324343411487,4.642340335780247,1.9980759212827301
5.268588935261827,-1.1488957256388352,4.662321094993074,2.071000675861014
5.257099978005439,-1.107071987326604,4.683031101751684,2.1420291412117947
5.246029258132173,-1.0646954216887794,4.704451393163802,2.2110590861755655
5.2353823039152845,-1.0215844314688696,4.726561984025557,2.2779578055501126
5.225166459600596,-0.9775332949436244,4.749341562081058,2.342561272457222
5.215391126651159,-0.9323127144224146,4.77276717480563,2.4046743147393186
5.206067999506935,-0.8856713879688256,4.796813917953023,2.46407211222113
5.1972112856272465,-0.8373388390371651,4.821454639075235,2.5205033028322017
5.1888378972368745,-0.7870297008868792,4.846659672103557,2.5736949348225453
5.180967600228006,-0.7344495739046112,4.872396621451782,2.6233593977524428
5.17362310448896,-0.6793024491014401,4.898630215429306,2.6692033000563256
5.166830079997945,-0.6212995223769244,4.925322248429869,2.710938039452355
5.160617084774176,-0.5601690249637914,4.952431628824392,2.748291552783552
5.155015394524538,-0.49566649185285283,4.979914544352228,2.7810204695514034
5.15005872960601,-0.4275847190936957,5.007724749047743,2.8089216785113695
5.145782882415073,-0.35576256461114325,5.0358139658328565,2.8318422051327365
5.1422252567689615,-0.28009176174089967,5.064132387884184,2.849686336754663
5.139424339151552,-0.20052105819801538,5.092629251251731,2.862419143983205
5.137419128569572,-0.11705725617225853,5.121253442691563,2.8700659155673773
5.13624855600785,-0.02976307242030697,5.149954101847237,2.8727074938260575
5.135950925283646,0.06124790084832378,5.178681176785497,2.870471983785769
5.136563404292129,0.15581854056003097,5.2073858966233555,2.8635237197199017
5.13812158969773,0.25375704057946313,5.236021133820555,2.852050634465233
5.1406591601035245,0.35484638501682214,5.264541640165207,2.8362512541495515
5.144207623953693,0.4588536238268455,5.292904152706703,2.8163224420028947
5.148796160191961,0.5655382820954926,5.321067377126733,2.7924487838198777
5.154451543012916,0.6746594446503679,5.3489918649649315,2.764794207210663
5.16119813745942,0.7859812779693129,5.376639807037038,2.733496119740168
5.169057950239113,0.8992769457080215,5.4039747682344395,2.6986620858609793
5.178050719696193,1.0143310209463259,5.430961389093049,2.6603688669083443
5.188194029905657,1.1309405902987344,5.4575650777621325,2.618663530008782
5.199503435808644,1.2489152861343544,5.483751713062221,2.573566283364306
5.211992588669988,1.368076483395768,5.509487375895864,2.52507470161304
5.225673353503946,1.488255869099313,5.534738122911994,2.4731690480794386
5.240555912194939,1.6092935469399168,5.559469813392789,2.4178184645712286
5.256648847664338,1.7310357855904766,5.583647998038501,2.3589878713991577
5.273959205520243,1.853332463641208,5.607237876752492,2.2966454919287567
5.292492530156655,1.9760342106381017,5.63020433167178,2.2307709820863795
5.312252872263036,2.0989891946140635,5.652512041492644,2.1613642030823694
5.333242764209176,2.222039463225952,5.674125683523467,2.0884547236193547
5.355463158841435,2.345016709396789,5.695010230759661,2.0121121744677684
5.378913325935403,2.4677373052020024,5.715131352504339,1.9324576008303702
5.403590698987423,2.5899964331033893,5.734455928512642,1.8496759614596858
5.4294906633184565,2.7115611472680436,5.752952688127239,1.7640298997630246
5.456606274791137,2.8321622283951005,5.77059298712487,1.6758748484443742
5.484927897075088,2.9514847656508905,5.787351735609313,1.5856754076939847
5.514442744731597,3.0691575252241146,5.803208489686253,1.494022734376627
5.5451343199838385,3.184741365761521,5.818148717030019,1.4016523692331362
5.576981733641453,3.2977172554895673,5.83216524072235,1.3094614849236168
5.609958906196349,3.4074748465363536,5.8452598555715864,1.2185239446235145
5.644033654661713,3.5133030632888484,5.857445095017821,1.130100831137675
5.679166685294601,3.614384723185865,5.868746103329198,1.045643304639008
5.71531053252646,3.7097977343287796,5.879202536375589,0.9667839197312572
5.752408509869748,3.7985257359202005,5.8888703755729015,0.8953121328356266
5.7903937672289505,3.879480923251391,5.897823496901258,0.8331300171064023
5.829188576461465,3.9515409535317567,5.906154797072322,0.7821855781087581
5.868703985996782,4.013600051318093,5.9139766528534095,0.7443838338197838
5.908839986509963,4.064631730818062,5.921420491191607,0.7214799642871123
5.949486303818143,4.103757316473042,5.928635290834478,0.7149637615606792
5.9905238769828735,4.130311506112736,5.935784928450085,0.7259490757451278
6.031826992044,4.143894696253442,5.943044419207536,0.7550842985943721
6.073265939006535,4.144402642016556,5.950595262193479,0.80249870610766
6.114709965426701,4.132027526775107,5.9586202492545555,0.867794266890787
6.156030240694452,4.107229913926603,5.967298191923463,0.9500844014034358
6.197102539833718,4.070686737437167,5.976799035937498,1.048072512483534
6.23780940720809,4.023224677811645,5.987279761062333,1.160156554271697
6.2780416539862065,3.9657498179033177,5.9988813266050505,1.2845432221249609
6.31769915216524,3.8991833078398774,6.0117267588263,1.41935671580738
6.356690985243638,3.8244097539057598,6.025920325984374,1.562731245648935
6.394935082782696,3.7422414305995595,6.041547638440863,1.7128817040593751
6.432357497088692,3.6533982607014908,6.058676455481457,1.8681516307848685
6.468891479695706,3.5585013859064394,6.077357971789306,2.027040873401554
6.504476493554771,3.4580771408577218,6.097628380523322,2.1882170143456974
6.539057264963348,3.352568116042363,6.119510550666779,2.350514999939093
6.572582946123771,3.2423484135346285,6.14301570066617,2.5129289372351384
6.605006430259118,3.1277408612327253,6.168144990038521,2.6745991598763807
6.636283838871445,3.0090346461015294,6.194890981637285,2.8347967176055144
6.66637418533246,2.8865024399833796,6.22323894881334,2.992906593922041
6.695239209732294,2.760416578311346,6.253168014752561,3.148410277405262
6.722843375515407,2.631064209666572,6.284652117526613,3.300867815759992
6.7491540176120735,2.4987615777954444,6.317660795684213,3.4498991490734747
6.774141633390028,2.3638677452315147,6.352159787174948,3.595164324461184
6.7977803108423425,2.2267981303455042,6.38811143041956,3.7363421193887194
6.820048292145797,2.0880382074891304,6.425474851613447,3.873106641212414
6.840928674220689,1.9481575994167073,6.464205918025571,4.005101640255366
6.860410250214856,1.8078245451765549,6.504256934428125,4.13191260730073
6.8784884956666215,1.6678203170738493,6.545576060501133,4.253037275121227
6.89516669883736,1.5290525466298186,6.588106433252345,4.367855965559822
6.910457224303658,1.3925655774928425,6.631784992907943,4.475604358924892
6.9243828800785865,1.2595449191527326,6.676541036497192,4.575352687734993
6.936978329270114,1.1313117576211804,6.722294563374542,4.665996914141996
6.948291446846326,1.009302581220587,6.768954532515962,4.746268759943472
6.958384472658532,0.8950288022679095,6.8164172201153965,4.814771854789695
6.9673347606812115,0.7900124702182689,6.864564938663293,4.870049843819628
6.9752348853833945,0.6956974204850787,6.91326543710149,4.91068816172779
6.982191859588245,0.6133406863272619,6.962372318718768,4.935444018528625
6.988325266451518,0.543895951084064,7.011726758904055,4.9433899238474215
6.993764225962359,0.4879071880236058,7.061160658142529,4.934047495200467
6.9986432978425945,0.4454334901242482,7.110501133094534,4.907484262255121
7.003097632743837,0.4160229346162449,7.159575975717085,4.864350050175226
7.0072578620899995,0.39874383711629746,7.208219476218837,4.805841765337288
7.011245300461162,0.39226867860889136,7.25627789387221,4.733602385889996
7.015167987247251,0.3949941547119797,7.30361391773111,4.649575299466194
7.019117928794371,0.4051745496196104,7.3501096707257725,4.555843104462811
7.023169674290567,0.4210465448720928,7.395668101770401,4.454478595509488
7.027380139739288,0.4409299797443363,7.440212887725496,4.347427154512763
7.031789439536731,0.4632975760779552,7.483687159270623,4.236428702453621
7.036422415297511,0.48681408395999937,7.52605144629516,4.122977844121255
7.041290556137111,0.5103500356644621,7.567281224736372,4.008314961610234
7.046394056493755,0.5329771837863635,7.607364374352475,3.8934388622184692
7.051723828331618,0.5539525122969752,7.646298762974659,3.779132089991628
7.057263353454588,0.5726964235822336,7.684090083874575,3.6659918587494396
7.06299031769041,0.5887690979689532,7.720750002462069,3.55446174380436
7.0688780086701,0.6018475537357975,7.756294619900113,3.4448612006103527
7.074896484207458,0.6117047954543493,7.790743231906217,3.3374114379294157
7.081013532162001,0.618191649713205,7.824117346285511,3.2322571525210644
7.087195448659133,0.6212213940016094,7.856439917810722,3.1294842200699593
7.09340766259915,0.6207570086111334,7.887734760011421,3.0291337441402413
7.099615232685261,0.6168007506930333,7.918026097452823,2.931212989868911
7.105783240192191,0.6093857080435394,7.947338227351512,2.835703746281443
7.111877097272626,0.5985689985910646,7.975695264814327,2.742568621253777
7.117862787258537,0.5844263145880181,8.003120951026865,2.651755708157543
7.123707050404417,0.5670475528871317,8.029638508108441,2.563201991681426
7.129377525933289,0.5465333158725995,8.055270528025256,2.476835792076642
7.134842859092015,0.5229921073272256,8.080038885946022,2.39257848664806
7.140072780165288,0.49653808197412286,8.103964670812504,2.31034569616379
7.145038160985029,0.46728923626293334,8.127068127774141,2.230048081822347
7.149711053347659,0.4353659515178568,8.149368608592365,2.1515918645751495
7.154064712862837,0.400889819480691,8.170884527238117,2.074879151758233
7.158073611057644,0.3639826953065495,8.191633318755699,1.999808134931534
7.16171343801071,0.3247659349148998,8.211631400105015,1.9262732064559502
7.164961097359859,0.2833597828960218,8.230894132169574,1.854165029711232
7.167794695188819,0.23988288445771627,8.249435782466687,1.7833705881865296
7.1701935240333965,0.19445190060777576,8.267269488348552,1.7137732313235219
7.1721380430394746,0.1471812102563349,8.284407220661787,1.6452527294514978
7.173609855142038,0.0981826864665693,8.300859747956302,1.5776853460233884
7.174591682006704,0.047565536898788854,8.316636601416537,1.5109439323271443
7.175067337375692,-0.004563799251368267,8.331746040739809,1.4448980476628455
7.175021699383178,-0.0581017036977695,8.346195021216436,1.3794141064519332
7.174440682346201,-0.11294738528367584,8.359989162280955,1.3143555527330568
7.173311208493364,-0.1690028431483174,8.373132717808286,1.249583061884437
7.171621180061881,-0.22617278900233645,8.38562854842713,1.1849547691061133
7.169359452171857,-0.2843645298362326,8.39747809611819,1.1203265241272085
7.166515806873495,-0.34348781169064224,8.408681361359463,1.0555521717184193
7.163080928756588,-0.40345462454435155,8.419236883076646,0.9904838578443638
7.159046382511145,-0.46417896791132923,8.429141721655089,0.9249723616482042
7.154404592832031,-0.5255765763726079,8.438391445271572,0.8588674538918122
7.149148827068305,-0.5875646039972009,8.44698011981049,0.7920182829520583
7.1432731810283325,-0.6500612664261566,8.454900302640011,0.7242737899732079
7.136772568364071,-0.712985439305635,8.462143040539743,0.6554831552734773
7.129642713971014,-0.7762562117610788,8.468697872092479,0.5854962785771194
7.121880151853404,-0.8397923937096861,8.47455283487825,0.5141642960677336
7.113482227916307,-0.9035119760188534,8.479694477838926,0.4413401376082156
7.104447108156118,-0.9673315428421407,8.484107879215008,0.3668791277204151
7.094773792727697,-1.0311656359112071,8.487776670492213,0.29063963403364446
7.084462136368585,-1.0949260711430098,8.490683066832549,0.21248376686395784
7.073512875657155,-1.1585212086481838,8.492807904501188,0.13227813334187868
7.061927663570673,-1.221855178111223,8.494130685834607,0.04989464902952351
7.049709111789561,-1.2848270625679177,8.494629632324902,-0.034788590777709266
7.0368608411638816,-1.3473300448413394,8.494281746417125,-0.12188637892135668
7.0233875407154684,-1.4092505223230716,8.49306288262791,-0.21150540367180765
7.009295035492237,-1.470467197406127,8.490947828591192,-0.30374319745998635
6.994590363518176,-1.5308501526894076,8.487910396616593,-0.39868703123884486
6.979281861991282,-1.5902599220724458,8.483923526304205,-0.49641276126224887
6.963379262770558,-1.648546571025712,8.478959398691583,-0.5969836381041829
6.946893797060301,-1.7055488016259903,8.472989562310541,-0.7004490912138721
6.92983830904404,-1.7610931003436752,8.465985071398404,-0.8068435061958751
6.912227378040604,-1.8149929489976315,8.457916636336444,-0.9161850162823801
6.894077448550627,-1.8670481216723744,8.44875478617362,-1.0284743340687923
6.8754069673339036,-1.9170440926191648,8.438470042832932,-1.1436936544280392
6.856236526407712,-1.9647515821117452,8.427033106288652,-1.2618056644899036
6.836589010586595,-2.0099262687499,8.414415049643754,-1.382752701524592
6.816489747899095,-2.052308697627882,8.400587522628507,-1.5064561043290903
6.795966660922817,-2.09162441391695,8.385522961585217,-1.6328158080749924
6.775050416783647,-2.127584350541318,8.369194803504467,-1.761710236304809
6.753774573278234,-2.159885496532398,8.35157770114142,-1.8929965466062446
6.732175718312909,-2.1882118691013708,8.332647735675357,-2.0265112881834373
6.710293599621895,-2.21223580725587,8.312382622793523,-2.1620715298121795
6.688171241549337,-2.231619597704734,8.290761907495401,-2.299476515258023
6.66585504557229,-2.2460174346845427,8.267767142342821,-2.438509899930356
6.6433948712254445,-2.2550777040991217,8.243382043343518,-2.578942617176787
6.620844094184453,-2.2584455689635052,8.21759261717175,-2.7205364151087332
6.5982596384948184,-2.2557658176645443,8.190387253020663,-2.863048095222995
6.575701980318173,-2.246685919195187,8.161756772068433,-3.0062344725236714
6.553235121126221,-2.2308592106399,8.131694427343197,-3.1498580637104014
6.530926529019822,-2.207948122300541,8.100195846706093,-3.2936934958455835
6.5088470477968166,-2.1776273256442,8.067258911747638,-3.4375346135336105
6.487070774540374,-2.139586669586795,8.032883565612302,-3.581202249057582
6.465674907844506,-2.093533752513832,7.997071543121726,-3.72455260835114
6.444739570319368,-2.0391959620265623,7.959826017038215,-3.8674862175172007
6.424347610699102,-1.9763218029271605,7.921151154863043,-4.009957371275648
6.404584392669831,-1.9046813277306203,7.881051581150287,-4.151984027547644
6.385537579392524,-1.824065484404974,7.83953174087481,-4.293658102313344
6.367296924548475,-1.7342842046584717,7.796595159851677,-4.4351561361069685
6.34995408250189,-1.6351630748942498,7.752243598490607,-4.5767503269018315
6.333602451752948,-1.52653846386152,7.706476095221589,-4.718819950330375
6.318337067114332,-1.4082510308982377,7.659287895718285,-4.861863210178486
6.30425455680535,-1.28013761503683,7.610669263616501,-5.006509566896416
6.291453180654981,-1.142021623473287,7.560604167947536,-5.153532556520358
6.280032964420249,-0.9937022254042516,7.509068842382333,-5.303862997128792
6.270095942166206,-0.8349429625515657,7.456030212411045,-5.458602216311842
6.26174651254069,-0.6654608958151496,7.401444190247927,-5.619034403361809
6.255091903582539,-0.48491826582796793,7.345253846214309,-5.786636191420272
6.250242720924259,-0.2929201068072677,7.2873874843001065,-5.9630797599206105
6.247313519856187,-0.08902374674250849,7.2277566867009,-6.1502225242494
6.246423282388761,0.12722963673942145,7.166254461458406,-6.350070857579806
6.247695578756155,0.3562441250015722,7.102753752882608,-6.564695673728574
6.251258020006171,0.598229904751918,7.037106796145322,-6.796061704284108
6.2572403190536905,0.8529487253962238,6.969146179102481,-7.045706933340587
6.265769806307652,1.1192709922389106,6.898689109769075,-7.314171954937486
6.276962516230041,1.394442397800577,6.8255473902197,-7.600036196574589
6.290906940208047,1.672948007037766,6.7495470282539545,-7.898398579779823
6.307636420278425,1.9449384320996534,6.670563042456156,-8.198735840190267
6.327085804599421,2.1944942066664095,6.588575684054254,-8.48248599612643
6.349030746666085,2.398743935674499,6.5037508240929895,-8.721707478916084
6.37301818602283,2.529902195533259,6.416533749303829,-8.881606673878048
6.398317207978162,2.5623714759930007,6.327717682565049,-8.929858963160582
6.423940922738092,2.4837276528441814,6.238419092933443,-8.851142244118009
6.448778199266534,2.3023956681585878,6.149907670492262,-8.657157145580479
6.47180215594812,2.044418466922894,6.063336099036458,-8.381985192831861
6.492246340617348,1.7415389235550933,5.97951624710814,-8.06604946542105
6.509661729852899,1.4204629047255675,5.898855752453929,-7.742078384444333
6.523866358900155,1.098880355651013,5.821434968609485,-7.430326401016272
6.534855162456665,0.7865539168763283,5.747131704599322,-7.14047372406178
6.542720701625429,0.48796511571191276,5.675726967358704,-6.875393060712826
6.547600352782548,0.2046038100542421,5.606973036751576,-6.634271905151073
6.54964639088309,-0.06353328245983741,5.5406303177000655,-6.414592864153703
6.549011058058492,-0.31708680470958767,5.476484389058529,-6.213227439330621
6.545840190011396,-0.5568868208430695,5.414352114665222,-6.026985474836404
6.540271321802965,-0.7837367321457565,5.354082259916858,-5.8528659382546
6.532433954481508,-0.9983213981787167,5.295553600534312,-5.688154943720871
6.522450740499721,-1.2011791463751194,5.238672051097104,-5.530450348631358
6.51043894903597,-1.3927053248533257,5.18336754761079,-5.3776538642542615
6.496511895787437,-1.5731704696101823,5.129591008968248,-5.2279509137266205
6.480780191091335,-1.742744360815549,5.077311499830982,-5.079787697918196
6.46335274748318,-1.9015215204758351,5.0265136228518,-4.931849465445085
6.444337532278421,-2.049545902066814,4.977195128197349,-4.78304128868598
6.423842073257753,-2.1868336390768994,4.929364715310489,-4.632471380957582
6.401973736866984,-2.3133932824476364,4.8830400015009126,-4.479436453852768
6.378839804042508,-2.429243244069039,4.838245636962385,-4.323408448222891
6.354547371601818,-2.534426318670461,4.7950115524801555,-4.164021991335316
6.329203108415113,-2.6290212525645806,4.753371332566802,-4.001062039265651
6.302912895889468,-2.7131513998732784,4.713360712174145,-3.834451305931392
