th1 (rad),w1 (rad/s),th2 (rad),w2 (rad/s),a1 (rad/s^2),a2 (rad/s^2)
0.9551638786186606,-1.8277861977638532,5.042810282607527,-2.1392538314397185,-7.664389552069,7.496833614518503
0.936886016641022,-1.9044300932845433,5.02141774429313,-2.0642854952945333,-7.270665685851392,8.000061386549811
0.9178417157081765,-1.9771367501430572,5.000774889340184,-1.9842848814290353,-6.870341165889154,8.51058581406757
0.8980703482067459,-2.045840161801949,4.980932040525894,-1.8991790232883596,-6.465745746804887,9.02509670968922
0.8776119465887264,-2.1104976192699976,4.961940250293011,-1.8089280561914673,-6.059374352286594,9.540280651169843
0.8565069703960264,-2.1710913627928634,4.943850969731096,-1.7135252496797688,-5.6538720037684325,10.05284507752929
0.8347960567680978,-2.2276300828305478,4.926715717234298,-1.612996798904476,-5.252016744477905,10.559546549331337
0.8125197559397923,-2.2801502502753266,4.910585749245254,-1.5074013334111627,-4.856699891755721,11.057224046258305
0.789718253437039,-2.328717249192884,4.895511735911142,-1.3968290929485796,-4.470903082941558,11.542837928247163
0.7664310809451103,-2.3734262800222994,4.881543444981656,-1.281400713666108,-4.097671809730899,12.013514815945939
0.7426968181448873,-2.4144029981196082,4.868729437844995,-1.1612655655066486,-3.740085452873913,12.46659817775633
0.7185527881636912,-2.4518038526483474,4.857116782189928,-1.0365995837290853,-3.401224213131289,12.899703883881019
0.6940347496372077,-2.4858160947796604,4.846750786352637,-0.9076025448902751,-3.084133755820793,13.31077945382936
0.6691765886894111,-2.516657432337868,4.8376747609037345,-0.7744947503519816,-2.7917888082102045,13.698165241404796
0.6440100143660324,-2.54457532041997,4.829929813400215,-0.6375130979379335,-2.52705733090973,14.060655430560983
0.6185642611618327,-2.5698458937290676,4.823554682420835,-0.49690654363232367,-2.2926671866157404,14.397556511634962
0.592865802224542,-2.592772565595225,4.818585616984512,-0.35293097851597405,-2.091177418253863,14.708740912867952
0.5669380765685897,-2.6136843397777634,4.815056307199352,-0.2058435693872945,-1.9249563006551824,14.994693700573084
0.5408012331708121,-2.6329339027843153,4.8129978715054795,-0.05589663238156367,-1.7961682368019365,15.256550733468092
0.5144718941429689,-2.650895585152335,4.812438905181664,0.09666887495311727,-1.70677133945587,15.496127338661033
0.48796293829144555,-2.6679632985468933,4.813405593931195,0.25163014833972763,-1.6585271961267867,15.715937422024375
0.4612833053059766,-2.684548570508161,4.815921895414593,0.40878952255997136,-1.653023898085457,15.919203870193444
0.434437819600895,-2.7010788094890157,4.820009790640192,0.5679815612619058,-1.6917129694509974,16.109862071178394
0.40742703150600484,-2.7179959391835258,4.825689606252811,0.7290801819736897,-1.7759604092092902,16.29255929997901
0.3802470721141696,-2.735755543275619,4.832980408072548,0.8920057749734799,-1.9071117003026052,16.47265351469385
0.3528895166814134,-2.754826660278645,4.841900465822283,1.0567323101204185,-2.0865703741577333,16.6562157270814
0.3253412500786269,-2.7756923640202222,4.852467788923487,1.2232944673912325,-2.315889551129726,16.85004049687157
0.2975843264384247,-2.7988512595315194,4.8647007335974,1.3917948723599483,-2.5968757780960607,17.061669196580304
0.2695958138431095,-2.82482001731248,4.878618682320999,1.5624115643257512,-2.9317043757516426,17.299430424037954
0.2413476136699847,-2.8541370610699963,4.894242797964257,1.7354058685661307,-3.323045239373737,17.572501160046905
0.21280624305928472,-2.8873675134637335,4.9115968566499175,1.9111308801665996,-3.7741973431863896,17.890990703247887
0.18393256792464738,-2.9251094868955976,4.930708165451583,2.0900407871990785,-4.289228626355584,18.26604654106217
0.1546814730556914,-2.9680017731591533,4.951608573323574,2.2727012526097004,-4.873114711131188,18.70997616800297
0.12500145532409987,-3.0167329202704654,4.974335585849671,2.45980101428973,-5.531863679698236,19.236369687798067
0.09483412612139522,-3.072051557067448,4.998933595992568,2.6521647111677105,-6.272602583028336,19.860191694597482
0.06411361055072073,-3.134777582897731,5.025455243104245,2.850766628113685,-7.1035803934052115,20.597781843497135
0.03276583472174342,-3.205813386831783,5.053962909385382,3.0567444465486564,-8.034004603619778,21.46665184249117
0.0007077008534255927,-3.2861534328679807,5.084530353850869,3.271410964973568,-9.073562186549115,22.48487507851587
-0.03215383347525422,-3.376889054733472,5.1172444635006045,3.4962597157587267,-10.231358797722097,23.669703978273493
-0.06592272402258895,-3.4792026427106926,5.152207060658192,3.7329567555414616,-11.513807291087756,25.034769681393897
-0.10071475044969588,-3.5943407156215703,5.189536628213607,3.9833044523554006,-12.920651858454589,26.58474010557201
-0.1366581576059116,-3.723547234206116,5.229369672737161,4.249151853411121,-14.437750771838367,28.305527727212606
-0.17389362994797275,-3.8679247419245,5.271861191271272,4.532207130683247,-16.02439090799771,30.146949408369412
-0.21257287736721775,-4.028168651004477,5.317183262578104,4.833676624766941,-17.591844792361837,31.993243745577622
-0.2528545638772625,-4.204087098928095,5.365520028825774,5.153609062222717,-18.969251595133752,33.61593636955399
-0.29489543486654346,-4.393779614879433,5.417056119448001,5.489768425918257,-19.855047256822417,34.606461338624506
-0.3388332310153378,-4.592330087447658,5.4719538037071835,5.835833039304502,-19.763279059626853,34.30133662919347
-0.3847565318898144,-4.7899628780439265,5.530312134100228,6.1788464055964365,-18.005624731737136,31.75651403573575
-0.4326561606702537,-4.970019125361298,5.592100598156192,6.496411545953794,-13.80765929272312,25.908054518049337
-0.48235635192386667,-5.10809571828853,5.65706471361573,6.755492091134288,-6.692487456061919,16.104581846403143
-0.5334373091067519,-5.175020592849148,5.724619634527073,6.916537909598319,2.897971357425987,2.9695413770545445
-0.5851875150352434,-5.146040879274889,5.793785013623056,6.9462333233688645,13.25490706062441,-11.119932863822
-0.6366479238279923,-5.013491808668644,5.8632473468567445,6.835033994730645,22.053829370618683,-22.946987975884888
-0.6867828419146788,-4.792953514962457,5.931597686804051,6.605564114971796,27.729324545630817,-30.367923318810057
-0.7347123770643034,-4.515660269506149,5.997653327953769,6.301884881783695,30.182639755715826,-33.28268771317035
-0.7798689797593649,-4.213833871948991,6.060672176771606,5.969058004651992,30.28944073460372,-32.9347981176645
-0.8220073184788548,-3.9109394646029543,6.120362756818126,5.639710023475347,29.079111138048052,-30.76622191193137
-0.8611167131248844,-3.620148353222474,6.176759857052879,5.3320478043560335,27.309973738042874,-27.831937945695344
-0.8973181966571091,-3.347048615842045,6.2300803350964395,5.05372842489908,25.423786958205692,-24.74280386803214
-0.9307886828155295,-3.092810746259988,6.28061761934543,4.8063003862187585,23.638469310786743,-21.79809770684411
-0.9617167902781294,-2.856426053152121,6.328680623207618,4.588319409150317,22.042922540240898,-19.11877978686593
-0.9902810508096506,-2.635996827749712,6.374563817299121,4.397131611281658,20.660009785224364,-16.735351787638173
-1.0166410190871478,-2.4293967298974684,6.418535133411938,4.229778093405276,19.48199408066786,-14.637007105714773
-1.0409349863861224,-2.2345767890907897,6.460832914345991,4.083408022348128,18.48880094339113,-12.796804893188144
-1.0632807542770302,-2.0496887796568783,6.501666994569472,3.955439973416247,17.65684962571329,-11.18374987461227
-1.083777642073599,-1.8731202833997456,6.541221394303634,3.8436024746701243,16.963028924488874,-9.768166733842316
-1.1025088449075964,-1.703489994154857,6.579657419050336,3.745920807331701,16.386276611404437,-8.52378440948916
-1.119543744849145,-1.5396272280408125,6.617116627123653,3.6606829632368094,15.908023941360598,-7.428272979019892
-1.1349400171295532,-1.3805469886272066,6.653723456756021,3.5864002334466103,15.51213459683598,-6.463097140281598
-1.1487454870158251,-1.2254256426588468,6.689587459090487,3.521769262043794,15.184644676786942,-5.613103730361829
-1.1609997434424135,-1.0735791958909773,6.724805151710925,3.465638224740176,14.913448520817914,-4.866037990400568
-1.1717355354013232,-0.9244447106827981,6.759461533958326,3.4169778448361705,14.6879951499691,-4.2120738927830415
-1.1809799825081513,-0.7775647591831071,6.7936313124066885,3.3748571059083403,14.499021205922551,-3.643391191314805
-1.1887556300999824,-0.6325745471238815,6.827379883465772,3.338423193995192,14.338327865256314,-3.153807378450897
-1.1950813755712213,-0.48919126847131833,6.860764115405724,3.306885120210683,14.198600916719215,-2.7384621193505354
-1.1999732882559344,-0.34720525930412616,6.893832966607831,3.279500499017178,14.073269809401635,-2.3935478247021322
-1.2034453408489756,-0.2064725612101098,6.926627971598003,3.2555650207701565,13.956400405772566,-2.1160792584119212
-1.2055100664610767,-0.06690855715238411,6.959183621805704,3.2344042281860372,13.842616118247506,-1.9036956876818893
-1.2061791520326006,0.07151760403009094,6.991527664087564,3.2153672713092183,13.727042448292707,-1.7544902076530966
-1.2054639759922998,0.208788028513018,7.0236813368006565,3.1978223692326875,13.605270396212138,-1.6668620951809334
-1.2033760957071697,0.34484073247513936,7.055659560492983,3.1811537482808783,13.473334650104874,-1.6393891722833986
-1.1999276883824184,0.4795740789761881,7.087471097975792,3.164759856558044,13.3277028602935,-1.6707181030253622
-1.1951319475926565,0.6128511075791231,7.119118696541372,3.1480526755277904,13.165272666676263,-1.7594712738786331
-1.1890034365168654,0.7445038342458857,7.15059922329665,3.130457962789004,12.983373492875675,-1.90416940878405
-1.1815583981744064,0.8743375691746424,7.18190380292454,3.1114162687011633,12.779770477696113,-2.1031693529726625
-1.1728150224826601,1.0021352739516036,7.213017965611552,3.0903845751714365,12.55266830166134,-2.3546165417981872
-1.162793669743144,1.127661956968217,7.243921811363267,3.0668384097534545,12.300713095645833,-2.6564115802487667
-1.151517050173462,1.2506690879246753,7.274590195460801,3.040274293950967,12.022991089802849,-3.006190133270243
-1.1390103592942151,1.3708989988227038,7.304992938400311,3.0102123926182642,11.719023162079127,-3.4013150134964083
-1.1253013693059881,1.4880892304434952,7.335095062326493,2.9761992424833004,11.388754953589395,-3.838879005349964
-1.110420477001553,1.6019767799793891,7.364857054751326,2.9378104524298005,11.032542701647836,-4.315716639913445
-1.0944007092017591,1.7123022069958675,7.394235159275624,2.894653286030666,10.651135364501787,-4.828422888960306
-1.0772776871318004,1.8188135606408855,7.42318169213593,2.846369057141063,10.245653939241286,-5.373376627281411
-1.0590895515253915,1.9212701000332983,7.4516453827073414,2.7926352908682492,9.81756907568899,-5.946766755313766
-1.0398768505250586,2.019445790790188,7.479571735616024,2.7331676233151114,9.36867814386928,-6.544619097015088
-1.0196823926171568,2.113132572228881,7.5069034118491755,2.6677214323449605,8.901082813858798,-7.162822588402295
-0.998551066894868,2.202143400367469,7.5335806261726255,2.5960932064609374,8.417167962798057,-7.797153826270642
-0.9765296328911932,2.2863150799954495,7.5595415582372345,2.518121668198231,7.9195823586657434,-8.44329971034586
-0.9536664820912387,2.365510903582107,7.584722774919217,2.4336886710947723,7.411221122379716,-9.096878624897375
-0.9300113730554177,2.439623114805904,7.609059661630165,2.3427198848457986,6.895209488374613,-9.75346129570148
-0.9056151419073587,2.50857520968965,7.632486860478623,2.2451852718887837,6.374886925414589,-10.408593048458894
-0.8805293898104622,2.572324078943796,7.65493871319751,2.141099341404195,5.853790302234164,-11.057819611234471
-0.8548061490210243,2.6308619819661376,7.6763497066115525,2.03052114529185,5.335634541087736,-11.696718782466023
-0.8284975292013629,2.684218327377015,7.696654918064471,1.9135539574671896,4.824289141390085,-12.320940181843207
-0.8016553459275927,2.732461218790916,7.715790457639143,1.7903445556487576,4.3237491053937465,-12.926254893104266
-0.7743307337396835,2.7756987098448533,7.73369390319563,1.661082006717715,3.8380991686363353,-13.508616105377737
-0.746573746641235,2.8140797015312167,7.750304723262807,1.5259958456639375,3.371470816814755,-14.064230907065406
-0.7184329496259229,2.847794409699364,7.765564681719447,1.3853535365932834,2.9279923200017772,-14.589642261853074
-0.6899550055289292,2.8770743328993817,7.77941821708538,1.2394571139747526,2.511732872940502,-15.081819009375293
-0.6611842621999353,2.9021916616287866,7.791812788225127,1.0886389238809997,2.126642814960002,-15.538250614612723
-0.6321623455836475,2.9234580897783866,7.802699177463937,0.9332564177348724,1.77649272112151,-15.95704248033343
-0.6029277646858636,2.9412230169896016,7.812031741641286,0.7736859929315382,1.4648148123954359,-16.33700706755128
-0.5735155345159676,2.955871165113556,7.819768601570602,0.6103159222560254,1.194850543205125,-16.677745944719646
-0.543956822864832,2.967819670545607,7.825871760793162,0.4435384628088289,0.9695083300125455,-16.979718267357057
-0.5142786261593759,2.9775147538457323,7.8303071454212505,0.27374128013525834,0.7913351601753689,-17.244292079101818
-0.4845034786209186,2.985428105447486,7.833044558222603,0.10129835934424014,0.6625052826361602,-17.473776164189438
-0.45464919756644373,2.9920531582738477,7.834057541816046,-0.07343940229765425,0.5848283888103064,-17.67143185475663
-0.42472866598370523,2.9979014421619508,7.833323147793069,-0.2501537208452206,0.5597787352791698,-17.84146604685936
-0.39474965156208575,3.0034992295147425,7.830821610584617,-0.4285683813138142,0.5885456528498942,-17.98900852903245
-0.3647146592669383,3.0093846860432416,7.826535926771479,-0.6084584666041387,0.6721049467513588,-18.120078403432103
-0.3346208124065059,3.016105735510755,7.820451342105438,-0.7896592506384598,0.8113099235625729,-18.241545735701667
-0.30445975505139833,3.0242188347463808,7.812554749599053,-0.9720747079954765,1.00700025383166,-18.361095500769622
-0.27421756670393455,3.0342888372846972,7.802834002519098,-1.1556856630031727,1.2601266211588849,-18.487201336931875
-0.24387467833108756,3.046890103496286,7.791277145889066,-1.3405576763724913,1.5718890864308122,-18.629116549896786
-0.2134057772961247,3.0626089943605943,7.777871569125341,-1.5268488418714592,1.943887206158491,-18.79688919151167
-0.18277968735251876,3.082047866422179,7.762603080706627,-1.714817733786576,2.3782799906723455,-19.001406788840466
-0.15195920868829696,3.1058306663289024,7.745454903368761,-1.9048318016749806,2.877953443455965,-19.25447418949621
-0.12090090202500793,3.134610200763462,7.726406585352011,-2.0973765435699425,3.4466921487938906,-19.568924506755348
-0.08955480001737331,3.169077122251401,7.705432819916312,-2.293065788637496,4.0893482723094445,-19.958757264412153
-0.0578640287948593,3.2099706049744956,7.6825021620299365,-2.4926533612816177,4.811994870782428,-20.4392876094626
-0.025764322745114344,3.2580905536823197,7.657575628417121,-2.697046237376244,5.622037894002136,-21.02727230726611
0.006816582791708853,3.314310932622341,7.630605166043358,-2.907318960448905,6.528237975238656,-21.740945702312445
0.039959692117932266,3.3795933123747277,7.601531976438869,-3.1247284174720296,7.5405506742971635,-22.599840354436594
0.07375562524167954,3.4549988191176992,7.570284692264148,-3.3507268210163956,8.669617469500295,-23.624162112230653
0.10830561343285654,3.541694993812702,7.536777424053985,-3.5869684421387023,9.925603700379298,-24.8333020257677
0.14372256337098355,3.640951030816495,7.500907739632598,-3.8353014623963793,11.31584010657373,-26.24273659519632
0.1801320736791485,3.7541094318822323,7.4625547250086335,-4.097728828348343,12.840311676440919,-27.857995287466473
0.21767316799797082,3.8825125486466416,7.42157743672515,-4.376308781223008,14.483353465663786,-29.663421989253912
0.25649829348443726,4.0273460833032795,7.377814348912921,-4.672943001115547,16.198868250249703,-31.60199603906453
0.29677175431747005,4.189334765805777,7.331084918901765,-4.988962961506192,17.885066117383417,-33.540626981711284
0.3386651019755278,4.368185426979611,7.281195289286703,-5.324369231323304,19.34398625996228,-35.2142595313168
0.3823469562453239,4.561625289579234,7.227951596973471,-5.676511826636473,20.2240179409918,-36.14615927499309
0.42796320914111624,4.7638654689891515,7.171186478707106,-6.037973419386404,19.95860457185869,-35.56249396192453
0.4756018638310078,4.963451514707739,7.1108067445132415,-6.393598359005649,17.75619427333765,-32.37762926092596
0.5252363789780852,5.141013457441115,7.046870760923185,-6.717374651614909,12.769541591748752,-25.42845821591769
0.5766465135524963,5.2687088733586025,6.979697014407036,-6.971659233774086,4.59764997016253,-14.171220404620042
0.6293336022860824,5.314685373060228,6.909980422069295,-7.113371437820287,-5.9885990258638255,0.31207087196781
0.6824804560166846,5.25479938280159,6.838846707691093,-7.110250729100608,-16.823611338412846,15.011417652259157
0.7350284498447005,5.086563269417462,6.767744200400086,-6.9601365525780166,-25.381964491305524,26.437816476792996
0.7858940825388752,4.832743624504406,6.698142834874306,-6.695758387810087,-30.33926054498921,32.791021038217096
0.8342215187839193,4.5293510190545145,6.6311852509962055,-6.367848177427916,-32.00062440846321,34.53636294156837
0.8795150289744644,4.209344774969883,6.567506769221926,-6.022484548012232,-31.48764984955511,33.258333503510485
0.9216084767241632,3.8944682764743317,6.507281923741804,-5.689901212977127,-29.87836818494548,30.464127458847855
0.9605531594889065,3.5956845946248768,6.450382911612032,-5.385259938388649,-27.886311410648208,27.144759713426023
0.9965100054351553,3.316821480518395,6.396530312228146,-5.1138123412543885,-25.893939845722247,23.82797711331491
1.0296782202403394,3.0578820820611723,6.345392188815602,-4.87553257012124,-24.073441173663362,20.749461604910024
1.060257041060951,2.817147670324539,6.296636863114389,-4.6680379540721395,-22.484179560680644,17.989401189413968
1.0884285177641966,2.5923058747177326,6.249956483573667,-4.488143942178,-21.13136247594712,15.554174221240757
1.1143515765113738,2.380992249958261,6.205075044151887,-4.332602199965592,-19.997063928000063,13.419292961046418
1.1381614990109565,2.1810216106782607,6.1617490221522315,-4.198409270355128,-19.05540943251762,11.550286382269368
1.159971715117739,1.9904675163530845,6.119764929448681,-4.082906406532435,-18.279515685609326,9.912160509536724
1.17987639028127,1.8076723594969912,6.0789358653833565,-3.9837848014370674,-17.64436167621407,8.47325455705698
1.1979531138762398,1.6312287427348506,6.039098017368985,-3.8990522558664975,-17.12773556277225,7.206464014314649
1.2142654013035883,1.4599513871071281,6.000107494810321,-3.826987615723351,-16.710318699613484,6.089292516184236
1.2288649151746596,1.2928482001109933,5.961837618653087,-3.7660946905615087,-16.375418727520156,5.103432047565622
1.2417933971757695,1.1290940128357918,5.924176671747472,-3.7150603700858524,-16.108591647424237,4.234195500000795
1.2530843373041274,0.9680080963615494,5.887026068046613,-3.6727184150858445,-15.897260299191153,3.469943710457999
1.2627644182677429,0.8090354933696379,5.850298883895755,-3.6380189779812646,-15.73037318545311,2.8015626641190203
1.2708547732014392,0.6517317615151068,5.813918694115943,-3.610003351340074,-15.598117919220696,2.222006705586668
1.2773720908165904,0.4957505823228998,5.7778186606025415,-3.5877832842842077,-15.49169032096167,1.72590632778587
1.2823295966398194,0.3408336791132831,5.7419408277596995,-3.570524221006349,-15.403114763829215,1.3092326015438005
1.2857379334309522,0.18680253147499096,5.706235585549636,-3.557431894990911,-15.325109549863173,0.9690088093365641
1.287605958745702,0.033551435976359234,5.670661266599727,-3.5477418068975455,-15.250990841977123,0.7030605556233855
1.2879414731054657,-0.11895847244341198,5.635183848530752,-3.5407112013413116,-15.174608995999339,0.509797197942604
1.2867518883810316,-0.27070456240340535,5.599776736517339,-3.5356132293618856,-15.090311588080064,0.38801923893390194
