th1 (rad),w1 (rad/s),th2 (rad),w2 (rad/s),a1 (rad/s^2),a2 (rad/s^2)
2.2813730100668677,-3.1130337129519914,2.3896853776450024,-2.9093299580545664,-6.17343412785376,-1.6040681535746042
2.2502426729373477,-3.1747680542305288,2.3605920780644567,-2.9253706395903123,-6.268428472384582,-1.7787764908084174
2.2184949923950423,-3.2374523389543746,2.3313383716685534,-2.9431584044983965,-6.347334600890187,-1.972981134301202
2.1861204690054987,-3.3009256849632767,2.3019067876235693,-2.9628882158414087,-6.4084041794934095,-2.188755733676175
2.1531112121558658,-3.3650097267582106,2.272277905465155,-2.9847757731781703,-6.4498467184328545,-2.4281545040791785
2.1194611148882836,-3.429508193942539,2.2424301477333737,-3.009057318218962,-6.4698555453425435,-2.693159891010291
2.0851660329488584,-3.4942067493959645,2.212339574551184,-3.0359889171290653,-6.466638498556079,-2.985621983132529
2.0502239654548986,-3.558873134381525,2.1819796853798934,-3.0658451369603905,-6.438453209610327,-3.307190208215242
2.014635234111083,-3.6232576664776284,2.1513212340102896,-3.098917039042543,-6.383646614975856,-3.6592383592847435
1.978402657446307,-3.687094132627387,2.1203320636198644,-3.1355094226353906,-6.300698094671396,-4.042784555481947
1.9415317161200332,-3.7501011135741007,2.0889769693935105,-3.17593726819021,-6.188265404104553,-4.458408303659175
1.9040307049842922,-3.8119837676151462,2.0572175967116086,-3.2205213512268016,-6.045232375945409,-4.906167337799312
1.8659108673081406,-3.8724360913746003,2.0250123831993405,-3.2695830246047946,-5.870757255498451,-5.385517309779772
1.8271865063943946,-3.9311436639295847,1.9923165529532925,-3.3234381977025924,-5.664320529434697,-5.895237619712725
1.7878750697550987,-3.9877868692239318,1.9590821709762665,-3.3823905738997198,-5.425771240448919,-6.433366646163835
1.7479972010628593,-4.042044581628421,1.9252582652372692,-3.446724240361358,-5.155371062088909,-6.997149322121941
1.707576755246575,-4.09359829224931,1.8907910228336555,-3.5166957335825773,-4.853835830871384,-7.58299938562975
1.666640772324082,-4.142136650558024,1.8556240654978298,-3.5925257274388747,-4.5223747637965,-8.186477734870161
1.6252194058185017,-4.187360398195989,1.819698808223441,-3.6743905047875765,-4.1627281685274555,-8.802287197319991
1.5833458018365418,-4.228987679881263,1.7829549031755654,-3.7624133767607764,-3.7772049962668164,-9.424282781689833
1.5410559250377291,-4.2667597298439315,1.7453307694079576,-3.856656204577675,-3.3687219909659456,-10.045495252092872
1.4983883277392898,-4.300446949753591,1.706764207362181,-3.9571111570986037,-2.9408463412638333,-10.658164798745753
1.4553838582417538,-4.3298554131662295,1.667193095791195,-4.0636928050860615,-2.4978435332242097,-11.253780837763696
1.4120853041100914,-4.354833848498472,1.6265561677403342,-4.176230613463699,-2.044731432844368,-11.823123708598539
1.3685369656251067,-4.375281162826916,1.5847938616056971,-4.294461850549684,-1.5873404143894576,-12.356304393812193
1.3247841539968377,-4.39115456697081,1.5418492431002002,-4.418024894487806,-1.1323775300014123,-12.842799491487629
1.2808726083271296,-4.4024783422708245,1.497668994155322,-4.5464528894026826,-0.6874902439141533,-13.271480644321304
1.2368478249044212,-4.409353244709966,1.4522044652612953,-4.679167695845895,-0.26132211076033574,-13.630640579543265
1.1927542924573216,-4.41196646581757,1.4054127883028364,-4.815474101641328,0.13645102115929358,-13.908021925991639
1.148634627799146,-4.410601955605977,1.357258047286423,-4.954554320901245,0.495120067026193,-14.09086007440265
1.104528608243086,-4.405650754935715,1.3077125040774107,-5.095462921645272,0.8029975226656335,-14.165957421435037
1.060472100693729,-4.397620779709059,1.256757874860958,-5.237122495859622,1.047553152481114,-14.119813006082925
1.0164958928966383,-4.387145248184248,1.2043866499023619,-5.378320625920451,1.215659352387502,-13.93883797810987
0.9726244404147959,-4.374988654660372,1.1506034436431574,-5.517709005701549,1.2939764470781212,-13.609692044396768
0.9288745538681922,-4.362048890189591,1.095426353586142,-5.653805926145517,1.2695054785636026,-13.11977671659064
0.8852540649662962,-4.349353835403955,1.0388882943246867,-5.785003693311423,1.1303267326559003,-12.457914737656719
0.8417605266122566,-4.338050568077396,0.9810382573915725,-5.909582840687991,0.8665237372111904,-11.615228029456823
0.7983800209314826,-4.329385330705284,0.9219424289846926,-6.025735120982559,0.47126288650313747,-10.586196077524868
0.7550861676244298,-4.324672701840252,0.861685077774867,-6.131597081757808,-0.05804150201733487,-9.36983248235239
0.7118394406060273,-4.325253116860425,0.8003691069572889,-6.225295406581331,-0.7185937820651621,-7.970863760601466
0.668586909437423,-4.332439054681077,0.7381161528914756,-6.305004044187346,-1.5012761844978202,-6.400742200773382
0.6252625188906122,-4.347451816526055,0.6750661124496021,-6.369011466195079,-2.390087763123756,-4.678290950830211
0.5817880007253516,-4.371352694157292,0.6113759977876514,-6.415794375703381,-3.3621419017554155,-2.829784635680644
0.5380744737837787,-4.4049741131748466,0.5472180540306175,-6.4440922220601875,-4.388345963504192,-0.8883277972991664
0.49402473265203023,-4.448857572809889,0.48277713181001564,-6.452975500033179,-5.434784349269657,1.1074933591102076
0.44953615692393134,-4.503205416302586,0.4182473768096838,-6.441900566442077,-6.464694619813669,3.1155643250322447
0.4045041027609055,-4.567852362500722,0.35382837114526305,-6.410744923191754,-7.440799507297418,5.092540820549335
0.35882557913589824,-4.642260357573696,0.28972092191334553,-6.359819514986261,-8.327675148614123,6.996148421618849
0.3124029755601613,-4.725537109059838,0.22612272676348294,-6.289858030770072,-9.093826334346566,8.787141313180111
0.26514760446956287,-4.816475372403303,0.1632241464557822,-6.201986617638271,-9.713207253464347,10.430668312033301
0.21698285074552984,-4.913607444937947,0.10120428027939948,-6.097679934517938,-10.166048717995787,11.896942226151445
0.16784677629615036,-5.015267932117904,0.0402274809342201,-5.9787105122564235,-10.438991515571173,13.161266238080096
0.11769409697497131,-5.119657847273616,-0.019559624188344137,-5.847097849875622,-10.524642376345646,14.203593598160008
0.06649751850223515,-5.224904271037072,-0.07803060268710035,-5.705061913894022,-10.420740612934997,15.007859604429552
0.014248475791864425,-5.329111677166423,-0.13508122182604057,-5.554983317849727,-10.129145458741274,15.561326792161015
-0.0390426409797998,-5.4304031317538355,-0.19063105500453784,-5.399370049928117,-9.65483672187506,15.854141641099499
-0.09334667229733816,-5.526951498972586,-0.244624755503819,-5.240828633517122,-9.0050805847115,15.879235454107677
-0.14861618728706402,-5.617002304819701,-0.29703304183899026,-5.082036278976045,-8.188862183211914,15.632630584713649
-0.20478621033526104,-5.698890926651821,-0.3478534046287507,-4.9257099731289085,-7.216635039646804,15.114144558472315
-0.26177511960177924,-5.771057277048289,-0.3971105043600398,-4.774568527544186,-6.1003867555010896,14.328419958841597
-0.31948569237226215,-5.8320611446033,-0.4448561896354817,-4.63128432795577,-4.853969887917074,13.286145115293143
-0.37780630381829516,-5.880600843482471,-0.4911690329150394,-4.498422876802839,-3.4935967919381303,12.00526973888876
-0.43661231225311986,-5.915536811401852,-0.5361532616830678,-4.378370179413952,-2.038351821362069,10.511967634001328
-0.49576768036713836,-5.935920329615472,-0.5799369634772072,-4.273250503073938,-0.5105438393057531,8.841071093751571
-0.5551268836632931,-5.941025768008529,-0.6226694685079466,-4.184839792136422,1.0642791580230768,7.03572000671398
-0.6145371413433784,-5.930382976428299,-0.6645178664293108,-4.114482592069282,2.657790350554586,5.146051789380979
-0.6738409711076614,-5.903805072922753,-0.7056626923500036,-4.063022074175472,4.239869499680151,3.226909531887789
-0.7328790218368889,-5.8614063779259515,-0.7462929130917583,-4.030752978856595,5.780044350065699,1.3347427687148536
-0.7914930856161484,-5.803605934425295,-0.7866004428803242,-4.017405551169446,7.2491982850245,-0.4759312640037064
-0.8495291449604013,-5.7311139515750495,-0.8267744983920187,-4.022164863809484,8.621272055394687,-2.1560101794375885
-0.9068402844761518,-5.644901231021103,-0.8669961470301135,-4.043724965603859,9.874674574207285,-3.6647236880368004
-0.9632892967863629,-5.54615448527903,-0.9074333966861521,-4.080372202484227,10.993181873219498,-4.971588526651987
-1.018750841639153,-5.4362226665468345,-0.9482371187109944,-4.130088087750747,11.966222597575793,-6.057207042748603
-1.0731130683046215,-5.3165604405710765,-0.9895379995885019,-4.190660158178233,12.788581861756596,-6.91294392900679
-1.1262786727103322,-5.188674621953511,-1.0314446011702842,-4.2597895974683,13.45966154924961,-7.53970277438206
-1.1781654189298674,-5.0540780064610145,-1.0740424971449674,-4.3351866252121205,13.98248928365497,-7.946127987111275
-1.2287061989944774,-4.914253113624465,-1.1173943633970886,-4.414647905083234,14.362667981340449,-8.146571716196663
-1.277848730130722,-4.77062643381106,-1.161540842447921,-4.4961136222452005,14.607418216893562,-8.159111431094402
-1.3255549944688325,-4.6245522516421245,-1.206501978670373,-4.577704736556145,14.724808418034163,-8.003815653340798
-1.3718005169852538,-4.477304167461783,-1.2522790260359344,-4.657742893089552,14.723212101393386,-7.7013637205304395
-1.4165735586598718,-4.3300720464478495,-1.29885645496683,-4.734756530294857,14.61098819684426,-7.272049926455012
-1.4598742791243502,-4.183962164479407,-1.3462040202697785,-4.807477029559407,14.396353373960777,-6.735150325210327
-1.5017139007691442,-4.0399986307398,-1.3942787905653726,-4.87482853281151,14.087402222343721,-6.108600592505488
-1.5421138870765423,-3.8991246085163627,-1.4430270758934878,-4.935914538736565,13.692227844084302,-5.40892001423178
-1.5811051331617059,-3.7622023300755196,-1.4923862212808534,-4.990003738878883,13.21909751309388,-4.651313600323143
-1.618727156462461,-3.630011354944581,-1.5422862586696422,-5.036516874882115,12.676642319514572,-3.849886486036662
-1.6550272700119069,-3.5032449317494354,-1.5926514274184633,-5.075015739742482,12.074024460792943,-3.017909219541406
-1.6900597193294011,-3.382504687141506,-1.643401584815888,-5.105194831937896,11.421050760819313,-2.1680782440544615
-1.723884766200816,-3.2682941795333127,-1.694453533135267,-5.126875614378441,10.728206737971686,-1.3127232839325003
-1.7565677079961493,-3.1610121121535957,-1.7457222892790514,-5.140002847217765,10.006593114458433,-0.4639235079833459
-1.7881778291176853,-3.0609461810090113,-1.797122317751229,-5.144642082297599,9.267756823865927,0.3664918495097907
-1.8187872909277754,-2.968268612770352,-1.848568738574205,-5.140977163802501,8.523421288928379,1.1670653472993489
-1.8484699770554789,-2.883034399881068,-1.89997851021223,-5.129306510329507,7.78513483540759,1.926943141774965
-1.8773003210542896,-2.8051830515269924,-1.951271575315525,-5.110037078911757,7.063869337732923,2.6361855177905524
-1.9053521515695595,-2.7345443581496633,-2.0023719461046428,-5.083675223733851,6.369610758418132,3.286110649829208
-1.932697595151056,-2.670848250565482,-2.0532086983419813,-5.050814117235559,5.710986654177633,3.8696195113364604
-1.9594060776567108,-2.613738384023706,-2.103716839514337,-5.0121179221221945,5.09497170507484,4.381452705165708
-1.9855434614969478,-2.5627886669729576,-2.1538380187355592,-4.968303395070538,4.5267014028236465,4.8183417503055805
-2.0111713481666773,-2.5175216529447213,-2.2035210526862645,-4.920119977567482,4.009408487853893,5.179035243960817
-2.0363465646961245,-2.4774275680661826,-2.2527222524619392,-4.868329625127874,3.5444799087352985,5.464200137141957
-2.0611208403767862,-2.4419827689788294,-2.301405548713218,-4.813687623756454,3.1316173998397576,5.676215838345494
-2.0855406680665745,-2.410666594980432,-2.3495424249507826,-4.7569254653729995,2.769074733425903,5.818890847068225
-2.109647334016379,-2.382975847646173,-2.3971116796045124,-4.698736556902317,2.4539403541602365,5.897136784413058
-2.1334770924928406,-2.3584364441045707,-2.4440990451735356,-4.639765189058187,2.182435060337287,5.91663350195418
-2.1570614569338864,-2.3366120935011976,-2.4904966970641174,-4.580598854038644,1.95019925914474,5.8835131350019205
-2.1804275778688984,-2.3171101009097503,-2.536302685604504,-4.521763722688625,1.7525512881073757,5.804082734908252
-2.203598678877996,-2.2995845880286767,-2.5815203228313903,-4.463722895339543,1.5847056825335757,5.684596501926511
-2.2265945247582826,-2.2837375312033408,-2.626157551784786,-4.406876930320277,1.4419468530770954,5.531081103564913
-2.249431900070316,-2.26931806267257,-2.6702263210879886,-4.351566119284628,1.319758743517284,5.349211873989058
-2.272125080697042,-2.256120475237397,-2.713741982280835,-4.298074000544738,1.2139144748580233,5.1442340276058305
-2.2946862854494157,-2.243981330488817,-2.7567227222862822,-4.2466316602686796,1.1205318899033152,4.920921166900243
-2.317126098754304,-2.2327760115897837,-2.799189038888969,-4.197422448599677,1.0361016095496924,4.683562905669612
-2.339453858870202,-2.2224149954942867,-2.8411632633749657,-4.150586819542981,0.9574940636605842,4.435973906056105
-2.3616780088251446,-2.212840054857681,-2.8826691315703954,-4.1062270804824195,0.8819512994812412,4.181517635501663
-2.3838064093737215,-2.2040205418628687,-2.9237314023752194,-4.064411904127403,0.8070684631582334,3.923139376741323
-2.4058466147923503,-2.1959498572312866,-2.9643755214164935,-4.02518051035999,0.7307688806645614,3.663404259501505
-2.4278061133646633,-2.188642168424641,-3.0046273265200933,-3.9885464677649747,0.6512757489798918,3.4045372025227545
-2.44969253504891,-2.1821294109348424,-3.044512791197743,-3.9545010957397473,0.5670826480793568,3.1484625998330813
-2.4715138291582583,-2.176458584454049,-3.0840578021551406,-3.9230164697414165,0.47692442261014645,2.8968423405313533
-2.493278415002799,-2.1716893402279474,-3.123287966852555,-3.894048046336103,0.379749458788524,2.6511113274039846
-2.5149953084050782,-2.167891845640062,-3.1622284473159157,-3.8675369330620635,0.2746939836543922,2.4125100802820785
-2.536674226861479,-2.165144905803518,-3.2009038166465364,-3.8434118322592425,0.16105872123874082,2.182114303473665
-2.558325675919514,-2.1635343185911307,-3.2393379349691287,-3.821590689224506,0.038288033102976425,1.9608614906559978
-2.579961019105425,-2.1631514382601007,-3.2775538418613737,-3.8019820743179458,-0.09404846987263964,1.7495747599096991
-2.6015925334880263,-2.164091922958827,-3.315573662604553,-3.7844863267188487,-0.23627194805887156,1.5489841765707146
-2.6232334527176144,-2.1664546424394158,-3.3534185258717417,-3.7689964849531417,-0.38860814351246714,1.359745848470156
-2.6448979991420085,-2.1703407238745402,-3.391108490721273,-3.75539902646844,-0.5511991658143129,1.182459079290512
-2.666601406380754,-2.1758527155326832,-3.4286624809859574,-3.743574435675535,-0.7241134492766811,1.0176818503263505
-2.6883599335360806,-2.18309385002545,-3.4660982253427126,-3.7333976171722716,-0.9073540765392731,0.8659448754539117
-2.710190872036335,-2.1921673907908428,-3.5034322015144355,-3.7247381684177325,-1.1008656558599454,0.7277644431502558
-2.7321125459442435,-2.203176047349442,-3.540679583198613,-3.71746052398623,-1.3045399282777201,0.6036542260358343
-2.754144306417738,-2.216221446632219,-3.5778541884384754,-3.7114239817258716,-1.5182202686873005,0.49413620463731084
-2.7763065208840603,-2.231403649319092,-3.614968428255734,-3.7064826196794987,-1.7417052334185426,0.3997508191085276
-2.798620557377251,-2.2488207016532775,-3.652033254452529,-3.7024851114884134,-1.974751297349928,0.3210664312076771
-2.821108764393784,-2.268568214626777,-3.689058105567413,-3.699274447176337,-2.217074916719528,0.2586881492642549
-2.843794446540052,-2.2907389637939723,-3.7260508500391767,-3.6966875656836944,-2.4683540501793555,0.21326604132381854
-2.8667018361779917,-2.315422504295766,-3.7630177256960136,-3.694554905270456,-2.728229270623913,0.1855027361644039
-2.889856061220949,-2.342704797002005,-3.799963274748718,-3.692699877908812,-2.996304604120174,0.17616038843337764
-2.9132831091909694,-2.372667843043207,-3.836890273527806,-3.6909382740244783,-3.2721482399702455,0.18606696278178597
-2.9370097876214016,-2.4053893254429095,-3.873799656268051,-3.6890776043966604,-3.5552932675501863,0.2161217726764972
-2.9610636808758306,-2.4409422581184113,-3.9106904323120175,-3.6869163866698953,-3.845238611001954,0.2673001927719245
-2.9854731034570148,-2.4793946442284307,-3.9475595961787167,-3.684243384742176,-4.141450351934886,0.3406574497083809
-3.010267049899299,-2.5208091477477796,-3.9844020300261382,-3.680836810245092,-4.443363652748668,0.4373313855569773
-3.035475141376777,-2.5652427842752665,-4.02121039812859,-3.6764634963895224,-4.750385518646095,0.5585440816665597
-3.0611275692195297,-2.6127466394617276,-4.057975033092485,-3.6708780555728566,-5.061898664367169,0.7056022294603761
-3.087255035614147,-2.6633656261053993,-4.0946838136482135,-3.6638220332782527,-5.377266781520673,0.8798961401278997
-3.113888691875201,-2.717138293920606,-4.131322033980996,-3.6550230718769736,-5.695841533346065,1.082897298791836
-3.141060074814407,-2.7740967092540667,-4.167872264699765,-3.6441940988890553,-6.01697163488729,1.3161543924978891
-3.168801041906948,-2.8342664256029395,-4.2043142056886555,-3.6310325549640763,-6.340014406829357,1.581287777395138
-3.1971437061629775,-2.897666569671233,-4.240624531238296,-3.615219677190125,-6.664350219423206,1.8799824010093815
-3.22612037185969,-2.964310071865465,-4.276776728010198,-3.596419853180031,-6.989400267663606,2.2139792628282358
-3.255763472578345,-3.034204074542101,-4.3127409265419985,-3.574280060551749,-7.3146481387483995,2.5850655825846447
-3.2861055133237658,-3.107350555929585,-4.348483727147516,-3.548429404725902,-7.639665646321217,2.9950639522089304
-3.3171790188830617,-3.183747212392797,-4.383968021194775,-3.5184787652038128,-7.964143411513284,3.4458208750422297
-3.3490164910069895,-3.26338864650793,-4.419152808846813,-3.4840205564533906,-8.287926666694236,3.9391952436228386
-3.3816503774720688,-3.3462679131748723,-4.453993014411347,-3.4446286040171623,-8.611056742253162,4.477047471772134
-3.4151130566038175,-3.432378480597404,-4.488439300451519,-3.399858129299441,-8.933818667283777,5.0612301706855884
-3.4494368414097916,-3.521716667270242,-4.522437881744514,-3.349245827592585,-9.256795268223293,5.693581429546983
-3.484654008082494,-3.6142846199524747,-4.555930340020439,-3.292310013297115,-9.580928079420719,6.375921907742766
-3.5207968542820187,-3.7100939007466818,-4.588853440153411,-3.228550794219687,-9.907585275875219,7.110057034422003
-3.5578977932894857,-3.809169753505434,-4.6211389480956075,-3.157450223875467,-10.238636682217276,7.897785589269502
-3.59598949082454,-3.9115561203276066,-4.652713450334362,-3.078472367982772,-10.576535669750896,8.74091572405597
-3.635105052027816,-4.017321477025115,-4.68349817401419,-2.991063210742212,-10.92440736551612,9.641288950391335
-3.6752782667980672,-4.126565550680277,-4.713408806121612,-2.8946503212382986,-11.286141960159997,10.600811565804005
-3.71654392230487,-4.239426970281877,-4.742355309333996,-2.7886422055802584,-11.666490836622891,11.621491103507298
-3.7589381920076885,-4.3560918786481055,-4.770241731389798,-2.6724272945451855,-12.071161446078001,12.70547217120457
-3.8024991107941695,-4.476803493108886,-4.79696600433525,-2.5453725728331396,-12.50690382024581,13.855060690035575
-3.8472671457252585,-4.6018725313113436,-4.822419730063581,-2.406821965932784,-12.981576475257748,15.072716764804898
-3.8932858710383718,-4.731688296063921,-4.846487949722909,-2.256094798284735,-13.504170811011054,16.360982121852295
-3.940602753999011,-4.866730004174031,-4.869048897705756,-2.0924849770662117,-14.084758598581228,17.722284864078542
-3.9892700540407513,-5.007577590159844,-4.889973747476418,-1.9152621284254263,-14.734302953900588,19.158526787851155
-4.0393458299423495,-5.15492061969885,-4.909126368760672,-1.7236768605469148,-15.464233185286622,20.670298094057767
