th1 (rad),w1 (rad/s),th2 (rad),w2 (rad/s)
0.2793888847917979,-2.6213152692390485,0.0970055535920301,1.5403477673488168
0.2531757320994074,-2.680639512299074,0.11240903126551827,1.6016591620090312
0.22636933697641667,-2.7314309036575004,0.12842562288560858,1.651037141423582
0.19905502793984167,-2.7724642326515805,0.14493599429984438,1.6866182923254878
0.17133038561332586,-2.8026906457303924,0.16180217722309925,1.7068042607787022
0.14330347915602193,-2.821344832599935,0.17887021983088627,1.7104185211201492
0.11509003083002257,-2.8280338735343897,0.19597440504208777,1.6968368633750786
0.08680969209467868,-2.8227884887441568,0.21294277367583855,1.6660639348977346
0.0585818072072371,-2.8060639139615424,0.2296034130248159,1.618737361135311
0.030521168067621677,-2.7786890359439047,0.24579078663616902,1.5560572065330123
0.002734277708182631,-2.7417746921278403,0.2613513587014991,1.4796560603556204
-0.024683469213095773,-2.696600483695536,0.27614791930505533,1.39143717975042
-0.05164947405005113,-2.6445013332192766,0.29006229110255954,1.2934109709322537
-0.0780944873822439,-2.5867707865525786,0.30299640081188206,1.1875542291447003
-0.10396219524776967,-2.524590537341595,0.31487194310332906,1.0757059602305996
-0.12920810062118562,-2.4589881107206097,0.32562900270563505,0.9595029019816098
-0.1537979817283917,-2.3908192392036085,0.3352240317254511,0.8403501327414717
-0.1777061741204278,-2.3207688088735305,0.34362753305286586,0.7194182944407783
-0.2009138622091631,-2.249363851528016,0.35082171599727363,0.5976582918609077
-0.22340750072444326,-2.1769929980261824,0.3567982989158827,0.47582558601923636
-0.2451774307047051,-2.1039282654180713,0.36155655477607507,0.35450821463179794
-0.2662167133588858,-2.0303464891074543,0.36510163692239306,0.2341546843954631
-0.28652017824996034,-1.9563488765463068,0.3674431837663477,0.11509952167245772
-0.3060836670154234,-1.8819779880966518,0.3685941789830723,-0.002414555002608912
-0.3249034468963899,-1.8072319806301065,0.3685700334330462,-0.11821811825461193
-0.342975766702691,-1.7320762522025526,0.3673878522505001,-0.23220000934136595
-0.3602965292247165,-1.6564527740267674,0.3650658521570864,-0.3442954281673926
-0.3768610569649842,-1.5802874473599098,0.3616228978754125,-0.45447667231344385
-0.39266393143858325,-1.5034958196087274,0.3570781311522781,-0.562746058962125
-0.40769888963467055,-1.4259874633727119,0.35145067056265683,-0.6691306015760998
-0.4219587642683977,-1.3476692810434812,0.3447593645468958,-0.7736780678903455
-0.43543545707883247,-1.2684479554408812,0.3370225838679924,-0.8764541035575869
-0.4481199366332413,-1.1882317286728576,0.3282580428324165,-0.977540159465247
-0.46000225391996985,-1.1069316591041516,0.31848264123776404,-1.0770320070245827
-0.47107157051101134,-1.024462480650571,0.30771232116751823,-1.175038663469444
-0.48131619531751707,-0.94074316948521,0.29596193453282377,-1.2716815783141513
-0.49072362701236916,-0.8556973102761781,0.2832451187496823,-1.3670939529473403
-0.4992806001151309,-0.7692533468851632,0.2695741792202089,-1.461420078261949
-0.5069731335839825,-0.6813448007923633,0.2549599784375894,-1.5548145804472988
-0.5137865815919062,-0.5919105443448685,0.23941183263311638,-1.6474414625102864
-0.5197056870353548,-0.5008952254824831,0.22293741800801353,-1.7394728183042756
-0.5247146392901796,-0.4082499563826691,0.2055426898249708,-1.8310870759987685
-0.5287971388540063,-0.31393340124898306,0.1872318190649831,-1.9224665978261584
-0.531936472866496,-0.21791342920268214,0.1680071530867215,-2.0137944211149783
-0.5341156071585229,-0.12016953792275752,0.14786920887557173,-2.105249870500442
-0.5353173025377505,-0.020696303042532546,0.1268167101705673,-2.19700270156579
-0.5355242655681758,0.08049183277491023,0.10484668315490941,-2.289205351913068
-0.5347193472404267,0.18335405070588817,0.08195462963577874,-2.381982779236648
-0.5328858067333678,0.2878144778456977,0.05813480184341226,-2.4754192647795867
-0.5300076619549109,0.3937508335598315,0.03338060919561639,-2.5695414708385518
-0.5260701536193125,0.5009798678171492,0.007685194487230873,-2.664296993753333
-0.521060354941141,0.6092391059599169,-0.018957775450302458,-2.759527703143309
-0.5149679638815419,0.718164596212617,-0.04655305248173555,-2.854937391439388
-0.5077863179194158,0.8272647666490501,-0.07510242639612943,-2.9500538054507173
-0.49951367025292526,0.9358912624092282,-0.1046029644506366,-3.0441861695197563
-0.490154757628833,1.0432088934871615,-0.13504482614583416,-3.1363810389005993
-0.47972266869396135,1.1481686880221438,-0.16640863653484014,-3.2253819018718017
-0.4682409818137399,1.2494904868923782,-0.19866245555355816,-3.309601350518069
-0.4557460769448161,1.3456641866007302,-0.23175846905873884,-3.387118396066415
-0.4422894350788088,1.4349807543780928,-0.265629653019403,-3.45571639934494
-0.4279396275350279,1.5156039479076164,-0.3001868170128524,-3.5129769674138416
-0.4127835880559517,1.585689287866422,-0.3353165866869908,-3.5564392678483356
-0.3969266951772875,1.6435467857618673,-0.3708809793654742,-3.5838204601572135
-0.38049122731966883,1.68782893960226,-0.4067191839670463,-3.593272282157494
-0.36361293792364624,1.7177100138335468,-0.44265190678862126,-3.5836273599330384
-0.3464358377853108,1.7330143510013503,-0.47848818038795166,-3.5545772247847607
-0.3291056942752973,1.734257652922652,-0.5140339526357993,-3.506732347484224
-0.3117631177460708,1.7225868282487857,-0.5491012761106415,-3.441544170807499
-0.29453724946358295,1.699633044943134,-0.5835167178187165,-3.3611089864105423
-0.2775409190141516,1.667315797916595,-0.6171278076828219,-3.267905279278851
-0.26086776103498566,1.6276432488612482,-0.6498068604756104,-3.1645262912976997
-0.24459132854637317,1.5825453097504185,-0.6814521233885874,-3.0534573973642454
-0.22876587544886898,1.5337583744852312,-0.7119866973622299,-2.9369237587148413
-0.21342829170401667,1.4827634086848518,-0.7413559349493782,-2.8168102190021522
-0.19860065761716816,1.4307679055724913,-0.7695240371393998,-2.6946402149172464
-0.18429297856144325,1.3787179374083394,-0.7964704392885722,-2.571594791495276
-0.17050579918735986,1.3273272176294513,-0.822186387203525,-2.4485538972208185
-0.15723252701106535,1.2771131422876463,-0.8466719261757332,-2.3261464012299924
-0.14446139558818888,1.228433262332086,-0.8699333901880331,-2.204800072212809
-0.13217706296486803,1.1815185523137322,-0.8919813909101612,-2.0847867363793817
-0.12036187744173071,1.1365018909238962,-0.912829258273955,-1.966260605354234
-0.10899685853249175,1.0934414298522606,-0.9324918643274973,-1.8492894522807077
-0.09806244423396915,1.0523392034970744,-0.9509847588503044,-1.7338792034946988
-0.08753905219899841,1.0131556278322076,-0.9683235508852515,-1.6199928880968815
-0.07740749592067633,0.9758206109376756,-0.9845234797662202,-1.5075649667317863
-0.06764928981129958,0.9402419572844816,-0.9995991294335381,-1.3965119895718663
-0.05824687023845477,0.9063116580393112,-1.0135642493292567,-1.2867403998772102
-0.04918375365806166,0.8739105567370697,-1.0264316533280289,-1.1781521519288671
-0.04044464809069096,0.8429117818484886,-1.0382131748473176,-1.0706486743562167
-0.03201553027220608,0.8131832527141946,-1.0489196615908798,-0.9641335914870309
-0.02388369774506413,0.784589495042261,-1.0585609975057502,-0.858514518437205
-0.01603780279464152,0.7569929459384591,-1.0671461426901223,-0.7537041687517432
-0.008467873335256927,0.7302548843921345,-1.0746831843776397,-0.649620953639479
-0.0011653244913355822,0.7042360891266755,-1.0811793939140344,-0.5461892060614808
0.005877036399931173,0.6787972997102606,-1.0866412859746493,-0.44333912822435295
0.012665009397033779,0.6537995370561354,-1.0910746772568929,-0.341006534913581
0.019203004767595133,0.6291043244833343,-1.0944847426060287,-0.2391324455625659
0.025494048012428477,0.6045738392151887,-1.0968760670616544,-0.13766256339971977
0.03153978640458036,0.5800710156745683,-1.0982526926956515,-0.03654666921897913
0.03734049656132604,0.5554596155096981,-1.0986181593878412,0.06426205065998325
0.04289509271642302,0.5306042744357635,-1.0979755388812413,0.16480772854537273
0.048201135460780656,0.5053705323175854,-1.0963274615957876,0.26513258223568287
0.05325484078395651,0.479624850159531,-1.0936761357734308,0.36527771829352124
0.05805108928555182,0.4532346155999264,-1.0900233585904957,0.4652839676475621
0.06258343544155108,0.4260681369781943,-1.0853705189140201,0.5651927509697678
0.06684411681133302,0.3979946249511788,-1.0797185914043224,0.6650469722687341
0.07082406306084481,0.3688841599173714,-1.0730681216816351,0.7648919396928618
0.07451290466001852,0.3386076431347621,-1.0654192022847064,0.8647763127010233
0.07789898109136614,0.3070367293923695,-1.0567714391576961,0.9647530745445658
0.08096934838528984,0.274043739452105,-1.0471239084122506,1.0648805283820926
0.08370978577981089,0.23950155128756384,-1.0364751031284296,1.1652233142393975
0.08610480129268654,0.20328347052397508,-1.0248228699860356,1.2658534422956036
0.08813763599792629,0.16526308259817094,-1.0121643355630796,1.3668513354133256
0.089790266823908,0.1253140922504976,-0.9984958222089464,1.4683068701275794
0.09104340774641298,0.08331016037045091,-0.9838127535076706,1.5703204000239357
0.09187650935011749,0.039124754414571916,-0.9681095495074312,1.6730037379475582
0.09226775689426321,-0.007368962751150093,-0.9513795121279557,1.7764810629174113
0.09219406726675171,-0.05629816876531138,-0.9336147014987816,1.880889702756519
0.09163108557909859,-0.10779028909112366,-0.9148058044712164,1.9863807226018415
0.09055318268818735,-0.16197269961084787,-0.894941997245198,2.093119220299098
0.08893345569207887,-0.21897211704041566,-0.874010805042207,2.2012841890330903
0.08674373452167472,-0.2789135267587242,-0.851997963151876,2.3110677510737907
0.08395459925408748,-0.3419184389664164,-0.8288872856411381,2.4226734884590213
0.08053541486442331,-0.40810218435478895,-0.8046605507565479,2.53631348922842
0.07645439302087542,-0.4775698529929282,-0.7792974158642636,2.6522035818956424
0.07167869449094615,-0.5504103370153592,-0.7527753800453072,2.7705560347014964
0.06617459112079255,-0.6266877505096307,-0.7250698196982922,2.8915687373266206
0.05990771361569624,-0.7064292619144162,-0.696154132325026,3.015409550312331
0.05284342099655208,-0.789608084544815,-0.6660000368219027,3.1421940983948073
0.04494734015110393,-0.8761200443038493,-0.6345780958379545,3.27195481564677
0.03618613970806544,-0.9657518277784118,-0.6018585476814868,3.4045985842731983
0.02652862143028132,-1.0581388192922359,-0.5678125618387548,3.5398499924510505
0.01594723323735896,-1.1527105833192062,-0.5324140619142443,3.677177369175239
0.004420127404166899,-1.2486229361779013,-0.49564228822249196,3.8156998788549044
-0.008066101957612114,-1.3446778169344995,-0.4574852894339429,3.9540769560010967
-0.02151288012695711,-1.4392366964749257,-0.41794451987393194,4.09038746011217
-0.035905247091706366,-1.5301409812191098,-0.3770406452728102,4.222016435892254
-0.05120665690389746,-1.6146640645386243,-0.33482048091388766,4.345582725414411
-0.06735329754928371,-1.6895325800998207,-0.29136465365974357,4.456958521498258
-0.08424862335028191,-1.751063126358622,-0.24679506844476098,4.551444225401475
-0.10175925461386813,-1.7954540781205253,-0.20128062619074621,4.624153294131157
-0.11971379539507339,-1.819236939922274,-0.15503909324943466,4.67061398516589
-0.13790616479429613,-1.8198245458223488,-0.10833295339777577,4.687503150459461
-0.15610441025251962,-1.7960166845075365,-0.06145792189318115,4.6733223232606935
-0.17406457709759499,-1.7482880767267017,-0.014724698660574215,4.62877798401086
-0.191547457864862,-1.6787356665813282,0.03156308117953439,4.55669995680225
-0.20833481453067526,-1.5906926856034826,0.0771300807475569,4.461510985340373
-0.2242417413867101,-1.4881494060840166,0.12174519060096063,4.348440866582142
-0.23912323544755026,-1.375172037350939,0.16522959926678205,4.222746591895063
-0.2528749558210597,-1.2554649788097283,0.20745706518573268,4.0891340912017
-0.26542960560915696,-1.1321291267221674,0.24834840609774966,3.951449442213132
-0.27675089687637866,-1.007592036709997,0.287862900519881,3.812602850037053
-0.28682681724347864,-0.8836514327017568,0.32598892902025156,3.674643391807168
-0.2956633315704962,-0.7615743407211577,0.36273536293832326,3.5389051899613015
-0.30327907497770773,-0.6422108323880096,0.39812441483793626,3.406169541507405
-0.3097011833015878,-0.5260994912237258,0.4321861102530103,3.276812724179158
-0.31496217821382505,-0.41355505545993293,0.46495423749480186,3.15092743713406
-0.3190977287684244,-0.3047365174201808,0.49646351186614246,3.0284163413072696
-0.3221450939426262,-0.19969768551579065,0.5267476752792152,2.9090610230125766
-0.3241420707977841,-0.0984234890844871,0.5558382855093409,2.79257123919642
-0.325126305688629,-0.0008553455854409947,0.5837639979013051,2.678619199797624
-0.3251348591444834,0.0930915559799753,0.6105501898992813,2.5668628981530452
-0.3242039435846837,0.18351679449675837,0.6362188188808118,2.4569616204107994
-0.3223687756397161,0.2705273708822531,0.6607884350849198,2.3485859673650733
-0.3196635019308936,0.35423322409465297,0.6842742947585705,2.241424076346739
-0.3161211696899471,0.4347447075533574,0.7066885355220379,2.135185238862726
-0.3117737226144135,0.5121713856136643,0.7280403879106652,2.0296017485410403
-0.30665200875827686,0.5866216992168477,0.7483364053960756,1.9244295551340869
-0.30078579176610837,0.6582031853314827,0.7675807009474165,1.8194481179266084
-0.2942037599127935,0.727023030824743,0.7857751821266825,1.714459724919903
-0.2869335296045461,0.7931888091100594,0.8029197793758815,1.6092884566819718
-0.27900164151344553,0.8568092955554565,0.8190126639427012,1.5037789140716362
-0.270433548557891,0.9179952911501561,0.8340504530834176,1.397794788773223
-0.2612535956463894,0.976860407531845,0.8480284009711498,1.291217328780597
-0.25148499157107096,1.033521783127797,0.8609405742589558,1.1839437334841023
-0.241149773739793,1.0881007119094044,0.8727800115937968,1.075885501945854
-0.23026876662069895,1.140723174508571,0.8835388666132553,0.9669667512976234
-0.21886153487561325,1.1915202671479572,0.8932085341262316,0.8571225185942782
-0.20694633220413367,1.2406285276243432,0.9017797593121744,0.7462970579884983
-0.19454004692789023,1.2881901598521106,0.9092427298920593,0.6344421451705381
-0.18165814532936914,1.3343531594469602,0.9155871513437647,0.5215154022965347
-0.16831461373489953,1.3792713425999175,0.92080230536673,0.40747865896053964
-0.15452190030890037,1.423104279037778,0.9248770919563354,0.29229636816490606
-0.14029085751852258,1.4660171270635143,0.9278000556379844,0.17593410088232636
-0.12563068624788742,1.5081803642858704,0.9295593966468076,0.05835714901328158
-0.11054888260502872,1.5497694013258032,0.9301429681369404,-0.06047072516115222
-0.0950511885917707,1.5909640570249175,0.9295382608853289,-0.18058834381947086
-0.07914154802152151,1.6319478617893295,0.9277323774471342,-0.3020379085985666
-0.06282206940362822,1.672907139761232,0.9247119983611486,-0.4248654515576356
-0.046092998006015906,1.7140297993105313,0.9204633438455723,-0.549120830983625
-0.02895270001291059,1.7555037333204018,0.914972135535736,-0.6748571248866867
-0.011397662679706572,1.7975146939393418,0.9082235642868691,-0.8021292271127111
0.0065774842596868464,1.8402434585004632,0.900202272015742,-0.9309913877929636
0.02497991884469148,1.8838620414220588,0.8908923581378123,-1.0614933574583794
0.04381853925891207,1.9285286282535963,0.8802774245632285,-1.1936746885039282
0.06310382554144803,1.9743808102792446,0.8683406776781892,-1.3275566154087342
0.08284763364424047,2.0215265806853018,0.8550651115241019,-1.4631307752476739
0.10306289945109348,2.0700324199131064,0.8404338037716251,-1.6003438474201388
0.12376322365022455,2.119907660719288,0.8244303652974238,-1.7390770028641371
0.14496230025741744,2.171084210856663,0.8070395952687823,-1.879118897052483
0.16667314236598407,2.2233906788928564,0.7882484062982575,-2.0201308946385925
0.18890704915491263,2.2765200963208962,0.7680470973518716,-2.1616034147968053
0.2116722501181216,2.329990920979504,0.7464310632039035,-2.302802962631165
0.23497215932791665,2.383102088251403,0.7234030335775918,-2.4427109040423396
0.2588031802104307,2.434884867614583,0.6989759245371684,-2.5799577938636977
0.28315202888657653,2.484057506322312,0.6731763465985314,-2.7127615296178726
0.30799260394979966,2.5289932216382063,0.6460487313023527,-2.8388839457649904
0.3332825361661817,2.567717548476693,0.6176598918447028,-2.955628002811596
0.35895971165094864,2.5979556529535763,0.5881036118165869,-3.0599040814531016
0.3849392681804844,2.6172505506494006,0.5575045710020559,-3.148394278438926
0.41111177368697843,2.6231644443282494,0.5260206282176666,-3.217831367200113
0.4373434181302609,2.6135539099320773,0.49384231454566546,-3.2653790916857752
0.46347895722958166,2.586877486636133,0.4611885236288077,-3.289055666641739
0.489347732095943,2.5424635093546017,0.4282979669623903,-3.288099783390002
0.514772367189489,2.480656678598026,0.3954169691284903,-3.2631658813353126
0.5395789339754693,2.402788784090884,0.36278531031513717,-3.2162735896495085
0.5636068218163781,2.3109761699791327,0.33062257441864207,-3.1505163886032332
0.5867165835161694,2.2078052935002623,0.29911741053260976,-3.0696164246860134
0.608794636451172,2.095996463452934,0.26842124628574965,-2.977451898256365
0.6297546010857014,1.9781239536710438,0.238646727303186,-2.8776660381850103
0.6495358406224118,1.856433186311965,0.20987006692133592,-2.7734137251243918
0.6681001724855314,1.7327569364619806,0.182135929670092,-2.667247530700267
0.6854277418501512,1.608508383325212,0.15546345436308934,-2.561111388446543
0.7015128256834033,1.4847216006970188,0.1298523404786239,-2.4564003015730163
0.7163600416903735,1.3621139217156808,0.10528833746289373,-2.354050139755634
0.7299811809075303,1.241152623913561,0.08174783606533739,-2.2546329628247443
0.7423927071466659,1.1221160850140894,0.05920150643708995,-2.158444176328537
0.7536138679968069,1.0051451762108397,0.03761706467380458,-2.0655757083177146
0.7636653197589153,0.8902840660234681,0.016961307590627434,-1.9759741563864932
0.77256816041915,0.7775113395572756,-0.002798433973237497,-1.8894852576762597
0.7803432738147228,0.6667630126708798,-0.021693286550000093,-1.8058869571102867
0.7870109039414316,0.5579491179250196,-0.03975215612110296,-1.7249134665502635
0.7925903951206817,0.45096536875414167,-0.057001290786605596,-1.6462724542468337
0.7971000488082232,0.3457011455231286,-0.07346401532907393,-1.5696571251790918
0.8005570602634544,0.2420447799956415,-0.08916058658086484,-1.4947545710203582
0.8029775080634108,0.1398868806234314,-0.10410813229106843,-1.4212514350323404
0.8043763768696451,0.03912225086613856,-0.11832064664139183,-1.3488376667599151
0.8047675993783066,-0.060349194978263784,-0.13180902330899097,-1.2772089314498718
0.804164107428524,-0.1586222254241524,-0.1445811126234897,-1.2060680806060218
0.8025778851742824,-0.2557865843942002,-0.1566417934295499,-1.1351259726332974
0.8000200193303404,-0.3519276323797204,-0.16799305315588287,-1.0641018466203465
0.7965007430065432,-0.4471272291721152,-0.17863407162208633,-0.9927233901148185
0.792029470714822,-0.5414647821470698,-0.18856130552323452,-0.9207265971239114
0.7866148228933513,-0.6350184059407817,-0.19776857149447363,-0.8478554809020877
0.7802646388339435,-0.7278661545251397,-0.2062471263034945,-0.7738616839796784
0.7729859772886921,-0.8200872969091643,-0.2139857431432913,-0.6985040129224553
0.7647851043196005,-0.9117636141776148,-0.22097078327251585,-0.6215479158282067
0.7556674681778243,-1.0029806991171064,-0.22718626243079793,-0.542764915485709
0.7456376611866532,-1.0938292407287638,-0.232613911585655,-0.4619320098439873
0.7346993687793656,-1.1844062746440571,-0.23723323168409488,-0.3788310537744818
0.722855306032925,-1.2748163767282243,-0.2410215422218397,-0.29324814225048557
0.7101071422656428,-1.3651727705618972,-0.24395402364434454,-0.204973025614963
0.6964554145600238,-1.4555983092865534,-0.24600375390049417,-0.11379860362161734
