th1 (rad),w1 (rad/s),th2 (rad),w2 (rad/s),a1 (rad/s^2),a2 (rad/s^2)
6.260062918216384,1.3042997184650909,0.5788090204935685,-2.59575104088381,7.179224680514738,-12.241575869606933
6.273105915401035,1.3760919652702381,0.5528515100847304,-2.7181667995798793,7.275220613235075,-12.309320155170415
6.286866835053737,1.4488441714025888,0.5256698420889316,-2.8412600011315834,7.306474614461417,-12.297680211018907
6.301355276767763,1.521908917547203,0.4972572420776158,-2.9642368032417723,7.249728070387346,-12.1759894198484
6.316574365943236,1.5944061982510764,0.4676148740451981,-3.0859966974402564,7.077324281544329,-11.907449071339682
6.332518427925747,1.6651794410665197,0.4367549070707955,-3.2050711881536533,6.757956311890966,-11.450089844510869
6.3491702223364115,1.7327590041854293,0.404704195189259,-3.319572086598762,6.25863202490258,-10.759395673166773
6.366497812378266,1.795345324434455,0.3715084743232714,-3.4271660433304296,5.548318460018047,-9.793231750961258
6.3844512656226104,1.8508285090346355,0.33723681388996707,-3.525098360840042,4.603510094492384,-8.519421814088515
6.402959550712957,1.8968636099795593,0.30198583028156667,-3.6102925789809275,3.415384439084952,-6.925520316125876
6.421928186812752,1.9310174543704088,0.2658829044917574,-3.679547782142186,1.9972356663668576,-5.028982551510049
6.441238361356456,1.9509898110340773,0.22908742667033552,-3.7298376076572866,0.3897880431497943,-2.8844312878242113
6.460748259466797,1.9548876914655753,0.19178905059376267,-3.758681920535529,-1.3385275764454772,-0.5840036720376117
6.480297136381453,1.9415024157011205,0.15420223138840738,-3.764521957255905,-3.0983655550134763,1.7520086626247477
6.499712160538464,1.9105187601509857,0.11655701181584834,-3.7470018706296577,-4.7928319877685945,3.9935187330999344
6.518817348139974,1.8625904402732998,0.07908699310955175,-3.7070666832986583,-6.333820111419541,6.023001585245729
6.537443252542707,1.7992522391591044,0.042016326276565166,-3.646836667446201,-7.6559925466171395,7.754506892756896
6.555435774934298,1.722692313692933,0.005547959602103157,-3.5692915985186318,-8.72410649762161,9.143432677504677
6.572662698071228,1.635451248716717,-0.030144956383083163,-3.477857271743585,-9.532501194350528,10.185507912225118
6.589017210558395,1.5401262367732116,-0.06492352910051902,-3.376002192621334,-10.098709490689698,10.907763443236187
6.604418472926127,1.4391391418663146,-0.09868355102673236,-3.2669245581889723,-10.454606616700652,11.356234497100425
6.61880986434479,1.334593075699308,-0.1313527966086221,-3.153362213217968,-10.638085020406967,11.584507125914413
6.6321557951017835,1.2282122254952383,-0.16288641874080179,-3.037517141958824,-10.686882240564346,11.645312905947563
6.644437917356736,1.1213434030895948,-0.19326159016039002,-2.9210640128993486,-10.634891301300089,11.585580868408746
6.6556513513876325,1.014994490076594,-0.2224722302893835,-2.805208204215261,-10.510520764335647,11.444314465074724
6.665801296288398,0.9098892824332374,-0.2505243123315361,-2.6907650595645136,-10.3364285817895,11.252341535528238
6.674900189112731,0.8065249966153424,-0.27743196292718125,-2.578241644209231,-10.13001827001597,11.03308698236613
6.682965439078885,0.7052248139151827,-0.30321437936927353,-2.4679107743855697,-9.904260948141124,10.803767356600844
6.690017687218036,0.6061822044337715,-0.3278934871131292,-2.3598731008195615,-9.668579537959989,10.576648579826458
6.696079509262374,0.5094964090541716,-0.3514922181213248,-2.2541066150212967,-9.429659997289308,10.360186284002536
6.701174473352915,0.4151998090812785,-0.37403328427153776,-2.1505047521812712,-9.19213566017335,10.15997970745341
6.705326471443728,0.323278452479545,-0.39553833179335046,-2.048904955106737,-8.959135646753118,9.979530924173508
6.708559255968523,0.23368709601201382,-0.41602738134441786,-1.949109645865002,-8.732709662292658,9.820829521511452
6.710896126928643,0.14635999938908723,-0.43551847780306785,-1.8509013506498875,-8.514149322040062,9.684792670865953
6.712359726922534,0.0612185061686866,-0.4540274913095667,-1.754053423941228,-8.304226992774169,9.57159098126373
6.712971911984221,-0.021823763759055093,-0.471568025548979,-1.6583375141285908,-8.103370905326013,9.480886910400864
6.71275367434663,-0.10285747281231522,-0.48815140069026486,-1.5635286450245822,-7.911792042478842,9.412007656463533
6.711725099618507,-0.18197539323710366,-0.5037866871405107,-1.469408568459947,-7.729575049320051,9.364069711815612
6.709905345686136,-0.25927114373030413,-0.5184807728251102,-1.375767871341791,-7.556742564532142,9.336068164924272
6.707312634248833,-0.33483856937562556,-0.5322384515385281,-1.2824071896925482,-7.393300047722677,9.326940523376226
6.703964248555077,-0.40877156985285235,-0.5450625234354536,-1.189137784458786,-7.239266358530734,9.335612250138727
6.699876532856549,-0.48116423343815967,-0.5569539012800414,-1.0957816619573988,-7.094693953942458,9.3610292422504
6.6950648905221675,-0.5521111729775843,-0.5679117178996154,-1.0021713695348948,-6.959681525430545,9.402181009257388
6.689543778792392,-0.6217079882318898,-0.5779334315949644,-0.9081495594423209,-6.834381117911149,9.458117213085965
6.683326698910073,-0.6900517994110013,-0.5870149271893875,-0.8135683873114612,-6.719001191216281,9.527959416040597
6.676426180915963,-0.757241811323164,-0.5951506110625021,-0.7182887931510552,-6.613806648005268,9.610909273012243
6.668853762802732,-0.8233798778032168,-0.6023334989940127,-0.6221797004209327,-6.519116517411315,9.7062539381926
6.6606199640247,-0.8885710429773299,-0.608555295998222,-0.5251171610390067,-6.435299717931745,9.8133690890753
6.651734253594927,-0.9529240401566473,-0.613806467608612,-0.4269834701482538,-6.362769099487032,9.931719664251888
6.64220501319336,-1.0165517311515178,-0.6180763023100946,-0.3276662735057349,-6.3019737610391795,10.060858135780897
6.632039495881845,-1.0795714687619096,-0.6213529650451519,-0.22705769214792593,-6.253389437072612,10.200419864597496
6.6212437811942255,-1.1421053631326357,-0.6236235419666312,-0.12505349350195097,-6.217506524835717,10.350114792550183
6.609822727562899,-1.204280428380993,-0.6248740769016506,-0.02155234557644914,-6.194815065029975,10.509714380142302
6.597779923279089,-1.2662285790312926,-0.6250896003574151,0.08354479822497389,-6.185785669945109,10.679032274747263
6.585117637488776,-1.3280864357307438,-0.6242541523751653,0.19033512097244654,-6.190844989679986,10.857896654791148
6.571836773131468,-1.3899948856275437,-0.6223508011654408,0.29891408752035803,-6.210343789241087,11.046111499451222
6.557936824275193,-1.4520983235199545,-0.6193616602902372,0.40937520251487025,-6.244515041985178,11.243403131797509
6.543415841039994,-1.5145434739398063,-0.6152679082650885,0.5218092338328454,-6.293418588623938,11.449347220678707
6.528270406300596,-1.5774776598260456,-0.61004981592676,0.6363027060396325,-6.356867825232408,11.663269945955578
6.512495629702335,-1.6410463380783697,-0.6036867888663636,0.7529354054991882,-6.434332534989618,11.884115185720155
6.496085166321551,-1.705389663428266,-0.5961574348113717,0.8717765573563898,-6.52481035822255,12.110267360244725
6.479031269687268,-1.7706377670104914,-0.5874396692378079,0.992879230958837,-6.626657554498846,12.339317035347763
6.4613248920171635,-1.8369043425554799,-0.5775108769282196,1.1162724013123146,-6.7373678218728115,12.567753787411489
6.442955848591609,-1.904278020774208,-0.5663481529150964,1.2419499391864295,-6.853286405893122,12.790568725350278
6.423913068383867,-1.9728108848331392,-0.5539286535232322,1.3698556264399322,-6.969246369231015,13.000748586184605
6.404184959535536,-2.0425033485254493,-0.5402300972588329,1.4998631123017783,-7.0781162039429,13.1886465651147
6.383759926050281,-2.1132845105648785,-0.5252314661358151,1.6317495779529252,-7.170255530057593,13.34122560492814
6.362627080944632,-2.1849870658654544,-0.5089139703562858,1.7651618340022066,-7.23289254550549,13.441193490398714
6.340777210285977,-2.2573159913205094,-0.4912623520162638,1.8995737689061938,-7.249469142305221,13.466094108427312
6.318204050372772,-2.329810682743562,-0.47226661432720185,2.034234709990467,-7.199054680471,13.387496119503606
6.294905943545337,-2.401801229548272,-0.45192426722729717,2.168109671185503,-7.056014217233317,13.170538680166695
6.270887931249854,-2.4723613717206048,-0.43024317051544214,2.29981505798717,-6.790231967653663,12.77425434808799
6.2461643175326484,-2.5402636913971413,-0.40724501993557044,2.4275576014680498,-6.3683179427415215,12.153266667267047
6.220761680618677,-2.6039468708245566,-0.38296944392088994,2.5490902681407204,-5.756310130795412,11.26157716181511
6.194722211910432,-2.6615099721325106,-0.35747854123948275,2.6617060397588714,-4.924316600473575,10.059059917073439
6.168107112189107,-2.7107531381372465,-0.33086148084189404,2.7622966389296058,-3.8531645452949093,8.52075179544744
6.140999580807734,-2.7492847835901957,-0.303238514452598,2.84750415688408,-2.5423086820351113,6.6478839779808165
6.113506732971833,-2.774707870410547,-0.2747634728837572,2.913982996663888,-1.0170783530320113,4.477957663333633
6.0857596542677275,-2.784878653940867,-0.2456236429171183,2.9587625732972245,0.6676929759248122,2.0897202930658403
6.057910867728319,-2.7782017241816193,-0.21603601718414606,2.9796597762278827,2.4306100948350076,-0.40108835585780916
6.030128850486503,-2.753895623233269,-0.18623941942186722,2.9756488926693048,4.174385673631595,-2.8568166474631695
6.002589894254171,-2.712151766496953,-0.15648293049517417,2.947080726194673,5.802117263619024,-5.140805677310689
5.975468376589201,-2.6541305938607627,-0.12701212323322744,2.895672669421566,7.2340832967618605,-7.140959793139057
5.948927070650593,-2.581789760893144,-0.09805539653901178,2.8242630714901753,8.419439229336193,-8.786101018223365
5.923109173041662,-2.4975953685997823,-0.06981276582411003,2.736402061307942,9.339645548189837,-10.050684205582183
5.898133219355664,-2.404198913117884,-0.042448745211030606,2.63589521925212,10.004204614137953,-10.948713075501848
5.874091230224485,-2.3041568669765047,-0.016089793018509404,2.5264080884971016,10.441938944515835,-11.52141688653011
5.85104966155472,-2.1997374775313463,0.009174287866461614,2.4111939196318004,10.6914992804692,-11.82387296676476
5.829052286779406,-2.0928224847266543,0.033286227062779616,2.292955189964153,10.793619076882019,-11.91410429832107
5.80812406193214,-1.9848862939578342,0.05621577896242115,2.173814146980942,10.78605769633555,-11.845966753144229
5.788275198992562,-1.8770257169944786,0.07795392043223057,2.0553544794495,10.70103959192468,-11.665547889051425
5.769504941822617,-1.7700153210752319,0.09850746522672557,1.9386990005589857,10.564499027865864,-11.41010313830274
5.751804788611865,-1.6643703307965731,0.11789445523231543,1.8245979691759584,10.396398916136324,-11.108500213272581
5.735161085303899,-1.5604063416352099,0.13614043492407502,1.7135129670432325,10.211559100584694,-10.782378240936865
5.719557021887547,-1.458290750629363,0.15327556459450734,1.605689184633864,10.020633715100496,-10.447515686705
5.704974114381253,-1.358084413478358,0.16933245644084596,1.5012140277668138,9.83104268002061,-10.115133611118104
5.691393270246469,-1.2597739866781519,0.1843445967185141,1.4000626916556327,9.647772157497148,-9.793014883332736
5.678795530379688,-1.1632962651031804,0.19834522363507043,1.3021325428223054,9.474021825405003,-9.48640840153487
5.667162567728656,-1.0685560468491304,0.2113665490632935,1.2072684588069567,9.31170815783646,-9.198731283701239
5.656477007260165,-0.9754389652707658,0.22343923365136306,1.1152811459699443,9.16184541883479,-8.932099524192623
5.646722617607457,-0.8838205110824179,0.23459204511106252,1.025960150728018,9.024828654832076,-8.687721213639591
5.637884412496633,-0.7935722245340971,0.2448516466183427,0.9390829385916222,8.900640968901241,-8.466183606403835
5.629948690251292,-0.7045658148450847,0.2542424760042589,0.8544211025275839,8.789003706366927,-8.267660197156172
5.622903032102841,-0.6166757777814155,0.2627866870295348,0.7717445005560222,8.689484324309122,-8.092058562768427
5.616736274325027,-0.5297809345383242,0.270504132035095,0.690823914928338,8.601573277666086,-7.939124905752843
5.611438464979644,-0.44376520176166334,0.2774123711843784,0.6114326658708095,8.524738427236525,-7.808517273327995
5.607000812962027,-0.3585178174892981,0.2835266978430865,0.5333474931375295,8.458463256723048,-7.699856316772616
5.603415634787134,-0.27393318492206764,0.2888601727744618,0.45634892996980336,8.402273495108147,-7.612760083976307
5.600676302937913,-0.18991044997098616,0.2934236620741598,0.38022132913004025,8.35575547492421,-7.546867560799738
5.598777198438203,-0.10635289522174406,0.29722587536546025,0.30475265352204284,8.318568619711499,-7.501854358671467
5.5977136694859855,-0.02316720902462907,0.3002734019006807,0.22973410993532817,8.29045376325503,-7.4774429721612305
5.5974819973957395,0.05973732860792123,0.30257074300003395,0.15495968021371587,8.271238493383539,-7.473409309216723
5.598079370681819,0.14244971354175662,0.3041203398021711,0.08022558712154863,8.260840332979914,-7.4895866567016816
5.599503867817236,0.22505811687155575,0.3049225956733866,0.005329720554531819,8.259268280772325,-7.525867829434506
5.601754448985952,0.307650799679279,0.3049758928789319,-0.06992895773981324,8.266623003484614,-7.5822059188185635
5.604830956982745,0.39031702971412513,0.3042766033015338,-0.14575101692799886,8.283095774028155,-7.6586137724494625
5.608734127279886,0.47314798745440667,0.3028190931322538,-0.22233715465249348,8.30896606621655,-7.7551620688883665
5.61346560715443,0.5562376481165722,0.3005957215857289,-0.29988877534137715,8.344597525054892,-7.87197557428273
5.619027983635596,0.639683623367121,0.2975968338323151,-0.37860853108420445,8.390431812543719,-8.00922685114858
5.625424819869267,0.7235879414925582,0.29381074852147304,-0.4587007995956902,8.446979559151295,-8.167126302317946
5.632660699284193,0.8080577370840711,0.28922374052551614,-0.5403720626188697,8.514807302951063,-8.345906936161557
5.640741276655033,0.8932058101135818,0.2838200198993274,-0.6238311319804852,8.594518837098462,-8.545801584173097
5.649673334756169,0.9791509984845664,0.2775817085795226,-0.7092891478222162,8.686728767280451,-8.767009426681813
5.659464844741015,1.066018286157371,0.2704888171013004,-0.7969592420890343,8.79202524695919,-9.009647507227603
5.670125027602588,1.153938538626963,0.26251922468041006,-0.8870557171613104,8.91091773779705,-9.273681340717472
5.681664412988858,1.2430477160049334,0.25364866750879694,-0.9797925305684851,9.043764148382062,-9.558826623201146
5.694094890148907,1.333485357488754,0.2438507422031121,-1.0753807968004967,9.190669737568085,-9.864411294329082
5.707429743723795,1.4253920548644348,0.23309693423510713,-1.1740249097437876,9.351347632860094,-10.189183652929097
5.721683664272439,1.5189055311930357,0.22135668513766926,-1.2759167462730785,9.524927648384601,-10.53104779760498
5.73687271958437,1.6141548076768817,0.20859751767493848,-1.3812272242491284,9.709696337071266,-10.886702424278033
5.753014267661139,1.7112517710475943,0.19478524543244718,-1.4900942484919086,9.90274717058508,-11.25115337481635
5.770126785371615,1.810279242753445,0.1798843029475281,-1.602605782240072,10.099516206019368,-11.617065418803044
5.788229577799149,1.9112744048136387,0.1638582451251274,-1.7187764364281026,10.29317732035545,-11.973917026207577
5.807342321847286,2.014206178017193,0.14667048076084638,-1.8385156066901784,10.47387549492088,-12.306928166028687
5.827484383627458,2.118944932966402,0.1282853246939446,-1.9615848883504654,10.627792848779174,-12.595754074150172
5.848673832957122,2.225222861454194,0.10866947581043995,-2.0875424290919673,10.736080227073309,-12.812991641521243
5.870926061571664,2.332583663724927,0.08779405151952027,-2.21567234550718,10.773761905548877,-12.922650339134146
5.894251898208913,2.440321282780416,0.06563732806444847,-2.3448988488985214,10.70885022034187,-12.878921526213452
5.918655111036717,2.5474097849838344,0.04218833957546325,-2.473688064160656,10.502103686485594,-12.625856908220568
5.944129208886555,2.6524308218486903,0.01745145893385669,-2.599946633242862,10.10811391085338,-12.098921245111892
5.970653517105042,2.753511960957224,-0.008548007398571929,-2.7209358456939805,9.478635910600026,-11.229707266429124
5.998188636714614,2.848298320063224,-0.03575736585551173,-2.833232918358272,8.569089911070751,-9.955119996816356
6.026671619915247,2.933989219173932,-0.06408969503909445,-2.9327841183264356,7.348634029705859,-8.231594049175191
6.056011512106986,3.0074755594709903,-0.09341753622235881,-3.0151000588181875,5.812802459476069,-6.05293043789038
6.086086267701696,3.065603584065751,-0.12356853681054068,-3.0756293631970912,3.9954661892475967,-3.4671892230291346
6.116742303542353,3.105558245958227,-0.1543248304425116,-3.1103012554273826,1.974764608708273,-0.5851030867748832
6.1477978860019356,3.1253058920453096,-0.18542784299678544,-3.116152286295131,-0.13237617876853103,2.4275753631793107
6.1790509449223885,3.1239821302576245,-0.21658936585973676,-3.091876532663338,-2.188827132654161,5.376187371214462
6.210290766224965,3.1020938589310827,-0.24750813118637013,-3.0381146589511934,-4.0641399086832255,8.075008178946154
6.241311704814276,3.0614524598442503,-0.27788927777588207,-2.957364577161732,-5.65982937052179,10.382899173962398
6.271926229412719,3.0048541661390322,-0.3074629235474994,-2.853535585422108,-6.923683815612477,12.223585764953667
6.301974771074109,2.9356173279829076,-0.33599827940172045,-2.7312997277725715,-7.849732823772392,13.58579505755296
6.331330944353938,2.857119999745184,-0.3633112766794462,-2.595441777197042,-8.467341223320549,14.508093705935357
6.3599021443513895,2.7724465875119786,-0.3892656944514166,-2.450360840137688,-8.82612751176937,15.05781285077668
6.387626610226509,2.684185312394285,-0.4137693028527935,-2.299782711629921,-8.98239468540692,15.31204287235891
6.4144684633504525,2.5943613655402156,-0.4367671299690927,-2.146662282906332,-8.9898059056754,15.34454311233043
6.440412077005854,2.5044633064834616,-0.45823375279815604,-1.993216851783028,-8.894472097795692,15.218816159218147
6.465456710070689,2.4155185855055046,-0.47816592131598634,-1.8410286901908466,-8.733338875277992,14.985799794670855
6.489611895925744,2.3281851967527247,-0.49657620821789483,-1.691170692244138,-8.534536557098248,14.684312235559025
6.512893747893272,2.242839831181742,-0.5134879151403362,-1.544327569888548,-8.318642711772544,14.342782845763022
6.53532214620509,2.1596534040640165,-0.5289311908392217,-1.4008997414309177,-8.100198624891286,13.981346921245144
6.5569186802457295,2.0786514178151037,-0.5429401882535309,-1.2610862722184661,-7.889137926698468,13.613825365213016
6.5777051944238805,1.999760038548119,-0.5555510509757156,-1.1249480185663359,-7.69198903583351,13.249394213323797
6.597702794809361,1.9228401481897839,-0.566800531161379,-0.9924540764330979,-7.512823963963017,12.893904035357268
6.616931196291259,1.8477119085501537,-0.57672507192571,-0.8635150360795252,-7.353977018901865,12.550880712203742
6.63540831537676,1.774172138361135,-0.5853602222865052,-0.7380062289574878,-7.216574496423457,12.222263860970113
6.653150036760372,1.7020063933969005,-0.5927402845760801,-0.6157835903477866,-7.100917661700188,11.908941109754775
6.670170100694341,1.6309972167798987,-0.5988981204795579,-0.49669417925023884,-7.006755841247948,11.611128975282265
6.68648007286214,1.5609296583674193,-0.6038650622720603,-0.3805828894974162,-6.933479150255276,11.32864107799669
6.702089369445814,1.4915948668648664,-0.6076708911670344,-0.2672964787174493,-6.880253437579831,11.061074873278253
6.717005318114463,1.4227923324890681,-0.6103438559542089,-0.1566857299846668,-6.846114217897576,10.807940073429009
6.731233241439353,1.3543311903100923,-0.6119107132540555,-0.048606329250376695,-6.830031804002335,10.568745664687505
6.744776553342454,1.2860308722700688,-0.6123967765465593,0.05708112739649836,-6.830956415506551,10.343057700418475
6.757636862065155,1.2177213081150033,-0.6118259652725944,0.16051170440068313,-6.8478495094117555,10.130536580685755
