th1 (rad),w1 (rad/s),th2 (rad),w2 (rad/s)
0.6855911786304133,-1.1239318228697692,2.518943438029597,-1.3239109483781821
0.6743518604017156,-1.188696879537013,2.505704328545815,-1.4100725668754224
0.6624648916063455,-1.251624931755258,2.4916036028770607,-1.4981384937685782
0.6499486422887929,-1.3125502017370407,2.476622217939375,-1.5881567733266266
0.6368231402714225,-1.3712968073363712,2.4607406502061084,-1.68016168191844
0.6231101721980588,-1.427678488631373,2.443939033386924,-1.77417314213779
0.6088333873117451,-1.4814984323846734,2.4261973019655465,-1.8701962408811137
0.5940184029878983,-1.5325492102556417,2.4074953395567356,-1.9682208762353817
0.5786929108853419,-1.5806128469980765,2.387813130794382,-2.068221560692835
0.5628867824153612,-1.6254610347316103,2.3671309151874538,-2.170157410680395
0.546632172068045,-1.6668555086024837,2.3454293410806497,-2.2739723545633947
0.5299636169820202,-1.7045485976190344,2.3226896175350156,-2.379595593032847
0.5129181310058298,-1.7382839620248296,2.298893661604687,-2.486942346980979
0.49553529138558156,-1.7677975251251898,2.2740242381348774,-2.5959149284767484
0.47785731613432963,-1.7928186028875503,2.24806508885011,-2.706404170142186
0.4599291301054541,-1.8130712287881556,2.221001047148688,-2.818291246988594
0.44179841781757256,-1.8282756642026123,2.192818134678802,-2.931449922515451
0.42351566117554645,-1.8381500761045377,2.1635036354536474,-3.045749247567355
0.40513416041450107,-1.8424123539704218,2.1330461429779737,-3.161056736113529
0.3867100368747968,-1.8407820266857875,2.1014355756168386,-3.2772420368741373
0.36830221660793894,-1.8329822280862942,2.0686631552480974,-3.394181113787634
0.349972394327076,-1.8187416468177016,2.034721344110221,-3.511760942037692
0.331784977858899,-1.7977963828267163,1.999603734689844,-3.6298847202182776
0.3138070140306318,-1.7698916194609755,1.9633048874876613,-3.7484775938337918
0.2961080978360221,-1.73478300740723,1.9258201115493234,-3.8674928814616685
0.2787602677619498,-1.6922376451517536,1.8871451827347068,-3.986918793402355
0.2618378913104322,-1.6420345309858908,1.8472759948006832,-4.106785634404436
0.2454175460005733,-1.5839643545391953,1.8062081384566389,-4.227173487925826
0.22957790245518134,-1.5178284922207133,1.7639364035773806,-4.348220390015862
0.2143996175329742,-1.4434370717658416,1.720454199677222,-4.470131016479577
0.1999652468153158,-1.3606059776506372,1.6757528895124263,-4.59318592691367
0.18635918703880944,-1.2691526834945075,1.6298210302432896,-4.7177514315016715
0.17366766020386437,-1.168890823172324,1.5826435159282728,-4.84429016681405
0.16197875197214112,-1.059623455250269,1.5342006142601323,-4.973372477057222
0.15138251741963843,-0.9411350462954174,1.48446688948956,-5.105688682420328
0.14197116695668427,-0.8131823166274409,1.4334100026653567,-5.242062250268328
0.13383934379040985,-0.6754842906690427,1.3809893801626734,-5.383463722422921
0.12708450088371942,-0.5277122316810735,1.327154742938444,-5.531024913642914
0.12180737856690868,-0.36948071879224165,1.2718444938020148,-5.68605224560095
0.11811257137898626,-0.20034211781098266,1.2149839713460053,-5.850036879813241
0.11610915020087643,-0.0197884056820056,1.1564836025478729,-6.024657153097147
0.11591126614405638,0.17273276287735453,1.0962370310169014,-6.211765003053281
0.11763859377282992,0.3777758757206646,1.0341193809863687,-6.41334143675357
0.12141635253003658,0.5958090524904307,0.969985966618833,-6.631394789654691
0.1273744430549409,0.827045399982527,0.9036720187222861,-6.867756843946979
0.13564489705476615,1.0711395254622107,0.8349944502828163,-7.123702686947362
0.14635629230938826,1.326665877313018,0.7637574234133426,-7.399279402605414
0.15962295108251845,1.590266855403181,0.6897646293872884,-7.69218581294176
0.17552561963655025,1.8553620180987431,0.6128427712578708,-7.9960434267634355
0.1940792398175377,2.110435025539133,0.5328823369902365,-8.298059729520622
0.21518359007292903,2.3373411628000795,0.4499017396950302,-8.576655776784852
0.23855700170092983,2.510980069475042,0.3641351819271817,-8.800857061944205
0.26366680239568024,2.6026993134464975,0.27612661130773963,-8.934652840527464
0.28969379553014524,2.5891253102895115,0.186780082902465,-8.948641744344929
0.3155850486330404,2.4634481622862423,0.09729366545901572,-8.834941028975397
0.3402195302559028,2.2404949642469085,0.008944255169261742,-8.61365627658882
0.3626244798983719,1.9499026057077409,-0.07719230759662646,-8.32341351678274
0.3821235059554493,1.6231516138926871,-0.16042644276445384,-8.004013756378248
0.3983550220943762,1.2845093512896322,-0.2404665803282363,-7.684744704502988
0.4112001156072725,0.9490050978043614,-0.3173140273732662,-7.382225068805718
0.4206901665853161,0.6244193331077423,-0.39113627806132334,-7.103457239480355
0.4269343599163935,0.314014979500484,-0.4621708504561269,-6.849654573984756
0.4300745097113983,0.01862676178292605,-0.5306673961959745,-6.619065243482775
0.4302607773292276,-0.2620503078343913,-0.5968580486308023,-6.408660432007455
0.42764027425088363,-0.5287529901187029,-0.6609446529508768,-6.215030424088899
0.4223527443496966,-0.7822920046370718,-0.7230949571917658,-6.034818800967923
0.4145298243033259,-1.023387655359434,-0.783443145201445,-5.8649115682143265
0.40429594774973154,-1.252607121353254,-0.8420922608835882,-5.7025046335771785
0.391769876536199,-1.4703532236640666,-0.89911730721936,-5.545114976063917
0.3770663442995583,-1.676878171115155,-0.9545684569799991,-5.390568467141151
0.3602975625884068,-1.872308562549348,-1.0084741416514107,-5.236980176081687
0.3415744769629133,-2.056674608379795,-1.0608439434122277,-5.0827341996882875
0.3210077308791154,-2.229939963541583,-1.1116712854091104,-4.92646565354541
0.29870833124369955,-2.392030293423319,-1.1609359419445646,-4.767045329568103
0.27478802830946636,-2.542859554481201,-1.2086063952402457,-4.6035665591864365
0.24935943276465436,-2.6823533990058723,-1.25464206083211,-4.435333455000535
0.22253589877459565,-2.810469336544724,-1.2989953953821154,-4.261849644400827
0.1944312054091484,-2.9272134191607786,-1.3416138918261236,-4.082806705229407
0.16515907121754062,-3.0326533209721296,-1.3824419588784176,-3.898071685676251
0.13483253800781933,-3.1269277792542707,-1.42142267573518,-3.707673293497871
0.10356326021527662,-3.2102524627375324,-1.4584994086701588,-3.511786546688879
0.0714607355879013,-3.282922431789373,-1.4936172741370477,-3.3107158719784056
0.038631511270007565,-3.3453114501849974,-1.5267244328568317,-3.1048768077357085
0.005178396768157588,-3.3978684932464196,-1.5577732009341887,-2.894776606743435
-0.02880028816430661,-3.4411118668431064,-1.5867209670016231,-2.680994137591307
-0.06321140683273768,-3.4756214019817073,-1.6135309083775362,-2.464159549506941
-0.09796762085255475,-3.5020292180127037,-1.6381725038726056,-2.2449341948635957
-0.1329879130326818,-3.521009553088167,-1.6606218458212416,-2.0239912989004245
-0.16819800856356346,-3.5332681442045084,-1.680861758810246,-1.8019978314911902
-0.20353069000560853,-3.5395316030453574,-1.6988817371251579,-1.5795979765458013
-0.2389260060360621,-3.540537180993685,-1.714677716890616,-1.3573985172594545
-0.2743313778459989,-3.5370232508746287,-1.7282517020632104,-1.1359563670128847
-0.3097016103547452,-3.529720758308275,-1.7396112657333394,-0.9157683836159943
-0.34499881793782794,-3.5193458160315676,-1.7487689495694994,-0.6972635159974452
-0.3801922760981436,-3.5065935337963965,-1.7557415847294737,-0.48079725412314783
-0.4152582114361076,-3.4921330972710583,-1.7605495572707053,-0.26664829089040765
-0.4501795424088182,-3.4766040334247568,-1.7632160401796093,-0.05501726415845981
-0.48494558274306576,-3.460613527375275,-1.763766212821194,0.15397256765198292
-0.5195517180168185,-3.4447345851425806,-1.7622264871446742,0.36027284786387176
-0.5539990638682444,-3.4295047647642223,-1.7586237586660356,0.5639059242487451
-0.5882941115158866,-3.4154251192436003,-1.752984699423548,0.7649589268590673
-0.6224483627083226,-3.4029589009309964,-1.7453351101549575,0.9635759825457056
-0.6564779517176326,-3.3925294577935823,-1.7356993503295004,1.1599482399688272
-0.6904032462955684,-3.3845165947719367,-1.724099867929812,1.3543011242908771
-0.7242484122432877,-3.379250463371643,-1.7105568566869034,1.5468779041898097
-0.7580409168770041,-3.3770017653328583,-1.6950880776450052,1.7379182199437773
-0.7918109345303327,-3.3779667025179587,-1.6777088954455674,1.9276296811781504
-0.8255906015555122,-3.3822446825110695,-1.658432598633786,2.1161500094231944
-0.8594130483806229,-3.38980634458084,-1.637271098539554,2.3034965402487035
-0.8933111118264313,-3.400449131908327,-1.614236133137067,2.4894993907708964
-0.9273156031455145,-3.413737684990576,-1.589341139229358,2.6737146309746107
-0.9614529799954203,-3.42892731004261,-1.5626039929196118,2.855315122575321
-0.9957422530958464,-3.4448716111589257,-1.5340508416938585,3.032960590593917
-1.0301909692074356,-3.4599214241480816,-1.5037212357879193,3.204656852795969
-1.0647901834489164,-3.471832965214089,-1.4716746672599597,3.367629042225437
-1.0995085131010573,-3.477719178345291,-1.4379983768377054,3.518255887331538
-1.1342857048845103,-3.474096753740822,-1.40281581796439,3.6521376133183563
-1.1690266724219185,-3.45709215577907,-1.3662944418312064,3.7643847533371235
-1.2035975939797092,-3.422854175296798,-1.3286505942978353,3.850192511592738
-1.2378261357326772,-3.3681574782218853,-1.290148669181908,3.9056768221364973
-1.271507710514896,-3.291073178907509,-1.251091900960543,3.928796900263447
-1.304418442303971,-3.191480658122444,-1.2118039319579086,3.920048196894777
-1.3363332488851956,-3.07119070583518,-1.1726034499889608,3.882606577599304
-1.3670451559435473,-2.9335935453667816,-1.1337773842129677,3.8218079749092353
-1.396381091397215,-2.7829635801006978,-1.0955593044638754,3.7441539505459605
-1.424210727198222,-2.623691645211934,-1.0581177649584157,3.656225951865929
-1.4504476436503415,-2.4596884549999496,-1.0215555054397565,3.563849467456435
-1.475044528200341,-2.2940649723585707,-0.9859170107651921,3.471653238859779
-1.4979851779239268,-2.129062158578016,-0.9512004783765944,3.382981186253593
-1.519275799509707,-1.9661394497138722,-0.9173706665140584,3.3000270437517907
-1.5389371940068457,-1.8061320685250561,-0.8843703960765406,3.224064048594128
-1.5569985146920962,-1.6494165568893009,-0.8521297555905992,3.1556841176311825
-1.5734926802609892,-1.4960542782607062,-0.8205729144142874,3.0950041273620057
-1.5884532230435964,-1.3459033453928573,-0.7896228731406673,3.0418262045378
-1.601912256497525,-1.1987002494237555,-0.7592046110952893,2.995754163134227
-1.6138992589917625,-1.0541166538739848,-0.729247069463947,2.956274061719901
-1.6244404255305023,-0.9117974994835579,-0.699684328846748,2.922807752744559
-1.6335584005253379,-0.7713857767851582,-0.6704562513193024,2.894747132061899
-1.6412722582931893,-0.632538132024263,-0.6415087799986834,2.871475081732195
-1.647597639613432,-0.49493434461047137,-0.6127940291813614,2.8523774864713394
-1.6525469830595367,-0.3582828037048546,-0.584270254316648,2.8368494066110386
-1.6561298110965852,-0.22232343170574898,-0.5559017602505376,2.824297525053417
-1.6583530454136426,-0.0868290171082173,-0.5276587850000034,2.814140299431996
-1.6592213355847247,0.04839441786157961,-0.49951738200568346,2.8058067767276538
-1.658737391406109,0.18350781962043847,-0.4714593142384069,2.798734706575314
-1.6569023132099046,0.31863963595159145,-0.4434719671726538,2.79236837508164
-1.6537159168503885,0.45388654389371286,-0.4155482834218374,2.7861564392192353
-1.6491770514114514,0.5893143075169496,-0.3876867190296451,2.7795499488005198
-1.643283908336282,0.7249587469266137,-0.3598912195416399,2.7720006820801526
-1.6360343208670158,0.8608268307311162,-0.3321712127208384,2.7629598808375118
-1.6274260525597046,0.9968979243689905,-0.30454161391246326,2.7518774436149402
-1.6174570733160147,1.1331252393415014,-0.27702283947631384,2.7382016163603877
-1.6061258209225997,1.2694375355963021,-0.24964082331270995,2.721379204440581
-1.5934314455666367,1.4057411323312559,-0.22242703126830415,2.7008563163838466
-1.5793740342433242,1.5419222821148306,-0.1954184681044657,2.676079636095125
-1.563954811422176,1.6778499599261179,-0.16865767174351445,2.6464982055329713
-1.5471763118229147,1.8133791128157322,-0.14219268968818474,2.6115656832402285
-1.5290425206947573,1.9483544076298784,-0.11607703285578246,2.570743025299888
-1.5095589766184585,2.082614503891202,-0.09036960260278357,2.523501514152194
-1.4887328315795465,2.2159968668342906,-0.06513458746126162,2.4693260374217116
-1.4665728629112036,2.3483431222130764,-0.0404413270870445,2.4077184938682987
-1.4430894316890728,2.479504940445268,-0.016364142148361516,2.3382011774275946
-1.4182943822846201,2.609350423717708,0.007017869625914431,2.2603199638944305
-1.392200878047443,2.7377709567999586,0.029621069264858736,2.1736470991717556
-1.3648231684794434,2.8646884716088126,0.051357540256576295,2.077783364370789
-1.3361762837633553,2.9900630682511804,0.07213537390028418,1.9723593727491253
-1.3062756530808435,3.113900932595335,0.09185896762777543,1.8570357379521532
-1.27513664375489,3.236262493532913,0.11042932500729696,1.7315018437962602
-1.242774018819561,3.357270772855392,0.12774434344525956,1.5954729445267408
-1.2092013110910071,3.477119897345652,0.14369907289052697,1.4486853329815106
-1.1744301121175507,3.596083765493202,0.15818592622034208,1.2908893348970873
-1.1384692744626186,3.714524887626193,0.17109481956931297,1.121839924594419
-1.1013240255863566,3.8329034427307027,0.18231321881525717,0.9412848172183514
-1.0629949911590495,3.9517866074581636,0.19172606698744069,0.7489499878421484
-1.0234771250844679,4.071858194328403,0.19921556686586217,0.5445227206380522
-0.9827585431411838,4.193928554617073,0.2046607940722427,0.3276325431298972
-0.9408192575950131,4.318944500793598,0.20793711950354166,0.09783082560030665
-0.8976298125870771,4.447998586331469,0.20891542775954472,-0.14542944333209307
-0.8531498267237624,4.5823362781987145,0.2074611333262238,-0.40281092269580143
-0.8073264639417752,4.723358076056814,0.20343302409926578,-0.6751012226216849
-0.760092883181207,4.872610966685874,0.19668201187304893,-0.9632053598544448
-0.7113667735143483,5.03175889570604,0.1870499582745045,-1.2681057387623818
-0.6610491845572879,5.20251378912916,0.17436890088688067,-1.590762472878825
-0.6090240466659963,5.3864949298991744,0.1584612761580924,-1.9319075248628665
-0.5551590973670045,5.584962442796643,0.13914220090946375,-2.2916552656230396
-0.4993094729390381,5.798338352840259,0.11622564825323335,-2.6688071782428966
-0.4413260894106355,6.025390701733177,0.08953757647080439,-3.059676440426264
-0.38107218239330376,6.2619397950384785,0.05894081206654175,-3.4562383112026884
-0.31845278444291897,6.499036946234343,0.02437842895451487,-3.8435474210285694
-0.25346241498057553,6.720957417168259,-0.014057045255770825,-4.196925819454954
-0.18625284080889293,6.90428449043843,-0.056026303450320364,-4.480759072921275
-0.11720999590450863,7.020626607535442,-0.10083389417953312,-4.652530919697872
-0.04700372982915421,7.045291751149539,-0.14735920337651184,-4.675399059726459
0.02344918768234118,6.969565531090813,-0.19411319397377644,-4.535935844285741
0.09314484299324932,6.807284809288226,-0.23947255241663384,-4.2537279380960324
0.1612176910861316,6.58833387610872,-0.28200983179759415,-3.872227223389305
0.2271010298472188,6.344596318855173,-0.3207321040314872,-3.4386189576999926
0.29054699303577053,6.099908972422345,-0.3551182936084871,-2.9891868337104013
0.351546082759994,5.867942013564262,-0.3850101619455911,-2.5459431594034063
0.41022550289563664,5.654577805075231,-0.4104695935396252,-2.1197813764187443
0.466771280946389,5.461012096595015,-0.43166740730381264,-1.714789269415392
0.5213814019123392,5.286044260476763,-0.44881529999796654,-1.3314927045762635
0.5742418445171068,5.127437692322793,-0.4621302270437292,-0.9688133634809857
0.6255162214403347,4.9826358176813015,-0.47181836067853905,-0.625118211018967
0.6753425796171477,4.849105827057609,-0.4780695427887287,-0.29873481607886837
0.7238336378877238,4.7244867172975615,-0.48105689094951737,0.011820801686826476
0.7710785050606994,4.606641023498174,-0.48093868293264913,0.3077630454391666
0.8171449152956811,4.493662345407515,-0.47786105247825744,0.5900272780548541
0.8620815387497562,4.383864747584176,-0.4719607796977089,0.8592934492373518
0.905920186225598,4.275766497246439,-0.46336784520533536,1.116023471274237
0.9486778511980624,4.168073682250531,-0.452207610492593,1.3605028500983176
0.9903585880205676,4.059665813252707,-0.43860258199160984,1.5928820168520332
1.0309552461530946,3.949583858210835,-0.4226737618230895,1.8132152296964141
1.070451084735203,3.8370204068849536,-0.4045416095261254,2.0214960755378866
1.1088212888040525,3.7213113706368093,-0.3843266487707465,2.21768914013785
1.1460344025104205,3.6019285610754714,-0.362149757369368,2.401757661092302
1.1820536881211752,3.478472543601939,-0.338132180758445,2.5736870965063434
1.2168384135571946,3.350665268283933,-0.31239530979338154,2.7335046131502545
1.250345066240034,3.21834210849904,-0.285060263661879,2.881294557732844
1.2825284873250244,3.0814430694361334,-0.25624731808455053,3.017210037247061
1.3133429180193859,2.9400030532681454,-0.22607521771207992,3.14148080141661
1.3427429485520672,2.794141179102477,-0.19466040969791382,3.2544176892250536
1.370684360343092,2.644049249633942,-0.16211623280566329,3.356413967621222
1.3971248528394316,2.4899795303934122,-0.12855209312945107,3.447943948953265
1.4220246481433656,2.3322320605002163,-0.09407265363991842,3.5295593204482714
1.4453469687483678,2.1711417458445323,-0.0587770604354357,3.601883651230131
1.4670583862068132,2.0070654975374533,-0.02275822392313439,3.665605558307563
1.4871290411821878,1.8403696720014748,0.01389783165994124,3.7214710122259613
1.5055327379022025,1.6714180467141362,0.05111254178220086,3.7702752463051366
1.522246918369344,1.5005605304867555,0.08881529424525222,3.812854702130158
1.5372525236742114,1.3281227628924435,0.1269438412665538,3.850079400441366
1.5505337513031359,1.1543967080439559,0.16544463527096748,3.8828460733608057
1.5620777183835755,0.9796322975656188,0.20427309600457555,3.912072333554867
1.5718740413592316,0.8040301306234366,0.24339381934012422,3.9386920905410268
1.579914342665466,0.6277351997176168,0.28278074024553446,3.9636523549247555
1.5861916946626422,0.4508315843566818,0.322417263794782,3.9879114971732683
1.590700010506209,0.2733380462355992,0.3622963787665147,4.0124389452006035
1.593433390968565,0.09520447622900594,0.40242076821852074,4.038216207221014
1.5943854357308551,-0.0836908045756039,0.44280293029073087,4.066238979900469
1.5935485276850991,-0.2635427853372926,0.48346532008973553,4.097519925087603
1.5909130998317262,-0.44462026700170626,0.5244405193406115,4.133091436792419
1.586466897161709,-0.6272645585105947,0.5657714337085358,4.17400731987639
1.5801942515766032,-0.8118853492363185,0.6075115069072997,4.221341681059341
1.5720753980842401,-0.9989520368119978,0.6497249237178931,4.276182368714529
1.5620858777161202,-1.1889777144873004,0.6924867474050385,4.339614813479362
1.5501961005712472,-1.382491408331692,0.7358828955398321,4.412689876538283
1.5363711864879304,-1.5799918041468743,0.7800097943052149,4.496366018084367
1.5205712684464616,-1.7818724524285596,0.8249734544860585,4.591411507456306
1.502752543922176,-1.9883043544640648,0.8708875695606216,4.698246576822491
1.4828695003775354,-2.199057703554434,0.9178700353288466,4.816699440351422
1.460878923341991,-2.413242940673884,0.9660370297323608,4.9456474956557335
1.4367464939352521,-2.6289583676076838,1.0154935046889182,5.0825244134686205
1.4104569102591753,-2.8428594593653544,1.0663187488236043,5.222712190544887
1.3820283156655218,-3.0497316953261113,1.1185458707290532,5.358929931558572
1.3515309987122606,-3.2422668423123553,1.172135170044639,5.480896382740467
1.319108330289137,-3.4113829372374194,1.2269441338720437,5.575741083332949
1.284994500916763,-3.547460525099602,1.2827015447053731,5.629688228074654
1.249519895665767,-3.642563860006224,1.3389984269861197,5.631118749387335
