th1 (rad),w1 (rad/s),th2 (rad),w2 (rad/s),a1 (rad/s^2),a2 (rad/s^2)
0.27853174154028576,-0.8907371877778013,4.813857349517959,2.559999913866527,-5.071261801345663,9.63735144387448
0.26962436966250775,-0.9414498057912579,4.839457348656624,2.6563734283052716,-5.404463545059779,9.830494231424723
0.2602098716045952,-0.9954944412418557,4.866021082939676,2.754678370619519,-5.759045307752768,10.057334749456391
0.2502549271921766,-1.0530848943193833,4.8935678666458715,2.855251718114083,-6.1372599373962835,10.32233566246776
0.23972407824898279,-1.1144574936933462,4.9221203838270124,2.9584750747387605,-6.5417831381049,10.630532090222989
0.22857950331204932,-1.1798753250743952,4.9517051345744,3.0647803956409905,-6.9757759525314205,10.987623514285426
0.21678075006130537,-1.2496330845997095,4.98235293853081,3.174656630783845,-7.442951927655665,11.40007740977183
0.20428441921530827,-1.3240626038762662,5.014099504838648,3.288657404881563,-7.947646230818453,11.87524199864195
0.1910437931765456,-1.4035390661844507,5.046986078887464,3.4074098248679827,-8.494880979379563,12.421461697262405
0.1770084025147011,-1.4884878759782463,5.081060177136144,3.5316244418406066,-9.090415759595395,13.04818197516939
0.16212352375491862,-1.5793920335742002,5.11637642155455,3.6621062615923003,-9.740763121067632,13.766018251199986
0.1463296034191766,-1.6767996647848766,5.1529974841704735,3.7997664441043,-10.453132991199517,14.586742354580032
0.12956160677132783,-1.7813309946968718,5.190995148611517,3.9456338676501,-11.235242793189073,15.52310353392024
0.1117482968243591,-1.8936834226287627,5.230451487288018,4.1008649029893025,-12.094883718315657,16.588338109346846
0.09281146259807148,-2.0146322598119193,5.271460136317911,4.266748284082771,-13.039055097996936,17.795114487727105
0.07266513999995228,-2.1450228107918887,5.3141276191587385,4.4446994289600426,-14.072347303114281,19.15347912679354
0.05121491189203339,-2.2857462838230314,5.358574613448339,4.636234220227978,-15.194037745210666,20.667069783231057
0.02835744905380308,-2.437686661275138,5.404936955650619,4.842904918060289,-16.393023611318696,22.326386468159093
0.0039805824410516985,-2.601616897388325,5.4533660048312225,5.0661687827418795,-17.639215646209184,24.09720772579468
-0.022035586532831553,-2.7780090538504165,5.504027692658641,5.307140859999826,-18.869401203408092,25.901360401143762
-0.04981567707133572,-2.9667030658844973,5.55709910125864,5.566154464011264,-19.965171995417375,27.58642714005663
-0.0794827077301807,-3.166354785838671,5.612760645898752,5.8420187354118305,-20.72141050191672,28.882130627123722
-0.1111462555885674,-3.3735688908578383,5.67118083325287,6.130840041683068,-20.808924646444886,29.34806757881352
-0.14488194449714578,-3.5816581373222873,5.732489233669701,6.424320717471203,-19.749722053647716,28.338002954833645
-0.18069852587036866,-3.7791553578587647,5.796732440844413,6.7077007470195396,-16.953571410707557,25.04776737294231
-0.21849007944895632,-3.94869107196584,5.863809448314608,6.958178420748963,-11.897603442415846,18.76003080807591
-0.25797699016861475,-4.067667106389998,5.933391232522098,7.145778728829722,-4.498554908434572,9.355172762836082
-0.29865366123251474,-4.112652655474344,6.004849019810395,7.239330456458083,4.481344528465368,-2.1314300508952693
-0.33978018778725816,-4.06783921018969,6.077242324374976,7.21801615594913,13.44714808116836,-13.53092822551584
-0.38045857988915505,-3.9333677293780065,6.149422485934467,7.082706873693971,20.691116413645272,-22.53584319389149
-0.4197922571829351,-3.7264565652415538,6.220249554671407,6.8573484417550565,25.295949776788152,-27.93690140774547
-0.45705682283535065,-3.473497067473672,6.288823039088958,6.577979427677602,27.377561963902117,-29.939569136998628
-0.4917917935100874,-3.199721447834651,6.354602833365734,6.278583736307615,27.63719121790017,-29.534024106933646
-0.5237890079884339,-2.923349535655649,6.41738867072881,5.983243495238279,26.83322465110077,-27.76838941698597
-0.5530225033449904,-2.6550172891446415,6.477221105681193,5.705559601068419,25.52870099385381,-25.409573952224456
-0.5795726762364368,-2.3997302792061035,6.534276701691877,5.451463861546174,24.066332318421527,-22.917017116600324
-0.6035699790284978,-2.159066956021888,6.588791340307339,5.222293690380171,22.627673458908156,-20.52885987167214
-0.6251606485887168,-1.9327902214328065,6.641014277211141,5.01700509166345,21.296118764836915,-18.350534895537745
-0.6444885508030449,-1.7198290337844373,6.691184328127775,4.833499742708073,20.101208415297954,-16.416081551740994
-0.6616868411408893,-1.5188169496314576,6.739519325554856,4.669338927190663,19.045188387815593,-14.724398684835048
-0.6768750106372039,-1.3283650657533017,6.786212714826763,4.5220949403423125,18.117669043596635,-13.25894128108848
-0.6901586612947369,-1.1471883753173353,6.831433664230186,4.389505527531428,17.30329378542047,-11.997808476327942
-0.7016305450479102,-0.9741554374631306,6.8753287195055,4.269527442768148,16.58556290582619,-10.918609239067582
-0.7113720994225415,-0.8082998084048687,6.918023993933182,4.160341350377473,15.94862337196915,-10.000603148804393
-0.7194550975065902,-0.6488135746851772,6.959627407436956,4.060335318889429,15.378015037648606,-9.225467722860996
-0.725943233253442,-0.49503342430869113,7.0002307606258505,3.9680806416608188,14.860900021116707,-8.577402643770908
-0.7308935674965289,-0.34642442409752405,7.039911567042458,3.8823066152231096,14.386049927818009,-8.042936376152767
-0.7343578117375041,-0.20256392481934396,7.078734633194689,3.801877251461582,13.943731308132921,-7.610619033721937
-0.7363834509856976,-0.06312661173801473,7.116753405709305,3.7257710611243624,13.52555902093645,-7.270691030821842
-0.7370147171030778,0.07212897847134978,7.154011116320549,3.653064150816144,13.12435028687224,-7.014768722467695
-0.7362934273183642,0.20337248134007216,7.1905417578287105,3.582916463591467,12.733993216244597,-6.835563926101642
-0.7342597025049635,0.3307124135025181,7.226370922464625,3.5145608243304505,12.349334021618871,-6.726642350107929
-0.7309525783699383,0.45420575371870686,7.2615165307079295,3.4472944008293713,11.966082499130255,-6.682220456411326
-0.7264105208327513,0.5738665787100095,7.295989474716223,3.380472196265258,11.580733321793058,-6.696997981666472
-0.7206718550456511,0.68967391192794,7.3297941966788756,3.3135022164485934,11.190499985780297,-6.766022581458996
-0.7137751159263718,0.801578911785743,7.3629292188433615,3.2458419906340037,10.793258229284055,-6.884582994972802
-0.7057593268085144,0.9095114940785836,7.3953876387497015,3.1769961606842756,10.38749605644306,-7.048127327942668
-0.6966642118677285,1.0133864546430142,7.427157600356544,3.106514887404849,9.972267962067164,-7.252203317557175
-0.6865303473212984,1.1131091342636859,7.458222749230592,3.033992854229277,9.547151467232599,-7.492417690125099
-0.6753992559786615,1.2085806489360118,7.488562677772885,2.959068677328026,9.11220458556607,-7.764411927105415
-0.6633134494893014,1.2997026947916726,7.518153364546166,2.8814245580569717,8.667923312035317,-8.063851923099888
-0.6503164225413847,1.3863819279120257,7.546967610126735,2.8007860388259727,8.215198639518572,-8.38642916793898
-0.6364526032622644,1.4685339143072116,7.574975470514995,2.716921747146583,7.755272950367514,-8.727871233165773
-0.6217672641191923,1.5460866438108867,7.602144687986461,2.6296430348149253,7.289695893816572,-9.08395950635638
-0.6063063976810834,1.6189836027490525,7.62844111833461,2.5388034397513617,6.820280044342396,-9.45055230349554
-0.5901165616535928,1.6871864031924764,7.653829152732124,2.4442979167164065,6.349056745349649,-9.823611701219273
-0.5732446976216681,1.7506769706459728,7.678272131899288,2.3460617997042137,5.878232586270212,-10.199232661322826
-0.5557379279152084,1.8094592965086749,7.70173274989633,2.2440694730909856,5.4101469527840536,-10.57367325830752
-0.5376433349501216,1.8635607660365154,7.724173444627239,2.1383327405079102,4.947231045498034,-10.94338505259906
-0.5190077272897564,1.9130330764914958,7.745556772032319,2.0288988899819196,4.49196869901863,-11.30504286259967
-0.4998773965248415,1.957952763481682,7.765845760932137,1.9158484613559228,4.046859266900973,-11.655573365127877
-0.4802978688900247,1.9984213561506918,7.7850042455456965,1.799292727704644,3.6143827817231857,-11.99218208733768
-0.46031365532851776,2.0345651839679237,7.802997172822743,1.6793709068312672,3.196967562771257,-12.312378440672777
-0.4399680034888385,2.0665348595956363,7.8197908818910555,1.5562471224245393,2.7969604309696336,-12.613998491617245
-0.41930265489288215,2.0945044639053325,7.835353353115301,1.430107137508367,2.416599701267508,-12.89522517346039
-0.3983576102538288,2.1186704609180076,7.849654424490384,1.301154885773763,2.0579911517634155,-13.154605631032778
-0.3771709056446487,2.1392503724356415,7.862665973348122,1.169608829463435,1.7230872081157875,-13.391065372164563
-0.3557784019202923,2.1564812445167996,7.874362061642756,1.0356981757417894,1.413669620998812,-13.603918891814153
-0.3342135894751243,2.1706179407267876,7.884719043400175,0.8996589868236478,1.1313359429702623,-13.792876452121968
-0.31250741006785643,2.1819313001564904,7.893715633268411,0.761730222302428,0.8774901198588498,-13.958046755146336
-0.2906880970662915,2.190706201355079,7.9013329354914354,0.6221497547509647,0.6533374940315325,-14.09993534072718
-0.2687810350527407,2.1972395762953942,7.907554433038945,0.4811504013436929,0.45988446961547286,-14.219438679917229
-0.24680863928978675,2.201838420991549,7.912365937052383,0.3389560145445206,0.29794301384044114,-14.317834108973774
-0.22479025507987124,2.2048178511299534,7.915755497197828,0.1957776734547829,0.16814006884937452,-14.396765949165305
-0.2027420765685717,2.206499251818447,7.9177132739323755,0.05181001396312984,0.07093183239455338,-14.45822836904015
-0.18067708405038724,2.2072085701423925,7.918231374072007,-0.09277226972727165,0.006622743545939587,-14.504545751781457
-0.1586049983489633,2.2072747975778517,7.917303651374734,-0.23781772724508624,-0.024611108826706054,-14.538351514163937
-0.13653225037318478,2.2070286864895845,7.914925474102283,-0.3832012423867256,-0.022694542179177227,-14.562566470252431
-0.11446196350828894,2.206801741067793,7.911093461678416,-0.52882690708925,0.012377726482398791,-14.58037792973922
-0.09239394609761101,2.206925518332617,7.905805192607523,-0.6746306863866421,0.08057511565504143,-14.595220757992006
-0.07032469091428484,2.2077312694891673,7.899058885743656,-0.8205828939665623,0.18186766672443203,-14.610761594970477
-0.048247378219393164,2.2095499461564114,7.890853056803991,-0.966690509916267,0.31626437866922946,-14.630887326023672
-0.02615187875782905,2.212712589943104,7.881186151704828,-1.1129993831765037,0.48385275180604354,-14.65969870920503
-0.004024752858398008,2.217551117461164,7.870056157873063,-1.259596370268554,0.6848388382415693,-14.701509773355363
0.018150758316213635,2.22439950584358,7.857460194170377,-1.4066114680021076,0.9195869614856408,-14.76085317600157
0.040394753374649435,2.233595375458436,7.8433940794903565,-1.5542199997621233,1.1886580011068848,-14.84249109164568
0.0627307071292338,2.245481955469505,7.827851879492735,-1.7026449106785801,1.4928446503258355,-14.951430289319969
0.08518552668392886,2.2604104019727633,7.8108254303859495,-1.85215921357178,1.8332012088126455,-15.092938687788898
0.10778963070365649,2.27874241406089,7.792303838250231,-2.003088600449669,2.211064061147682,-15.272558579071688
0.1305770548442654,2.3008530546723667,7.772272952245735,-2.155814186240386,2.628056691191199,-15.496108456878845
0.15358558539098907,2.3271336215842786,7.7507148103833305,-2.3107752708091747,3.086069393540823,-15.769660296290075
0.17685692160683186,2.357994315519687,7.727607057675239,-2.468471873772075,3.5871979876508804,-16.099471135998066
0.20043686476202874,2.3938662953961956,7.702922338937518,-2.629466585132056,4.1336166153472504,-16.491835250283604
0.2243755277159907,2.435202461549668,7.676627673086197,-2.794384937634892,4.727345270191662,-16.95280350711118
0.24872755233148738,2.4824759142515846,7.648683823709848,-2.963912972706004,5.369850320137346,-17.48768585016273
0.2735523114740032,2.536174417452958,7.619044693982788,-3.138789831207631,6.061382001527514,-18.100205673638506
0.2989140556485328,2.596788237468233,7.587656795670712,-3.3197918879440165,6.799901453188362,-18.791103764912556
0.32488193802321513,2.664787252000117,7.554458876791272,-3.5077029255931422,7.579375503560434,-19.555886082599237
0.3515298105432163,2.740581007035721,7.519381847535341,-3.7032617864191346,8.387116740530226,-20.381268647701855
0.3789356206135735,2.8244521744410234,7.482349229671149,-3.907074472896153,9.199727425055993,-21.23970442201496
0.4071801423579837,2.9164494486915835,7.443278484942187,-4.1194715171163026,9.977110613910318,-22.081238051850775
0.43634463684489955,3.016220554830687,7.402083769771024,-4.34028389763481,10.654066516096048,-22.821997699815146
0.4665068423932064,3.1227612199916472,7.358680930794676,-4.568503874632962,11.129501187689264,-23.32931972885251
0.4977344545931229,3.2340562318685397,7.312995892048346,-4.801797071921487,11.254852489717232,-23.40566486707478
0.5300750169118082,3.346604756765712,7.264977921329131,-5.035853720592235,10.826938910316514,-22.778454831569068
0.5635410644794654,3.454874145868877,7.214619384123209,-5.2636382689079255,9.596760568111897,-21.111724674060508
0.5980898059381542,3.550841751549996,7.1619830014341295,-5.474755515648531,7.312920597039448,-18.06541879415819
0.6335982234536541,3.6239709575203904,7.107235446277644,-5.655409703590113,3.8170517194135196,-13.426426518912503
0.6698379330288581,3.6621414747145256,7.050681349241743,-5.789673968779238,-0.8192419403809535,-7.296788298342144
0.7064593477760033,3.653949055310716,6.992784609553951,-5.8626418517626595,-6.188367861166485,-0.23857766949423095
0.7429988383291104,3.592065376699051,6.934158191036325,-5.865027628457602,-11.590031224953822,6.788304638155793
0.7789194920961009,3.476165064449513,6.875507914751749,-5.797144582076044,-16.270407379651104,12.758460004295278
0.813681142740596,3.313460990653002,6.817536468930989,-5.669559982033091,-19.721182180839865,16.9928706283497
0.846815752647126,3.1162491688446035,6.760840869110658,-5.499631275749594,-21.822672306137104,19.351495832997152
0.8779782443355721,2.8980224457832326,6.705844556353163,-5.306116317419622,-22.766411912483928,20.120399587591194
0.9069584687934045,2.6703583266583935,6.652783393178966,-5.10491232154371,-22.877312190638996,19.762940290585615
0.9336620520599884,2.4415852047520037,6.601734269963529,-4.907282918637854,-22.47099009614638,18.7229865263647
0.9580779041075085,2.2168753037905398,6.55266144077715,-4.720053053374207,-21.78980081653513,17.338636436233873
0.9802466571454139,1.9989772956251883,6.505460910243408,-4.546666689011869,-20.995374791790336,15.83409720855263
1.0002364301016657,1.789023547707285,6.4599942433532895,-4.388325716926342,-20.184946376054544,14.343799933262273
1.0181266655787387,1.5871740839467394,6.416110986184026,-4.24488771759372,-19.411546138512144,12.941176431376263
1.033998406418206,1.393058622561618,6.373662109008088,-4.115475953279957,-18.70042208725742,11.661749294373191
1.0479289926438222,1.2060544016890438,6.332507349475288,-3.9988584603362254,-18.060403815819516,10.518959006103348
1.0599895366607126,1.0254503635308485,6.292518764871926,-3.893668870275192,-17.491132169196113,9.514138985838901
1.0702440402960212,0.8505390418388874,6.253582076169174,-3.7985274804168028,-16.987429721886357,8.642477775893592
1.07874943071441,0.6806647446200238,6.215596801365006,-3.712102702657867,-16.541848926703118,7.896439787292576
1.0855560781606104,0.5152462553529926,6.178475774338428,-3.633138304784941,-16.14611144521655,7.26764781544816
1.0907085407141404,0.35378514090082713,6.142144391290579,-3.5604618266304593,-15.791892936943594,6.747861537864304
1.0942463921231487,0.1958662115313912,6.106539773024274,-3.492983211251816,-15.471230690120036,6.3294368545846496
1.0962050542384625,0.041153904630190835,6.071609940911755,-3.4296888427059695,-15.17671931041494,6.005494039953015
1.0966165932847645,-0.11061328847395857,6.037313052484696,-3.369633902306439,-14.901591212053278,5.76992762359794
1.095510460400025,-0.25962920059449135,6.003616713461631,-3.31193462607046,-14.639737711957878,5.617334572059144
1.09291416839408,-0.40602657771407014,5.9704973672009265,-3.2557612803498683,-14.385702323713225,5.542904398032773
1.0888539026169393,-0.5498836009512024,5.937939754397428,-3.200332236369541,-14.134663634698303,5.542295763510104
1.0833550666074272,-0.6912302372981853,5.905936432033733,-3.1449092787344397,-13.882416840956111,5.611513227489928
1.0764427642344454,-0.8300544057077465,5.8744873392463886,-3.0887941464595405,-13.625358180698424,5.746791614026322
1.068142220177368,-0.9663079875147307,5.8435993977817935,-3.0313262303192774,-13.360473718077355,5.9444920385154765
1.0584791403022207,-1.0999127246955043,5.8132861354786005,-2.9718813099341226,-13.08533234619183,6.201011754424858
1.0474800130552657,-1.2307660481574225,5.783567322379259,-2.909871192389874,-12.798082013357808,6.512708981509347
1.0351723525736916,-1.3587468682910007,5.75446861045536,-2.8447441025747806,-12.497447744813503,6.8758433485807
1.0215848838907815,-1.4837213457391356,5.726021169429613,-2.7759856690889735,-12.182729867595288,7.286532296304481
1.0067476704333902,-1.6055486444150886,5.698261312738723,-2.7031203461259286,-11.853800852543007,7.740723605171374
0.9906921839892393,-1.7240866529405188,5.671230109277464,-2.625713110074215,-11.511099307087907,8.23418406679371
0.9734513174598342,-1.839197646011398,5.644972978176722,-2.543371269406278,-11.155619850976098,8.762504164266218
0.9550593409997201,-1.950753844521159,5.6195392654826595,-2.4557462277636155,-10.788897862445765,9.321118451582645
0.9355518025545085,-2.0586428231456164,5.594981803205023,-2.362535043247789,-10.412988379863021,9.905341117291853
0.9149653743230524,-2.1627727069442466,5.571356452772545,-2.2634816320748707,-10.030438772783118,10.510415985071376
0.8933376472536099,-2.2630770946720777,5.548721636451797,-2.158377472224157,-9.644255148496962,11.131579949311812
0.8707068763068891,-2.3595196461570476,5.527137861729555,-2.0470616727310387,-9.257862828106111,11.764138575718981
0.8471116798453187,-2.4520982744381086,5.5066672450022445,-1.9294202869738488,-8.875061602898183,12.40355232657755
0.8225906971009376,-2.5408488904670903,5.487373042132506,-1.8053847637080733,-8.49997685923074,13.045531611772075
0.7971822081962666,-2.6258486590593977,5.469319194495426,-1.6749294475903524,-8.137008028361613,13.686138637133473
0.7709237216056727,-2.7072187393430136,5.4525699000195225,-1.5380680612190176,-7.790776164030633,14.321893841243316
0.7438515342122426,-2.7851265009833197,5.437189219407332,-1.3948491228065845,-7.466072759094518,14.949884602194645
0.7160002692024094,-2.8597872285742647,5.423240728179267,-1.245350276784638,-7.167812163516072,15.567873877654568
0.6874023969166668,-2.9314653502094252,5.41078722541142,-1.0896715380080924,-6.9009901362497175,16.174406530133634
0.6580877434145725,-3.000475251571922,5.399890510031339,-0.927927472706756,-6.670651126013485,16.7689112880189
0.6280829908988533,-3.0671817628320572,5.390611235304272,-0.7602383598265671,-6.481866798736531,17.351796584534814
0.5974111732705327,-3.1320004308194225,5.383008851706006,-0.5867203939812189,-6.339728072667219,17.924538852202083
0.5660911689623385,-3.1953977115460948,5.377141647766194,-0.407475005459198,-6.249352430108891,18.489762132664097
0.5341371918468775,-3.257891235847184,5.3730668977116025,-0.22257738413255704,-6.215907461322559,19.051307923360614
0.5015582794884056,-3.3200503104604095,5.370841123870277,-0.0320643048989509,-6.244650317448539,19.61429374932355
0.4683577763838015,-3.3824968136348947,5.370520480821288,0.16407863259428462,-6.34098075710785,20.18515758053129
0.43453280824745255,-3.4459066212059732,5.372161267147231,0.36593020839959756,-6.510502334231264,20.771682206978724
