th1 (rad),w1 (rad/s),th2 (rad),w2 (rad/s),a1 (rad/s^2),a2 (rad/s^2)
5.2761272575977465,0.7913785408957502,2.2627174108734573,2.9299620190678692,7.935196788032776,0.4039405654668615
5.284041043006704,0.8707305087760779,2.292017031064136,2.934001424722538,7.860558892175883,0.5259731333285638
5.292748348094465,0.9493360976978368,2.3213570453113617,2.9392611560558235,7.791153823551667,0.6644253909342414
5.302241709071443,1.0272476359333536,2.35074965687192,2.945905409965166,7.7263730447423224,0.8193051701435294
5.312514185430777,1.1045113663807768,2.3802087109715715,2.9540984616666015,7.665438555343638,0.9903777627409782
5.323559299094584,1.1811657519342131,2.4097496955882374,2.964002239294011,7.607433844961337,1.1772105941790214
5.335370956613926,1.2572400903838266,2.4393897179811774,2.975774345235801,7.551331220875749,1.3792118147252923
5.347943357517765,1.332753402592584,2.4691474614335354,2.989566463383054,7.496014965406244,1.5956622929219766
5.361270891543691,1.4077135522466464,2.499043126067366,3.005523086312274,7.440300194656877,1.8257410366440086
5.375348027066157,1.482116554193215,2.5290983569304886,3.023780496678714,7.382947587727293,2.068544438053409
5.39016919260809,1.555946030070488,2.5593361618972756,3.044465941059248,7.322674349808362,2.323099966708042
5.4057286529087945,1.6291727735685715,2.589780821307868,3.0676969407263286,7.2581618843911695,2.5883750509884345
5.42202038064448,1.7017543924124832,2.6204577907151316,3.093580691236213,7.188060700036231,2.86328192227449
5.439037924568605,1.7736349994128455,2.651393597627494,3.1222135104589577,7.1109930847436775,3.146679175792181
5.456774274562733,1.8447449302602823,2.682615732732083,3.1536803022168796,7.025554061800344,3.4373707487647565
5.475221723865336,1.9150004708782857,2.714152535754252,3.188054009704527,6.930311107538999,3.7341029474415572
5.4943717285741185,1.9843035819536756,2.7460330758512974,3.2253950391789425,6.823803073045175,4.035560082219156
5.514214764393655,2.052541612684127,2.778287026243087,3.265750640001134,6.704538715114198,4.340359203169305
5.5347401805204965,2.119586999835269,2.810944532643098,3.309154232032827,6.5709952111702,4.647044372730017
5.5559360505188495,2.185296951946971,2.8440360749634266,3.355624675760127,6.4216170112447335,4.954080871893765
5.57778902003832,2.2495131220594184,2.877592321721028,3.4051654844790646,6.254815369080654,5.25984971327481
5.600284151258914,2.312061275750225,2.9116439765658186,3.4577639816118126,6.068968894642146,5.562642830280979
5.623404764016416,2.372750964696646,2.9462216163819366,3.5133904099146225,5.862425481657275,5.860659326835923
5.647132273663383,2.4313752195132188,2.981355520481083,3.5719970031829815,5.633505985425295,6.152003206621569
5.671446025858515,2.4877102793674717,3.0170754905129127,3.6335170352491972,5.38051005627647,6.4346830538238935
5.69632312865219,2.5415153799302366,3.0534106608654046,3.6978638657874363,5.101724570032464,6.706614207082453
5.721738282451492,2.5925326256305614,3.090389299523279,3.764930007858261,4.795435134525276,6.96562405163501
5.747663608707797,2.640486976975814,3.1280385996018616,3.834586248374611,4.459941184997408,7.209461146562445
5.774068478477555,2.685086388825788,3.166384462085608,3.906680859840235,4.093575203350824,7.43580899725912
5.800919342365813,2.726022140859296,3.2054512706840104,3.9810389498128265,3.6947265968013863,7.642305367554161
5.828179563774406,2.76296940682731,3.2452616601821385,4.057462003488368,3.26187073819054,7.826568087705074
5.8558092578426795,2.7955881142092154,3.2858362802170222,4.135727684365419,2.793603588390357,7.986228336610621
5.883765138984772,2.8235241500931187,3.3271935570606765,4.215589967731525,2.2886821745440176,8.118972338481907
5.912000380485702,2.846410971838559,3.3693494567379916,4.296779691116344,1.746070969282666,8.222592292696639
5.940464490204088,2.8638716815313856,3.412317253649155,4.37900561404331,1.1649938896721088,8.295047126488036
5.969103207019402,2.8755216204281067,3.456107309789588,4.4619560853081905,0.5449911983738251,8.334533301011403
5.997858423223684,2.880971532411845,3.5007268706426697,4.545301418318305,-0.11401996148033006,8.339565395207414
6.026668138547802,2.8798313327970417,3.546179884825853,4.628697072270379,-0.8116833253111407,8.309065532191042
6.055466451875772,2.8717144995439305,3.592466855548557,4.71178772759229,-1.547142232395886,8.242459909261232
6.0841835968712115,2.856243077219972,3.63958473282448,4.794212326684902,-2.31898277788419,8.139779776762387
6.112746027643412,2.83305324944113,3.687526856091329,4.875610124452526,-3.1251856183663915,8.001763241751975
6.141076560137823,2.801801393257466,3.7362829573358542,4.9556277568700455,-3.9630913152571976,7.8299533383554305
6.169094574070398,2.762170480104894,3.7858392349045547,5.0339272902536,-4.829384543073161,7.62678702490898
6.196716278871446,2.713876634674162,3.8361785078070905,5.11019516050269,-5.720102603346656,7.39566927716512
6.223855045218188,2.6566756086406955,3.8872804594121173,5.184151853274342,-6.630673360918057,7.141026393668514
6.2504218013045945,2.590368875031515,3.9391219779448607,5.255562117211027,-7.555986875054402,6.868333148623457
6.2763254900549095,2.514809006280971,3.991677599116971,5.324245448697262,-8.490503598994927,6.584109617143723
6.301473580117719,2.4299039702910217,4.044920053603944,5.390086544868699,-9.428400103453015,6.295885393137996
6.325772619820629,2.3356199692564914,4.09882091905263,5.453045398800079,-10.36375096210877,6.012131472701514
6.3491288195131945,2.231982459635404,4.153351373040631,5.513166713527093,-11.290742927627313,5.7421631424010275
6.371448644109549,2.119075030359131,4.208483040175902,5.570588344951104,-12.203915107586104,5.4960205593543
6.39263939441314,1.9970358792832699,4.264188923625413,5.625548550544647,-13.098416848277564,5.284337040532996
6.412609753205973,1.8660517108004941,4.32044440913086,5.678391920949977,-13.970273778692917,5.118208071730168
6.431270270313978,1.726348973013565,4.37722832834036,5.729574001667279,-14.81665223375366,5.009076413699249
6.448533760044113,1.5781824506760285,4.434524068357033,5.779664765804272,-15.636113240779268,4.968650224074544
6.4643155845508735,1.4218213182682358,4.492320716015075,5.829351268045017,-16.4288494544793,5.008871762318938
6.478533797733556,1.2575328237234427,4.550614228695525,5.879439985668206,-17.196901748121874,5.141954089184379
6.491109125970791,1.085563806242224,4.609408628552207,5.93085952656005,-17.94435634886145,5.380502441260427
6.501964764033213,0.9061202427536095,4.668717223817807,5.984664550972654,-18.677528051787576,5.737735969820517
6.511025966460749,0.7193449622357337,4.728563869327534,6.042041910670859,-19.405139652029852,6.227824574553614
6.518219416083106,0.5252935657154352,4.788984288434243,6.104320156416395,-20.13851164241963,6.8663547309262105
6.52347235174026,0.32390844929123885,4.850027489998407,6.172983703725657,-20.89177850145354,7.670937101891425
6.526711436233172,0.11499066427670346,4.911757327035664,6.249693074744571,-21.68214698958327,8.66196590645712
6.527861342875939,-0.10183080561912924,4.97425425778311,6.336312733809143,-22.530204867963835,9.863531999910093
6.5268430348197475,-0.3271328542987676,5.037617385121201,6.4349480538082435,-23.460269546499504,11.304470807624122
6.52357170627676,-0.5617355497637626,5.101966865659283,6.547992761884485,-24.5007235386419,13.019476751411064
6.517954350779123,-0.8067427851501816,5.167446793278128,6.6781875293985955,-25.6841930782205,15.050104783108495
6.509886922927621,-1.0635847159323866,5.234228668572114,6.828688577229681,-27.047238438522445,17.445239554357826
6.4992510757682975,-1.3340571003176112,5.302515554344411,7.0031409727732585,-28.628838832986673,20.26010518489738
6.485910504765122,-1.620345488647478,5.372546964072144,7.205742024622232,-30.46616887372231,23.551832798490157
6.469707049878647,-1.925007177384701,5.4446043843183665,7.4412603526071335,-32.584581194465784,27.367444661647347
6.4504569781048,-2.250852989329359,5.519016987844438,7.714934799223607,-34.97560546583927,31.715827041686524
6.427948448211506,-2.6006090439877516,5.596166335836674,8.032093069640473,-37.55103357734012,36.50724463660349
6.401942357771628,-2.976119379761153,5.676487266533079,8.397165516006508,-40.0519909965662,41.430946370346284
6.372181163974017,-3.376639289726815,5.760458921693144,8.81147497970997,-41.8830792669645,45.72834774301758
6.338414771076748,-3.7954700823964598,5.848573671490244,9.268758457140146,-41.85761839466066,47.839477227067356
6.300460070252784,-4.2140462663430664,5.941261256061646,9.74715322941082,-37.96481373822935,45.07022976298638
6.258319607589353,-4.59369440372536,6.0387327883557536,10.197855527040684,-27.65473586773618,33.95910248619816
6.212382663552099,-4.870241762402721,6.14071134362616,10.537446551902665,-9.597751034645464,12.663172034074499
6.163680245928072,-4.966219272749176,6.246085809145186,10.66407827224341,13.268547915906984,-14.890126984425642
6.114018053200581,-4.833533793590106,6.35272659186762,10.515177002399154,33.59464372193283,-38.84714022368349
6.065682715264679,-4.497587356370778,6.457878361891612,10.12670560016232,45.49780107748999,-51.47816764150749
6.020706841700972,-4.042609345595878,6.559145417893235,9.611923923747245,49.05112106341759,-53.161580988923056
5.980280748245013,-3.552098134961702,6.655264657130707,9.080308113858015,47.68609793716589,-48.67659142721864
5.944759766895396,-3.075237155590043,6.7460677382692875,8.593542199585828,44.409924978770015,-42.06769078415377
5.914007395339496,-2.6311379058023427,6.832003160265145,8.17286529174429,40.82037567821683,-35.40674545649863
5.887696016281472,-2.2229341490201744,6.913731813182588,7.8187978371793045,37.5522062319513,-29.464168325982417
5.8654666747912705,-1.8474120867006614,6.991919791554381,7.52415615391948,34.78001007998923,-24.410780844958147
5.846992553924264,-1.499611985900769,7.067161353093576,7.280048345469899,32.49580555121961,-20.193689623300266
5.831996434065256,-1.174653930388573,7.1399618365482755,7.078111449236896,30.631828934947336,-16.69725254411731
5.82024989476137,-0.8683356410390997,7.210742951040644,6.911138923795724,29.108893097630133,-13.803364359492402
5.811566538350979,-0.5772467100627983,7.279854340278601,6.7731052802008,27.853301086822995,-11.410400208683711
5.805794071250351,-0.2987136991945683,7.347585393080609,6.659001278113963,26.801401463309144,-9.436539606492362
5.802806934258405,-0.03069968456147687,7.414175405861749,6.564635882049039,25.899665807252873,-7.817799944865538
5.80249993741279,0.22829697351105188,7.47982176468224,6.486457882600384,25.103408236837573,-6.504712749154216
5.8047829071479,0.47933105587942765,7.544686343508244,6.421410755108841,24.375320992968263,-5.459032635509108
5.809576217706694,0.7230842658091103,7.608900451059332,6.36682042875375,23.68422184328348,-4.650892856085419
5.816807060364785,0.9599264842419452,7.67256865534687,6.320311500192896,23.00410556260423,-4.056468293673091
5.826406325207205,1.1899675398679874,7.735771770348799,6.279746817256165,22.313479011055477,-3.656096172308706
5.8383060006058844,1.4131023299785421,7.7985692385213605,6.243185855533079,21.594921959698443,-3.4327844963808936
5.8524370239056696,1.6290515495755264,7.8610010970766915,6.208858010569269,20.834807459610627,-3.37104793810271
5.868727539401425,1.8373996241716326,7.923089677182384,6.175147531188242,20.023118150490625,-3.456026924999893
5.887101535643141,2.037630805676539,7.984841152494266,6.140587261938243,19.153301910311153,-3.67285915062329
5.9074778436999065,2.2291638247796506,8.046247025113649,6.10385867043201,18.22211961383535,-4.006280767201143
5.929769481947703,2.411385020918004,8.10728561181797,6.063795862759998,17.229448955603342,-4.440436827632998
5.953883332156884,2.5836795104740373,8.16792357044557,6.019391494483669,16.17802097115867,-4.958878094592964
5.979720127261624,2.745459720185624,8.228117485390406,5.96980271353774,15.073079420340607,-5.5447157934210445
6.00717472446348,2.89619051438903,8.287815512525784,5.914355555603529,13.921966528805074,-6.180899272570303
6.036136629607371,3.0354101796770805,8.34695906808182,5.852546562877826,12.733650398624436,-6.8505758924192355
6.066490731404142,3.162746683663325,8.405484533710597,5.784040803953634,11.518218381796203,-7.537489509312553
6.098118198240775,3.277928867481287,8.463324941750134,5.7086659088605085,10.286365863315865,-8.226374748102902
6.130897486915588,3.380792526114446,8.52041160083874,5.626402161379479,9.048910786710767,-8.903309140147154
6.164705412176732,3.4712816339815533,8.576675622452534,5.537369069978007,7.8163611100332595,-9.55599359581196
6.199418228516548,3.549445245081886,8.632049313152313,5.441809134019888,6.598556055842638,-10.17394237736524
6.2349126809673665,3.615430805640312,8.686467404492513,5.340069710246236,5.4043937837560225,-10.748575185537598
6.27106698902377,3.6694747434778723,8.739868101594976,5.23258395839086,4.241649377757147,-11.273214617729627
6.3077617364585485,3.711891237255444,8.792193941178883,5.119851812213564,3.116879075365586,-11.743000850534765
6.344880648831103,3.7430600280090998,8.843392459301018,5.002421803708216,2.035400402375912,-12.154741193472097
6.382311249111194,3.763414032032859,8.8934166773381,4.880874391773496,1.0013338049672258,-12.50671495164836
6.419945389431523,3.773427370082531,8.942225421255836,4.755807242257013,0.017689550359236153,-12.798454094597664
6.457679663132348,3.7736042655861235,8.989783493678406,4.627822701311036,-0.9135161805175281,-13.030518153342383
6.495415705788209,3.7644691037809483,9.036061720691515,4.497517519777612,-1.7911304442170872,-13.204278303495592
6.533060396826018,3.7465577993387775,9.08103689588929,4.365474736742656,-2.614729794581974,-13.321721478306413
6.570525974819406,3.7204105013929576,9.124691643256718,4.232257521959592,-3.384492539221157,-13.385281215355207
6.607730079833336,3.686565576000746,9.167014218476313,4.098404709806039,-4.1010829233294555,-13.397698225426709
6.644595735593343,3.6455547467674516,9.207998265574373,3.9644277275517723,-4.765550529542852,-13.361910651104914
6.681051283061018,3.5978992414720232,9.24764254284989,3.830808621040723,-5.379246025069872,-13.280971764873355
6.7170302754757385,3.5441067812213247,9.285950629060297,3.6979989033919893,-5.943752776842882,-13.157991429231396
6.752471343287952,3.484669253452896,9.322930618094217,3.5664189890996756,-6.460832776220689,-12.996096912221015
6.787318035822481,3.420060925690689,9.358594807985213,3.4364580199774655,-6.93238470190169,-12.798408486497973
6.821518645079387,3.350737078671672,9.392959388184988,3.308473935112486,-7.3604117134616045,-12.568025491505972
6.8550260158661045,3.2771329615370557,9.426044127536112,3.182793680197426,-7.746996612105477,-12.308019066113944
6.887797345481475,3.1996629954160007,9.457872064338087,3.0597134895362865,-8.094282239150608,-12.021428441287565
6.919793975435636,3.1187201730244944,9.48846919923345,2.939499205123411,-8.404455328093007,-11.711258420552207
6.950981177165881,3.0346756197435645,9.517864191284684,2.8223866209178885,-8.679732419745685,-11.38047639614458
6.981327933363317,2.947878295546108,9.546088057493863,2.708581856956443,-8.922346844332624,-11.032007899574904
7.010806716318778,2.8586548271027814,9.573173876063427,2.5982617779606936,-9.13453613641298,-10.668730235297595
7.039393264589806,2.7673094657386517,9.599156493843033,2.4915744756077176,-9.318529557351379,-10.293464180018832
7.0670663592471925,2.674124170165138,9.62407223859911,2.388639833807529,-9.476535645171644,-9.908964045249803
7.0938076009488436,2.5793588137134216,9.647958636937185,2.2895501933550313,-9.610729890394692,-9.517906603818936
7.119601189085977,2.4832515148094747,9.670854138870736,2.194371127316842,-9.723242752068163,-9.122879485364649
7.144433704234072,2.386019087288793,9.692797850143904,2.1031423324631953,-9.81614828781983,-8.726369668344164
7.16829389510696,2.2878576044105947,9.713829273468535,2.0158786357797536,-9.891453684953316,-8.330752655474939
7.1911724711510665,2.1889430675610617,9.733988059826332,1.9325711092250042,-9.951089956933245,-7.9382828343556575
7.213061901826677,2.0894321679917294,9.753313770918583,1.8531882808814477,-9.996904021642683,-7.551085412479083
7.233956223506595,1.9894631277753025,9.771845653727397,1.7776774267566569,-10.03065231430568,-7.1711501908361255
7.253850854784347,1.8891566046322457,9.789622427994964,1.7059659248482957,-10.053996017394597,-6.800327314878254
7.27274242083067,1.7886166444582996,9.806682087243447,1.6379626516995132,-10.068497919009936,-6.440325024793419
7.290628587275253,1.6879316652682002,9.823061713760442,1.573559401451579,-10.075620845233441,-6.092709324950576
7.307507903927935,1.5871754568158658,9.838797307774957,1.5126323082020732,-10.07672755425675,-5.758905408411689
7.323379658496094,1.4864081812732983,9.853923630856977,1.4550432541179563,-10.073081932625973,-5.440200607772279
7.338243740308827,1.3856773619470386,9.868474063398157,1.4006412480402335,-10.065851297414458,-5.137748597678607
7.352100513928297,1.285018848972894,9.882480475878559,1.3492637620634473,-10.056109582257156,-4.852574545305513
7.364950702418026,1.1844577531503224,9.895973113499194,1.3007380166103921,-10.044841168965364,-4.585580890173919
7.37679527994953,1.0840093414606689,9.908980493665297,1.254882207708653,-10.032945118458398,-4.337553430838706
7.3876353733641364,0.9836798902760848,9.921529315742383,1.211506673400266,-10.021239553346328,-4.109167400006067
7.397472172266897,0.8834674947426215,9.933644382476386,1.1704149994002053,-10.010465947984736,-3.90099321854213
7.406306847214323,0.7833628352627742,9.945348532470389,1.131405067214784,-10.001293088612035,-3.7135016299702723
7.414140475566951,0.6833499043766538,9.956662583142537,1.0942700509150813,-9.994320474893804,-3.547067928266468
7.4209739746107175,0.5834066996277157,9.967605283651688,1.0587993716324167,-9.990080943740827,-3.401975001453676
7.426808041606995,0.4835058901903075,9.978193277368012,1.02477962161788,-9.989042305872832,-3.27841492067445
7.431643100508897,0.3836154671315792,9.988441073584191,0.9919954724111354,-9.991607794868619,-3.1764888087205905
7.435479255180213,0.283699389182893,9.998361028308302,0.9602305843239295,-9.998115137368861,-3.0962047237047385
7.438316249072042,0.18371823780920438,10.007963334151542,0.9292685370868821,-10.008834062088525,-3.0374732936272104
7.440153431450134,0.08362989718831913,10.017256019522412,0.8988938041506099,-10.0239620752036,-3.000100837687896
7.440989730422017,-0.01660972356371687,10.026244957563918,0.868892795773731,-10.043618341824791,-2.9837797127391608
7.44082363318638,-0.11704590698196478,10.034933885521655,0.8390549986463394,-10.067835529484716,-2.988075631510329
7.43965317411656,-0.21772426227681194,10.043324435508119,0.809174242331236,-10.096549492201667,-3.012411717276741
7.437475931493792,-0.31868975719882864,10.051416177931431,0.7790501251584686,-10.12958670564472,-3.0560490925509
7.434289033921804,-0.41998562425527586,10.059206679183015,0.7484896342329596,-10.166649408648997,-3.118063853147364
7.430089177679251,-0.5216521183417658,10.066691575525345,0.7173089957014859,-10.20729846773231,-3.197320360537749
7.4248726564958325,-0.6237251030190889,10.07386466548236,0.6853357920961084,-10.25093406361191,-3.292440902447511
7.418635405465642,-0.726234443655208,10.080718023403321,0.6524113830716333,-10.296774406407108,-3.4017719322900235
7.4113730610290895,-0.829202187719279,10.087242137234037,0.6183936637487331,-10.343832823402783,-3.5233473103573796
7.403081039151897,-0.9326405159533069,10.093426073871525,0.5831601906451592,-10.390893733357684,-3.6548492408993916
7.393754633992364,-1.0365494532868837,10.099257675777977,0.5466116982361653,-10.436488226342458,-3.7935679345456683
7.383389139459495,-1.1409143355503084,10.104723792760339,0.5086760188907086,-10.478870207628942,-3.936361426709432
7.371979996103992,-1.2457030376265978,10.109810552949247,0.46931240462361423,-10.51599433449967,-4.079617446111359
7.3595229657277255,-1.3508629809715946,10.114503676995483,0.4285162301625006,-10.54549726778567,-4.2192197424478035
