th1 (rad),w1 (rad/s),th2 (rad),w2 (rad/s),a1 (rad/s^2),a2 (rad/s^2)
1.4975857434677469,-2.9586619658033575,1.1075464897007483,2.642434698036259,-15.003109448654353,8.437524624445437
1.4679991238097132,-3.1086930602899012,1.133970836681111,2.7268099442807134,-14.933379329879363,8.3965749779586
1.4369121932068143,-3.258026853588695,1.1612389361239182,2.8107756940602995,-14.621827098655967,7.969503415092606
1.4043319246709274,-3.4042451245752545,1.1893466930645211,2.8904707282112256,-14.003251626541363,7.057547556176741
1.370289473425175,-3.544277640840668,1.2182514003466334,2.961046203772993,-13.025866211248914,5.580873129570067
1.3348466970167683,-3.6745363029531575,1.2478618623843634,3.016854935068694,-11.669838260592497,3.5053037292061906
1.2981013339872367,-3.7912346855590826,1.2780304117350503,3.051907972360756,-9.965966390517508,0.8694252844943468
1.2601889871316458,-3.890894349464258,1.3085494914586577,3.0606022252056992,-8.005701459365117,-2.200442745197653
1.2212800436370033,-3.970951364057909,1.3391555137107147,3.038597797753723,-5.933449633793545,-5.500388795777844
1.181570529996424,-4.0302858603958445,1.369541491688252,2.9835939097959443,-3.9187919574338,-8.78774003417129
1.1412676713924657,-4.069473779970182,1.3993774307862115,2.8957165094542314,-2.1176412924291648,-11.836029254727867
1.1005729335927639,-4.090650192894474,1.4283345958807538,2.7773562169069526,-0.6388762199749201,-14.482755217707723
1.0596664316638191,-4.097038955094223,1.4561081580498234,2.6325286647298753,0.47035728118848974,-16.651111684212935
1.018696042112877,-4.092335382282338,1.4824334446971221,2.466017547887746,1.2188920459118764,-18.342851430617724
0.9777726882900536,-4.080146461823219,1.5070936201759997,2.282589033581569,1.6534101893948818,-19.613422181479223
0.9369712236718214,-4.06361235992927,1.5299195105118153,2.0864548117667767,1.8382841095804832,-20.54387018989047
0.8963351000725287,-4.045229518833466,1.550784058629483,1.881016109867872,1.840059829977983,-21.218968056057992
0.855882804884194,-4.026828920533686,1.5695942197281616,1.668826429307292,1.7184465773080317,-21.714311258769705
0.8156145156788571,-4.009644454760606,1.5862824840212346,1.451683316719595,1.5226935271529243,-22.090921079364186
0.775518071131251,-3.9944175194890765,1.6007993171884305,1.2307741059259532,1.2913406936614238,-22.394597964326334
0.7355738959363602,-3.981504112552462,1.61310705824769,1.0068281262826897,1.0536114924141884,-22.65762891856817
0.6957588548108357,-3.9709679976283203,1.623175339510517,0.780251837097008,0.8313289743121319,-22.901293055900407
0.6560491748345525,-3.962654707885199,1.630977857881487,0.5512389065380039,0.6407703318060213,-23.138346084132763
0.6164226277557006,-3.956247004567139,1.6364902469468672,0.31985544569667623,0.49421936038229863,-23.37514504508577
0.5768601577100292,-3.951304810963316,1.639688801403834,0.08610399524581852,0.40116221341632713,-23.613334993493044
0.537347109600396,-3.947293188829153,1.6405498413562922,-0.15002935468911194,0.3691551769502721,-23.85113740415466
0.49787417771210446,-3.94360163705965,1.6390495478094012,-0.38854072873065854,0.40442112457477747,-24.084320363933394
0.45843816134150794,-3.939557425813902,1.6351641405220945,-0.6293839323699925,0.5122333354174999,-24.30693387163924
0.41904258708336894,-3.934435092459727,1.6288703011983945,-0.8724532710863848,0.6971375339887523,-24.511882113837743
0.3796982361587717,-3.9274637171198394,1.6201457684875307,-1.1175720922247623,0.9630530700200816,-24.691389182083604
0.3404235989875733,-3.9178331864196387,1.608970047565283,-1.3644859840455983,1.313285310488167,-24.837399885370747
0.3012452671233769,-3.904700333314757,1.5953251877248271,-1.6128599828993058,1.7504745561352932,-24.94194459127273
0.2621982637902293,-3.8871955877534043,1.579196587895834,-1.862279428812033,2.2765021272195405,-24.997486589753482
0.22332630791269525,-3.864430566481209,1.5605737936077138,-2.112254294709568,2.8923713160439206,-24.997262046433335
0.18468200224788317,-3.8355068533207697,1.5394512506606182,-2.3622269151739013,3.598079201288318,-24.93561585455196
0.14632693371467548,-3.7995260613078865,1.5158289815088792,-2.6115830737194208,4.392494393686591,-24.808331338845313
0.10833167310159661,-3.7556011173710204,1.489713150771685,-2.859666387107874,5.273255214055683,-24.612947654223
0.0707756619278864,-3.702868565230464,1.4611164869006061,-3.105795863650104,6.236702231502238,-24.3490558030928
0.03374697627558176,-3.6405015429154415,1.4300585282641052,-3.349286421681032,7.2778582114576436,-24.0185624844112
-0.0026580391535726555,-3.567722960800865,1.3965656640472948,-3.589472046525144,8.390467103714537,-23.62591053732822
-0.038335268761581304,-3.4838182897637195,1.3606709435820434,-3.825731151898426,9.567101573032165,-23.178245603085983
-0.0731734516592185,-3.3881472740333978,1.3224136320630593,-4.057513607929286,10.799345649499259,-22.68552081191441
-0.10705492439955247,-3.2801538175384053,1.2818384959837665,-4.2843688160484295,12.078055347424002,-22.160534740714073
-0.13985646257493653,-3.159373264064165,1.2389948078232822,-4.50597416345557,13.393695650390988,-21.618902396960483
-0.1714501952155782,-3.0254363075602555,1.1939350661887265,-4.722163187425175,14.736747238417188,-21.078964213395714
-0.20170455829118075,-2.8780688351760837,1.1467134343144747,-4.932952829559132,16.09817092252653,-20.561643413493734
-0.2304852466429416,-2.7170871259508185,1.0973839060188835,-5.13856926369407,17.469912074266727,-20.090266757658522
-0.2576561179024498,-2.542388005208151,1.0459982133819428,-5.339471931270655,18.84542129164486,-19.690366312839185
-0.2830799979545313,-2.3539337922917025,0.9926034940692362,-5.536375594399047,20.220160529863225,-19.389478571352264
-0.30661933587744833,-2.1517321869930703,0.9372397381252457,-5.73027038011257,21.592054397322944,-19.216948979315845
-0.32813665774737905,-1.9358116430198409,0.8799370343241201,-5.922439869905729,22.961831034842877,-19.203729827463963
-0.34749477417757746,-1.706193332671412,0.8207126356250628,-6.114477168180368,24.33316977927554,-19.382119138632834
-0.3645567075042916,-1.4628616348786567,0.7595678639432591,-6.308298359566697,25.712522408361174,-19.785312886814257
-0.3791853238530782,-1.205736410795045,0.6964848803475922,-6.506151488434839,27.108381194473775,-20.446506201100867
-0.3912426879610286,-0.9346525988503073,0.6314233654632437,-6.710616550445848,28.529595516681496,-21.39703423984396
-0.4005892139495317,-0.6493566436834923,0.5643171999587853,-6.924586892844288,29.98203079076199,-22.662609095667793
-0.4070827803863666,-0.34953633577587245,0.4950713310303424,-7.151212983800966,31.462326171599553,-24.255953701001086
-0.4105781437441253,-0.034913074059876925,0.4235592011923327,-7.393772520810977,32.94661455221766,-26.162871620253554
-0.4109272744847241,0.2945530714622997,0.34962147598422294,-7.655401237013512,34.37071967705653,-28.316857877756092
-0.4079817437701011,0.638260268232865,0.27306746361408785,-7.938569815791073,35.5967374584051,-30.554967601323064
-0.40159914108777245,0.994227642816916,0.1936817654561771,-8.244119491804303,36.36042130853441,-32.54662515365013
-0.3916568646596033,1.3578318559022602,0.11124057053813406,-8.569585743340804,36.19927906351329,-33.693953570008645
-0.3780785461005807,1.719824646537393,0.025544713104726016,-8.90652527904089,34.385114372828454,-33.03405829778477
-0.3608802996352068,2.0636757902656777,-0.06352053968568289,-9.236865862018737,29.94655436026276,-29.2580218954664
-0.34024354173255,2.363141333868305,-0.15588919830587028,-9.5294460809734,21.960123648735518,-21.0901646821661
-0.31661212839386693,2.58274257035566,-0.2511836591156043,-9.740347727795061,10.26622460106501,-8.244594978883892
-0.2907847026903103,2.6854048163663102,-0.34858713639355493,-9.8227936775839,-3.700052442349977,7.457865886532115
-0.2639306545266472,2.6484042919428106,-0.44681507316939395,-9.74821501871858,-17.02435297039455,22.250597833657455
-0.2374466116072191,2.4781607622388653,-0.5442972233565797,-9.525709040382006,-26.94558037478105,32.61657007888231
-0.21266500398483046,2.208704958491055,-0.6395543137603997,-9.199543339593182,-32.49599009370616,37.448599497325965
-0.1905779543999199,1.8837450575539934,-0.7315497471563316,-8.825057344619923,-34.43912765348923,37.89551588399826
-0.17174050382437997,1.5393537810191011,-0.8198003206025308,-8.44610218577994,-34.1282410906678,35.80324818766527
-0.15634696601418896,1.198071370112423,-0.9042613424603303,-8.088069703903288,-32.68347355517699,32.639253724873065
-0.14436625231306474,0.8712366345606531,-0.9851420394993632,-7.761677166654557,-30.795385329553778,29.26943136615676
-0.1356538859674582,0.5632827812651153,-1.0627588111659088,-7.46898285299299,-28.82181065717088,26.113536002871268
-0.13002105815480705,0.2750646746934065,-1.1374486396958385,-7.207847492964277,-26.922614290375627,23.335788090898966
-0.12727041140787299,0.005838531789650214,-1.2095271146254813,-6.974489612055287,-25.15447229799887,20.973350659670913
-0.12721202608997648,-0.24570619119033849,-1.2792720107460342,-6.764756105458577,-23.525008048540425,19.007079455511434
-0.12966908800187987,-0.48095627167574273,-1.34691957180062,-6.574685310903463,-22.020877654163026,17.39665589478414
-0.1344786507186373,-0.701165048217373,-1.4126664249096546,-6.400718751955622,-20.621537132963418,16.09676622593203
-0.14149030120081102,-0.9073804195470072,-1.4766736124292108,-6.239751089696301,-19.305664422172104,15.063911138668825
-0.1505641053962811,-1.1004370637687282,-1.5390711233261738,-6.089111978309613,-18.05394966524341,14.258811953751326
-0.16156847603396837,-1.2809765604211623,-1.59996224310927,-5.9465238587721,-16.85013621424908,13.64685967168494
-0.17437824163818,-1.4494779225636532,-1.659427481696991,-5.810055262055251,-15.681242399377775,13.197774216618969
-0.18887302086381652,-1.606290346557431,-1.7175280343175434,-5.678077519889061,-14.537415346088704,12.885013629827496
-0.20493592432939084,-1.751664500018318,-1.774308809516434,-5.549227383590786,-13.411631605768411,12.685170646833717
-0.22245256932957402,-1.8857808160760021,-1.829801083352342,-5.4223756771224485,-12.299344103201147,12.577450592809555
-0.24131037749033404,-2.0087742571080134,-1.8840248401235664,-5.296601171194353,-11.198119776367523,12.543257753669526
-0.26139812006141416,-2.1207554548716887,-1.93699085183551,-5.171168593657658,-10.107286785111135,12.565887434411104
-0.28260567461013103,-2.2218283227228,-1.9887025377720864,-5.0455097193135465,-9.027599083302503,12.63030856145104
-0.30482395783735905,-2.312104313555825,-2.039157634965222,-4.919206633699036,-7.960921874285935,12.723017688964784
-0.3279450009729173,-2.3917135322986844,-2.0883497013022123,-4.7919764568093886,-6.909940189102382,12.831945219200946
-0.3518621362959041,-2.4608129341897085,-2.1362694658703063,-4.663657004617379,-5.8778926495215345,12.946396437076377
-0.3764702656378012,-2.519591860684924,-2.18290603591648,-4.534193040246615,-4.868332500712992,13.057012570608942
-0.40166618424465045,-2.568275185692054,-2.2282479663189463,-4.4036229145405255,-3.8849178379402165,13.155740003886619
-0.427348936101571,-2.6071243640714563,-2.2722841954643513,-4.2720655145016595,-2.931232499064261,13.235798699936801
-0.45342017974228555,-2.6364366890620987,-2.315004850609368,-4.139707527502291,-2.0106383823052725,13.291643655590336
-0.47978454663290654,-2.6565430728851513,-2.356401925884391,-4.006791090946388,-1.1261590734930098,13.318915685625145
-0.506349977361758,-2.6678046636200814,-2.396469836793855,-3.8736019340901366,-0.28039374401850836,13.314379936744174
-0.5330280239979588,-2.6706086010602665,-2.4352058561347563,-3.740458134722695,0.524540584544457,13.275852217568692
-0.5597341100085614,-2.665363195214822,-2.472610437481983,-3.607699612547008,1.287041039682039,13.202114487451594
-0.5863877419607096,-2.6524927848180013,-2.508687433607453,-3.475678467672492,2.006028328972025,13.092821693577365
-0.6129126698088897,-2.6324325015282812,-2.543444218284178,-3.3447502507367184,2.6809370988120627,12.94840262556831
-0.6392369948241725,-2.6056231305401605,-2.576891720791545,-3.2152662244810353,3.31169084037089,12.76995762870133
-0.6652932261295741,-2.5725062221364516,-2.6090443830363554,-3.087566648194022,3.898664905055121,12.559155947567616
-0.6910182883509386,-2.5335195730859006,-2.6399200495182957,-2.961975088718346,4.44264098832955,12.318135228556043
-0.7163534840817976,-2.489093163202605,-2.669539800405479,-2.8387937364327853,4.9447561301988925,12.049405353486542
-0.7412444157138236,-2.439645601900616,-2.697927737769807,-2.71829968289792,5.406448901538904,11.755758360614578
-0.7656408717328298,-2.385581112885227,-2.725110734598786,-2.6007420992917742,5.8294050320772115,11.440185774928818
-0.7894966828616821,-2.327287062564455,-2.751118155591704,-2.4863402415424862,6.215504316408209,11.105804248228765
-0.8127695534873266,-2.265132019400373,-2.7759815580071288,-2.3752821990601984,6.566770230499168,10.755790022133455
-0.8354208736813303,-2.199464317095381,-2.7997343799977306,-2.2677242988388637,6.885323317769566,10.39332238691882
-0.8574155168522841,-2.1306110839176853,-2.8224116229861194,-2.1637910749696756,7.1733390704221485,10.02153602240461
-0.878721627691461,-2.058877693213464,-2.844049533735816,-2.0635757147456295,7.433010743099554,9.643481875704243
-0.8993104046235957,-1.9845475857824684,-2.8646852908832723,-1.967140895988587,7.666517293452129,9.262096052854485
-0.9191558804814204,-1.907882412847947,-2.884356699843158,-1.8745199354600421,7.875996446619636,8.880176073306691
-0.9382347046098999,-1.8291224483817508,-2.9031018991977584,-1.7857181747269752,8.063522725036648,8.50036375281886
-0.9565259290937174,-1.7484872211313842,-2.9209590809450283,-1.7007145371987866,8.231090167396413,8.125133935581335
-0.9740108013050313,-1.6661763194574202,-2.937966226317016,-1.6194631978429732,8.38059937651463,7.756788284334045
-0.9906725644996055,-1.5823703256922739,-2.9541608582954457,-1.5418953149996328,8.513848480479057,7.397453351743557
-1.0064962677565283,-1.4972318408874834,-2.969579811445442,-1.4679207814821973,8.632527560157326,7.049082191626236
-1.0214685861654031,-1.41090656528591,-2.984259019260264,-1.397429959565935,8.738216084391752,6.71345881936373
-1.0355776518182622,-1.3235244044419925,-2.9982333188559234,-1.3302953713722976,8.832382897906284,6.392204892206497
-1.0488128958626821,-1.2352005754629296,-3.0115362725696464,-1.2663733224502327,8.916388322373034,6.0867880478203515
-1.0611649016173115,-1.1460366922391994,-3.0242000057941487,-1.2055054419720292,8.99148795497582,5.798531409728584
-1.0726252685397035,-1.0561218126894412,-3.036255060213869,-1.1475201278747433,9.058837778378297,5.528623838180878
-1.083186486666598,-0.9655334349056581,-3.0477302614926165,-1.0922338894929347,9.119500228929702,5.278130571982467
-1.0928418210156545,-0.8743384326163611,-3.058652600387546,-1.03945258377311,9.174450904336297,5.048003969051502
-1.101585205341818,-0.7825939235729982,-3.0690471262252768,-0.9889725440825948,9.224585626410537,4.839094109566316
-1.109411144577548,-0.6903480673088928,-3.0789368516661026,-0.9405816029869316,9.270727607761717,4.652159074604588
-1.116314625250637,-0.5976407912312756,-3.0883426676959718,-0.8940600122408857,9.313634502603161,4.487874754648166
-1.1222910331629499,-0.5045044462052439,-3.097283267818381,-0.849181264694404,9.354005150676869,4.3468440760484715
-1.1273360776250023,-0.41096439469847523,-3.105775080465325,-0.8057128239339193,9.392485849307837,4.2296055596081255
-1.131445721571987,-0.3170395362053969,-3.113832208704664,-0.763416768337838,9.42967601164089,4.136641144139902
-1.134616116934041,-0.22274277608898796,-3.1214663763880424,-0.7220503568964389,9.466133089162554,4.068383219687135
-1.1368435446949308,-0.12808144519736242,-3.128686879957007,-0.6813665246995676,9.502376653753958,4.025220820629849
-1.1381243591469044,-0.03305767865982284,-3.135500545204003,-0.6411143164932691,9.53889154892714,4.007504928855005
-1.1384549359335026,0.062331236829448564,-3.1419116883689355,-0.601039267204719,9.576130031803338,4.015552832310682
-1.1378316235652082,0.15809253714748195,-3.1479220810409827,-0.5608837388816121,9.61451283709825,4.049651475432387
-1.1362506981937333,0.25423766551846444,-3.153530918429799,-0.5203872241272882,9.654429102248557,4.110059726029302
-1.1337083215385486,0.35078195654095,-3.1587347906710717,-0.4792866268669952,9.696235099279384,4.197009469226191
-1.1302005019731391,0.44774430753374383,-3.1635276569397415,-0.43731653217473326,9.740251724588449,4.31070542403848
-1.1257230588978018,0.5451468247796283,-3.1679008222614886,-0.39420947793434846,9.786760703122773,4.451323563290211
-1.1202715906500056,0.643014431810856,-3.171842917040832,-0.34969624230144636,9.835999469174622,4.619008004182055
-1.113841446331897,0.7413744265026023,-3.1753398794638463,-0.3035061622596258,9.888154693084715,4.813866226364849
-1.1064277020668711,0.8402559734334495,-3.1783749410864424,-0.2553674999959773,9.94335443251459,5.035962468555042
-1.0980251423325367,0.9396895177585954,-3.180928616086402,-0.20500787531042686,10.001658899786605,5.285309155447412
-1.0886282471549507,1.0397061067564615,-3.1829786948395062,-0.15215478375595273,10.063049854378859,5.561856216072378
-1.078231186087386,1.14033660530025,-3.184500242677066,-0.09653622159522895,10.127418653402609,5.865478175163873
-1.0668278200343837,1.241610791834276,-3.185465604893018,-0.03788143984359022,10.1945530242376,6.195958933071996
-1.054411712116041,1.343556322076652,-3.185844419291454,0.02407814948712974,10.26412266387978,6.552974199870652
-1.0409761488952745,1.4461975487154497,-3.1856036377965826,0.08960789148583626,10.33566382022681,6.93607161808552
-1.02651417340812,1.5495541869177178,-3.1847075588817244,0.15896860766669146,10.408563072407816,7.344648698087832
-1.011018631538943,1.653639817641796,-3.1831178728050573,0.2324150946475698,10.482040600698529,7.777928802193358
-0.994482233362525,1.7584602236487812,-3.180793721858582,0.3101943826695034,10.55513332103394,8.234935548308561
-0.9768976311260371,1.8640115568591207,-3.1776917780318867,0.39254373815258903,10.6266783529331,8.714466160391671
-0.9582575155574459,1.9702783403884516,-3.173766340650361,0.47968839975650573,10.69529738954065,9.215064467626428
-0.9385547321535613,2.0772313142838583,-3.1689694566527957,0.57183904443277,10.759382639351015,9.734994440752173
-0.9177824190107228,2.1848251406773684,-3.163251066208468,0.6691889888402918,10.817085103761158,10.272215342697558
-0.8959341676039491,2.29299599171498,-3.156559176320065,0.7719111422672673,10.866306033392448,10.8243597478594
-0.8730042076867993,2.4016590520489043,-3.148840064897392,0.8801547397458613,10.904692457503675,11.388715832338603
-0.8489876171663102,2.510705976623941,-3.1400385174999337,0.9940418980692474,10.929637691507532,11.962215434773121
-0.8238805574000708,2.6200023535390162,-3.130098098519241,1.1136640524169785,10.938287683591259,12.54142940997817
-0.7976805338646806,2.7293852303749286,-3.1189614579950713,1.2390783465167603,10.92755394942246,13.122571720444554
-0.7703866815609314,2.8386607698691533,-3.1065706745299035,1.3703040637212058,10.894133653249574,13.701513510785377
-0.7420000738622399,2.947602106401649,-3.0928676338926917,1.5073191988290595,10.834537118809683,14.273808069938035
-0.7125240527982234,3.055947477589746,-3.077794441904401,1.6500572795284398,10.745122696475082,14.834727097671665
-0.6819645780223259,3.163398704554497,-3.0612938691091167,1.7984045505051565,10.62213848640052,15.379308062490306
-0.6503305909767809,3.269620089418502,-3.043309823604065,1.9521976311300595,10.461769945689701,15.902411692659138
-0.6176343900825959,3.374237788875399,-3.0237878472927644,2.111221748056651,10.260191928449677,16.3987878274442
-0.5838920121938419,3.476839708159896,-3.002675629812198,2.275209626331093,10.013623270921363,16.863147040268924
-0.549123615112243,3.5769759408691097,-2.979923533548887,2.4438410967337822,9.718381698820979,17.290234717266074
-0.5133538557035519,3.6741597578573195,-2.9554851225815493,2.6167434439064428,9.370936663867926,17.674903734874476
