th1 (rad),w1 (rad/s),th2 (rad),w2 (rad/s),a1 (rad/s^2),a2 (rad/s^2)
3.602378892086472,-3.0700347078413386,3.78689184305734,-2.394273414730248,5.488010121230737,-1.2299722063309184
3.5716785450080586,-3.0151546066290313,3.7629491089100378,-2.406573136793557,5.18179460315599,-1.1106258605939188
3.541526998941768,-2.9633366605974714,3.738883377542102,-2.4176793953994964,4.873967872769791,-0.9896234247537469
3.511893632335793,-2.9145969818697735,3.7147065835881072,-2.4275756296470337,4.5658126538391715,-0.8692546960115547
3.4827476625170957,-2.8689388553313817,3.690430827291637,-2.436268176607149,4.258386064442296,-0.7513928470939214
3.4540582739637817,-2.826354994686959,3.6660681455255655,-2.443782105078088,3.9525523259884876,-0.6375515852566236
3.425794724016912,-2.786829471427074,3.6416303244747845,-2.4501576209306544,3.6490119416810303,-0.5289375511965657
3.3979264293026414,-2.7503393520102635,3.617128748265478,-2.45544699644262,3.34832737569218,-0.4264975533429864
3.370423035782539,-2.7168560782533415,3.592574278301052,-2.4597119719760503,3.05094543760909,-0.3309606120469279
3.3432544750000055,-2.6863466238772507,3.5679771585812916,-2.4630215780965194,2.7572166737887835,-0.24287503220381354
3.316391008761233,-2.658774457139363,3.5433469428003264,-2.4654503284185574,2.467412110977075,-0.16264086769340494
3.2898032641898394,-2.6341003360295923,3.518692439516141,-2.4670767370954914,2.1817377056403044,-0.09053821549006574
3.2634622608295434,-2.6122829589731893,3.494021672145186,-2.467982119250392,1.900346838127241,-0.02675180356258248
3.2373394312398114,-2.5932794905919168,3.469341850952682,-2.468249637286018,1.6233511634726756,0.028607668730124942
3.211406636333892,-2.57704597895719,3.444659354579822,-2.4679635605987165,1.3508300968847762,0.07548500419176216
3.18563617654432,-2.563537677988342,3.419979718973835,-2.467208710556799,1.082839176024389,0.11386439824304731
3.1600007997644366,-2.5527092862280982,3.395307631868267,-2.4660700665743684,0.8194175067731204,0.14375539140161173
3.1344737069021558,-2.544515111160367,3.3706469312025233,-2.4646325126603523,0.5605944658494723,0.16518057301630362
3.109028555790552,-2.5389091665018726,3.3460006060759198,-2.4629807069301894,0.3063958031425589,0.178164769205403
3.0836394641255334,-2.535845208470447,3.3213707990066177,-2.4611990592381354,0.05684925925352028,0.18272548995115026
3.058281012040829,-2.5352767158779117,3.2967588084142365,-2.459371804338624,-0.1880102105942738,0.17886444992457107
3.03292824488205,-2.5371568179838544,3.27216509037085,-2.4575831598393783,-0.42813553664181514,0.1665600146315031
3.0075566767022113,-2.5414381733502727,3.2475892587724564,-2.4559175596930634,-0.6634629081123422,0.14576045793281303
2.9821422949687086,-2.548072802431396,3.2230300831755256,-2.454459955113735,-0.8939073865843823,0.11637794910275001
2.9566615669443945,-2.55701187629724,3.1984854836243883,-2.453296175622708,-1.1193587409217793,0.0782832176182412
2.931091448181422,-2.5682054637064575,3.1739525218681615,-2.4525133434465256,-1.3396774993589786,0.03130087208962046
2.9054093935443577,-2.5816022387000475,3.149427388433696,-2.4522003347256294,-1.5546912271242102,-0.024794623628477508
2.879593371157357,-2.5971491509712896,3.1249053850864397,-2.452448280961914,-1.7641910498505053,-0.09028228893389484
2.853621879647644,-2.614791061469795,3.1003809022768207,-2.453351103851253,-1.9679284540828996,-0.16549722763674937
2.8274739690329462,-2.634470346010624,3.0758473912383084,-2.4550060761276207,-2.1656124064533473,-0.2508324176784159
2.80112926557284,-2.6561264700751575,3.0512973304770323,-2.457514400304405,-2.356906842476221,-0.34673959502033386
2.7745680008720885,-2.6796955384999195,3.026722186473988,-2.4609817962546083,-2.5414285842293145,-0.4537291193830935
2.7477710454870894,-2.7051098243422125,3.002112368511442,-2.465519087448439,-2.7187457531439394,-0.5723686946097305
2.7207199472436674,-2.732297281873652,2.977457177636958,-2.4712427743945367,-2.8883767493648724,-0.7032808053907367
2.693396974424931,-2.7611810493673006,2.9527447498930126,-2.478275582448444,-3.0497898722271737,-0.8471387259223724
2.665785163931258,-2.7916789480895723,2.927961994068528,-2.486746969707668,-3.2024036568768524,-1.004660955883414
2.6378683744503624,-2.823702984658341,2.9030945243714514,-2.496793579266502,-3.3455879995045676,-1.1766039460560995
2.609631344603779,-2.8571588646533868,2.8781265885787866,-2.5085596187270633,-3.4786661377245798,-1.363752991073751
2.581059755957245,-2.8919455260306326,2.853040992391516,-2.522197148637801,-3.6009175431446447,-1.5669111910570745
2.5521403006969385,-2.9279547014620793,2.827819020905138,-2.537866260548372,-3.7115817702302034,-1.786886417877196
2.5228607536823175,-2.965070519164381,2.802440358299654,-2.555735124727144,-3.8098632896264286,-2.0244762655329462
2.4932100484906736,-3.0031691520606456,2.776883007052383,-2.5759798873824735,-3.8949373160830842,-2.280451017059268
2.4631783569700674,-3.0421185252214764,2.751123208178558,-2.5987843975530662,-3.9659566224905953,-2.55553472107369
2.4327571717178524,-3.0817780914463824,2.7251353642030276,-2.624339744763803,-4.022059314331944,-2.8503845371498717
2.401939390803389,-3.121998684589702,2.6988919667553897,-2.652843590135302,-4.062377525725734,-3.1655685773013658
2.3707194039574917,-3.162622459846959,2.6723635308540366,-2.6844992759083155,-4.086046992346476,-3.501542536596578
2.339093179359022,-3.203482929770424,2.6455185380949535,-2.719514701274281,-4.092217461405516,-3.858625464074659
2.3070583500613178,-3.2444051043844793,2.618323391082211,-2.758100955915028,-4.080063918260267,-4.236975069830892
2.274614299017473,-3.285205743567082,2.5907423815230604,-2.8004707066133365,-4.048798646639326,-4.636562989240695
2.241762241581802,-3.3256937300334752,2.562737674456927,-2.8468363365057434,-3.9976841979628146,-5.057150424772383
2.2085053042814673,-3.3656705720131033,2.5342693110918697,-2.897407840753467,-3.926047426931394,-5.49826455426003
2.1748485985613364,-3.4049310462824174,2.505295232684335,-2.9523904862960673,-3.83329485630448,-5.959176027430444
2.140799288098512,-3.443263994845462,2.4757713278213744,-3.011982246570372,-3.7189297628414866,-6.438877766799113
2.1063666481500576,-3.480453292473877,2.445651505355671,-3.076371024238363,-3.582571526174723,-6.936065143189154
2.0715621152253187,-3.516279007735624,2.4148877951132874,-3.1457316756702545,-3.423977948436987,-7.4491174100392685
2.0363993251479626,-3.550518787219994,2.3834304783565847,-3.2202228497706473,-3.2430714283855635,-7.9760800557016
2.0008941372757625,-3.5829495015038497,2.3512282498588783,-3.2999836503276634,-3.039970051295549,-8.51464747162502
1.965064642260724,-3.6133492020168054,2.3182284133556017,-3.3851301250439136,-2.8150248249302114,-9.062145040285035
1.928931150240556,-3.6414994502661076,2.2843771121051626,-3.475751575446764,-2.568864440236633,-9.615509424891647
1.892516155737895,-3.667188094668474,2.249619596350695,-3.5719066696956805,-2.3024490480869257,-10.171265500476302
1.85584427479121,-3.690212585149343,2.2139005296537384,-3.6736193247004434,-2.017134601185059,-10.72549801448918
1.8189421489397166,-3.7103839311611937,2.177164336406734,-3.780874304845335,-1.7147492871990335,-11.273815724206393
1.7818383096281047,-3.727531424033184,2.1393555933582804,-3.893612462087399,-1.3976834384169408,-11.811305461890907
1.7445629953877728,-3.7415082584173533,2.1004194687374063,-4.011725516706308,-1.0689939911165751,-12.332473383653264
1.7071479128035993,-3.7521981983285193,2.0603022135703433,-4.135050250542841,-0.7325240058007515,-12.831170656515782
1.669625930820314,-3.759523438386527,2.018951711064915,-4.263361957107999,-0.39303683373369763,-13.300501173540964
1.6320306964364488,-3.763453806723864,1.976318091493835,-4.396366968843409,-0.05636306538367341,-13.732709771749098
1.5943961583692101,-3.7640174373777007,1.932354421805401,-4.5336940665609,0.2704437950744744,-14.119051162450441
1.556755983995433,-3.761312999426956,1.887017481139792,-4.674884578185404,0.5789501967251844,-14.449642768902887
1.5191428540011636,-3.7555234974597043,1.8402686353579378,-4.819381005874433,0.8591957771748203,-14.713309395253921
1.4815876190265664,-3.746931539687956,1.7920748252991936,-4.966514099826973,1.0995750303038223,-14.897434662584773
1.444118303629687,-3.735935789384918,1.7424096843009238,-5.1154884464528205,1.2867736144548958,-14.987843905221933
1.4067589457358378,-3.723068053240369,1.6912547998363956,-5.26536688550504,1.4057954863211062,-14.968755866505612
1.3695282652034342,-3.709010098377158,1.6386011309813453,-5.415054444170096,1.4401281551062828,-14.822855477978123
1.3324381642196625,-3.6946088168260953,1.5844505865396443,-5.563282998949877,1.3721037944766827,-14.531555318537755
1.2954920760514015,-3.6808877788813286,1.5288177565501455,-5.708598552135254,1.1835202814974226,-14.075525019523749
1.2586831982625881,-3.6690525760663544,1.471731771028793,-5.849353802330492,0.856582934806561,-13.435569197144154
1.2219926725019246,-3.6604867467182887,1.413238233005488,-5.983709494301933,0.37520734393033967,-12.593916095864106
1.1853878050347417,-3.656734673278985,1.3534011380624686,-6.109648655260574,-0.273321791981718,-11.5359306172512
1.148820458301952,-3.6594678911988026,1.2923046515098628,-6.225007961433086,-1.0964166636872457,-10.252179494593308
1.112225779389964,-3.670432057835675,1.230054571895532,-6.327529756379019,-2.0941609516308795,-8.740655831953557
1.075521458811607,-3.6913736673519835,1.1667792743317418,-6.414936314698554,-3.2574890534290053,-7.008835976976353
1.0386077221380872,-3.7239485578862737,1.1026299111847562,-6.485024674468318,-4.566951894614726,-5.075137073296595
1.0013682365592245,-3.769618076832421,1.037779664440073,-6.535776045201284,-5.9924628429790605,-2.9693275220018305
0.9636720557909002,-3.8295427052622113,0.9724219039880602,-6.565469320421302,-7.494312461100817,-0.7315662425946424
0.9253766287382781,-3.9044858298732197,0.9067672107838471,-6.572784982847248,-9.025511295516788,1.5899809385852064
0.8863317704395459,-3.9947409428283875,0.8410393609553747,-6.556885173461397,-10.535212596477407,3.9426383797779567
0.846384361011262,-4.100093068793162,0.7754705092207608,-6.517458789663617,-11.972679978478155,6.273194743237232
0.8053834303233304,-4.219819868577943,0.7102959213241246,-6.454726842231245,-13.291108941153661,8.531559001742725
0.7631852316375509,-4.35273095798948,0.6457486529018122,-6.369411252213817,-14.450651562802234,10.67338717594045
0.7196579220576561,-4.497237473617503,0.582054540379674,-6.262677380454413,-15.420213636386451,12.661264320486426
0.6746855473214811,-4.6514396099813675,0.5194277665751298,-6.136064737249549,-16.177902696992767,14.464413393141095
0.6281711512216674,-4.813218636951295,0.4580671192026343,-5.991420603318137,-16.71029040763665,16.057238676694062
0.5800389648521544,-4.980321541027662,0.39815291316945295,-5.830848216551197,-17.01083335803665,17.417202317376304
0.5302357494418778,-5.150429874608029,0.33984443100394096,-5.656676193377434,-17.077852775694495,18.522563761790465
0.4787314506957975,-5.321208402364974,0.2832776690701666,-5.47145055575953,-16.91243726345108,19.350431875989788
0.42551936667214774,-5.490332774999485,0.2285631635125713,-5.277946236999632,-16.516555894837715,19.87545917505582
0.3706160389221529,-5.655498333947862,0.17578370114257497,-5.079191645249074,-15.89159710836931,20.069404114588565
0.3140610555826743,-5.814414305031555,0.12499178469008422,-4.878497604103189,-15.037504984898831,19.901726655662625
0.2559169125323587,-5.964789354880543,0.07620680864905233,-4.679480337546563,-13.952667142022758,19.341356941469297
0.19626901898355328,-6.104316026300771,0.029412005273586693,-4.48606676813187,-12.634695331851045,18.35975196534372
0.13522585872054557,-6.230662979619281,-0.01544866240773201,-4.302469248478433,-11.082193946543017,16.935276314921158
0.07291922892435276,-6.341484919084712,-0.05847335489251634,-4.1331164853292215,-9.297490810139896,15.05875022089064
0.009504379733505638,-6.434459827186111,-0.09980451974580856,-3.9825289831203152,-7.290078791620096,12.739660879442864
-0.05484021853835547,-6.5073606151023125,-0.1396298095770117,-3.8551323743258865,-5.08019673100376,10.012053814491331
-0.1199138246893786,-6.55816258241235,-0.17818113332027058,-3.755011836180973,-2.7016481937517605,6.9386431608006705
-0.18549545051350208,-6.585179064349868,-0.2157312516820803,-3.685625404572966,-0.20278409969715935,3.6114600741925655
-0.25134724115700074,-6.587206905346839,-0.25258750572780997,-3.6495108038310407,2.3552409539460917,0.14769743734554508
-0.3172193102104691,-6.563654495807379,-0.2890826137661204,-3.648033829457585,4.9031866002329405,-3.3195430708947353
-0.3828558551685429,-6.514622629805049,-0.32556295206069624,-3.6812292601665324,7.370702967045127,-6.654353900639949
-0.4480020814665934,-6.4409156001345975,-0.3623752446623616,-3.7477727991729317,9.693963096188385,-9.732307777358104
-0.5124112374679394,-6.343975969172714,-0.3998529726540909,-3.845095876946513,11.822009047396396,-12.452690897049607
-0.5758509971596665,-6.22575587869875,-0.43830393142355606,-3.969622785917009,13.72029674970719,-14.746084709276337
-0.6381085559466539,-6.088552911201678,-0.47800015928272616,-4.117083633009773,15.370913567206955,-16.57624533845893
-0.6989940850586707,-5.934843775529608,-0.5191709956128239,-4.282846086394362,16.76999162990477,-17.93692342963806
-0.7583425228139667,-5.76714385923056,-0.5619994564767675,-4.462215320690743,17.923492196516,-18.84538676699172
-0.8160139614062724,-5.5879089372654,-0.606621609683675,-4.65066918836066,18.842633717373324,-19.33467495625674
-0.8718930507789263,-5.399482600091667,-0.6531283015672815,-4.844015937923228,19.539920999009915,-19.446214884678298
-0.925887876779843,-5.204083390101568,-0.7015684609465138,-5.03847808677001,20.02627028497111,-19.223750442983523
-0.9779287106808586,-5.0038206872518565,-0.751953241814214,-5.2307155911998455,20.30932924852106,-18.708924370238105
-1.0279669175533772,-4.800727394766646,-0.8042603977262124,-5.417804834902227,20.3928551134299,-17.938453725401743
-1.0759741915010437,-4.596798843632347,-0.8584384460752347,-5.597189372156244,20.276932542106838,-16.942671459499454
-1.1219421799373672,-4.394029518211278,-0.9144103397967971,-5.766616086751238,19.958833158384444,-15.745196502832147
-1.16588247511948,-4.194441186627434,-0.9720765006643095,-5.924068051779559,19.43438199030034,-14.363560450026535
-1.2078268869857545,-4.000097366724431,-1.0313171811821051,-6.067703656279825,18.699755268356284,-12.810690906511812
-1.2478278606529987,-3.813099814040868,-1.0919942177449034,-6.195810565344943,17.753654789553835,-11.097179549713779
-1.2859588587934074,-3.6355632661453297,-1.1539523233983529,-6.306782360842081,16.59976415765049,-9.23421378398167
-1.3223144914548608,-3.469565624568825,-1.2170201470067736,-6.399124498681897,15.249283972854771,-7.2369113248298955
-1.357010147700549,-3.3170727848402772,-1.2810113919935926,-6.471493611930196,13.723183193244632,-5.12758599822384
-1.3901808755489518,-3.179840952907831,-1.3457263281128946,-6.522769471912435,12.053645458152447,-2.938257157485902
-1.42197928507803,-3.0593044983263065,-1.410954022832019,-6.552152043487294,10.284122400661097,-0.7116110176541973
-1.452572330061293,-2.9564632743196957,-1.476475543266892,-6.559268153663836,8.467531271831168,1.5002378559919762
-1.4821369628044898,-2.871787961601384,-1.5420682248035302,-6.544265775103916,6.662501867901539,3.6393831280616364
-1.5108548424205037,-2.805162942922369,-1.6075108825545694,-6.5078719438233,4.928121393568842,5.647673427778553
-1.5389064718497274,-2.7558817289866804,-1.6725896019928024,-6.451395209545515,3.318147307177905,7.47301528171107
-1.5664652891395943,-2.7227002559149014,-1.7371035540882576,-6.376665056728404,1.8759092317467272,9.074950964214583
-1.5936922916987433,-2.703941163597434,-1.8008702046555416,-6.285915547086258,0.6309531082989203,10.42823175614724
-1.6207317033347177,-2.697631632514445,-1.8637293601264042,-6.1816332295247856,-0.40204629126213104,11.523759864184287
-1.6477080196598621,-2.7016520954270664,-1.925545692421652,-6.066395630882942,-1.2222251156116681,12.367068944366542
-1.674724540614133,-2.713874346583183,-1.9862096487304814,-5.942724941439277,-1.8399397286828723,12.975112653150152
-1.7018632840799648,-2.732273743870012,-2.045636898144874,-5.812973814907775,-2.273459834717868,13.372350251027774
-1.729186021518665,-2.7550083422171907,-2.103766636293952,-5.679250312397498,-2.5456742125702485,13.586988800298048
-1.7567361049408368,-2.780465084342893,-2.160559139417927,-5.543380424394518,-2.6812930613021844,13.647924702569862
-1.7845407557842656,-2.807278014955915,-2.215992943661872,-5.406901177368819,-2.704761907442706,13.582593739160092
-1.8126135359338247,-2.8343256340303418,-2.2700619554355606,-5.271075239977217,-2.638894644342981,13.415692202958637
-1.8409567922741281,-2.8607145804737715,-2.3227727078353326,-5.136918317947631,-2.50411417569619,13.16859959350133
-1.8695639380788658,-2.8857557222307335,-2.374141891014809,-5.005232322012618,-2.3181455945227447,12.85929481438786
-1.898421495301173,-2.908937178175961,-2.424194214234935,-4.8766393738687395,-2.096011633003558,12.502576066874434
-1.9275108670829326,-2.9298972945059965,-2.4729606079736226,-4.7516136131999955,-1.8502078875515189,12.110437227801519
-1.9568098400279925,-2.9483993733815117,-2.5204767441056224,-4.63050924092198,-1.5909688148065504,11.692499436052431
-1.9862938337618077,-2.964309061529577,-2.566781836514842,-4.5135842465614555,-1.3265656050386951,11.256435566838707
-2.0159369243771033,-2.977574717579964,-2.611917678980457,-4.401019890893068,-1.0636003940996086,10.8083540800708
-2.045712671552903,-2.9882107215209603,-2.6559278778893876,-4.2929363500923605,-0.8072776870512185,10.35312797809586
-2.075594778768113,-2.9962834983914726,-2.698857241390311,-4.189405070311402,-0.5616445201346584,9.894666330793601
-2.1055576137520275,-3.0018999435928193,-2.740751292093425,-4.0904584070034655,-0.32979729629720095,9.436132237051591
-2.135576613187956,-3.005197916555791,-2.7816558761634598,-3.9960970846329498,-0.11405675381843525,8.980114053506576
-2.1656285923535137,-3.0063384840939755,-2.821616847009789,-3.906295944097884,0.0838857814686209,8.528757609064657
-2.1956919771944534,-3.0054996262792892,-2.860679806450768,-3.8210083680072375,0.2628471117805,8.083866868697315
-2.2257469734572464,-3.0028711551614844,-2.8988898901308406,-3.740169699320264,0.42205210870643,7.646979702310513
-2.255775685008861,-2.99865063407442,-2.9362915871240434,-3.663699902297159,0.5610514446940758,7.2194244047317255
-2.285762191349605,-2.993040119627479,-2.972928586147015,-3.591505658249842,0.6796541060721312,6.802361594880433
-2.31569259254588,-2.986243578566758,-3.0088436427295133,-3.523482042301038,0.7778721269146203,6.396815192544071
-2.3455550283315474,-2.978464857297612,-3.0440784631525237,-3.459513890375597,0.8558754018738866,6.0036953692035455
-2.3753396769045234,-2.969906103278873,-3.0786736020562797,-3.3994769366835618,0.9139548045382536,5.623815702665506
-2.405038737937312,-2.9607665552334903,-3.112668371423115,-3.3432387796569065,0.9524921505325611,5.257906225356081
-2.434646403489647,-2.9512416337281646,-3.146100759219684,-3.290659717403346,0.9719358041858382,4.906623627467455
-2.4641588198269284,-2.941522275686306,-3.1790073563937176,-3.241593481128671,0.9727809403854187,4.570559541179712
-2.4935740425837913,-2.931794466282452,-3.2114232912050045,-3.195887885716874,0.9555536464916012,4.250247573973425
-2.522891987246616,-2.9222389298175364,-3.243382170062173,-3.15338540997714,0.9207981899156082,3.946169562474219
-2.5521143765447913,-2.9130309479183802,-3.2749160241619446,-3.113923714352398,0.8690668913517082,3.6587613704140205
-2.5812446860239753,-2.904340279004863,-3.3060552613054686,-3.0773361006482576,0.8009121368794143,3.388418444450163
-2.610288088814024,-2.896331157636069,-3.336828622311951,-3.043451916203756,0.716880138407314,3.135501261060401
