th1 (rad),w1 (rad/s),th2 (rad),w2 (rad/s)
0.5417156201673904,-0.630501047550805,3.2449020216952,-0.44841470197846983
0.5354106096918824,-0.7089478402445717,3.2404178746754155,-0.5110239218183168
0.5283211312894367,-0.7870421464921601,3.2353076354572323,-0.5742491918348563
0.5204507098245151,-0.8647289782965354,3.229565143538884,-0.6381514620683689
0.5118034200415498,-0.9419503637554841,3.2231836289182003,-0.7027868876565622
0.5023839164039949,-1.0186451025615813,3.2161557600416346,-0.7682064225311317
0.4921974653783791,-1.094748549130181,3.2084736958163234,-0.8344554499787072
0.4812499798870773,-1.1701924263181696,3.2001291413165363,-0.9015734545286561
0.4695480556238956,-1.2449046725152977,3.1911134067712497,-0.9695937394798778
0.45709900889874266,-1.3188093246120751,3.1814174693764508,-1.0385431940869845
0.4439109156526219,-1.391826438961595,3.1710320374355807,-1.1084421139712397
0.42999265126300595,-1.4638720519482036,3.1599476162958684,-1.1793040776849488
0.4153539307435239,-1.534858181148409,3.148154575519019,-1.2511358815262594
0.4000053489320398,-1.604692867318257,3.1356432167037562,-1.3239375336675778
0.38395842025885724,-1.6732802565714977,3.1224038413670803,-1.3977023074259536
0.36722561769314227,-1.7405207211353426,3.1084268182928207,-1.4724168520778613
0.34982041048178886,-1.8063110160032536,3.0937026497720423,-1.5480613580240465
0.3317573003217563,-1.870544467671822,3.078222036191802,-1.6246097713736374
0.3130518556450381,-1.9331111899832634,3.0619759384780654,-1.7020300511829634
0.2937207437452055,-1.9938983209350707,3.0449556379662357,-1.7802844607070796
0.2737817605358548,-2.0527902732090633,3.027152793359165,-1.859329882165171
0.25325385780376414,-2.109668990164239,3.0085594945375136,-1.9391181427588595
0.23215716790212174,-2.164414198187065,2.989168313109925,-2.0195963380974358
0.2105130259202511,-2.216903645658476,2.9689723497289506,-2.1007071378654576
0.18834398946366632,-2.2670133184408385,2.947965278350296,-2.182389057610247
0.16567385627925793,-2.3146176217738135,2.9261413877741935,-2.2645766800268414
0.1425276800615198,-2.3595895188590097,2.903495620973925,-2.347200809174216
0.11893178487292971,-2.4018006172720323,2.880023612882183,-2.4301885417665874
0.0949137787002094,-2.4411211957270837,2.855721727464517,-2.513463241141949
0.07050256674293856,-2.477420165689632,2.8305870950530974,-2.596944401806586
0.045728365086042236,-2.5105649649366084,2.8046176510350316,-2.6805473956717996
0.02062271543667615,-2.5404213834417493,2.7778121770783137,-2.7641830953099675
-0.004781498397741342,-2.566853325943379,2.750170346125214,-2.847757374819425
-0.030450031657175133,-2.5897225202413763,2.7216927723770197,-2.931170495239089
-0.0563472568595889,-2.6088881856505672,2.6923810674246287,-3.014316388902984
-0.08243613871609456,-2.6242066820531607,2.662237903535599,-3.0970818656399586
-0.10867820553662617,-2.6355311665364227,2.6312670848791995,-3.179345773217049
-0.13503351720199042,-2.642711291500492,2.599473627147029,-3.2609781547329733
-0.16146063011699535,-2.645592985117749,2.5668638455996993,-3.3418394565295833
-0.18791655996817283,-2.6440183617594286,2.5334454510344036,-3.4217798512184885
-0.21435674358576712,-2.63782581599743,2.499227652522219,-3.5006387510826715
-0.24073500174574142,-2.6268503584284617,2.464221265011392,-3.578244596702851
-0.26700350533002604,-2.6109242541097104,2.4284388190443638,-3.6544150132859756
-0.2931127478711231,-2.5898780239776116,2.391894668911504,-3.728957431770025
-0.3190115281108992,-2.5635418653006825,2.3546050945938037,-3.8016702721280033
-0.34464694676390606,-2.5317475380365795,2.3165883918725236,-3.8723447810943563
-0.36996442214427183,-2.4943307490536153,2.27786494406158,-3.9407676045144973
-0.39490772963480797,-2.4511340448948276,2.238457268016435,-4.006724154580755
-0.41941907008375623,-2.402010195859418,2.1983900264706278,-4.070002803658368
-0.4434391720423504,-2.3468260199821946,2.1576899984340443,-4.130399899134928
-0.46690743224217235,-2.2854665560923384,2.116385999442695,-4.18772554851823
-0.4897620978030957,-2.2178394525024645,2.0745087439575127,-4.241810072702006
-0.5119404923281203,-2.143879394925474,2.0320906432304926,-4.292510970950106
-0.5333792862773751,-2.063552357696219,1.9891655335209915,-4.339720187925986
-0.5540148098543373,-1.9768594306400602,1.9457683316417316,-4.3833714261913705
-0.5737834041607379,-1.8838399544997972,1.901934617379818,-4.4234472127321
-0.5926218037057359,-1.784573694805079,1.857700145252497,-4.459985410864011
-0.6104675406537867,-1.6791818004456878,1.813100291143857,-4.493084874077346
-0.6272593586582436,-1.5678263302322752,1.7681694424030836,-4.522909969054035
-0.6429376219605664,-1.4507081873562093,1.7229403427125431,-4.549693751904425
-0.6574447038341285,-1.3280633743348447,1.677443405193499,-4.573739662463132
-0.6707253375774769,-1.2001575638038102,1.6317060085688677,-4.595421701260846
-0.6827269132155149,-1.067279065601114,1.5857517915562593,-4.615183165167654
-0.693399703871526,-0.9297303492307087,1.5395999599045829,-4.633534131817745
-0.7026970073638331,-0.7878183443950527,1.4932646185864054,-4.651047990648219
-0.7105751908077836,-0.6418437835111931,1.4467541386799232,-4.668357411662381
-0.7169936286428956,-0.4920898638200781,1.4000705645632994,-4.686150216089572
-0.7219145272810964,-0.33881049043930844,1.3532090624024036,-4.705165663340648
-0.7253026321854895,-0.18221831587643292,1.306157405768997,-4.726191696973688
-0.7271248153442539,-0.022472718920467566,1.2588954887992603,-4.7500637031233275
-0.7273495425334585,0.14033222903017883,1.211394851768027,-4.777665335168146
-0.7259462202431567,0.3061798739470539,1.1636181984163456,-4.809931957369344
-0.7228844215036861,0.47514335262939267,1.1155188788426522,-4.847857267619948
-0.7181329879773922,0.647398547017723,1.0670403061664526,-4.89250368453692
-0.711659002507215,0.8232380691530924,1.0181152693210833,-4.945017133925453
-0.7034266218156842,1.0030868555580061,0.9686650979818288,-5.00664694644896
-0.693395753260104,1.1875200653890317,0.9185986285173392,-5.078771675275237
-0.6815205526062137,1.377284057649935,0.8678109117645868,-5.1629317347075645
-0.6677477120297144,1.5733212228551539,0.8161815944175111,-5.260869787783104
-0.6520144998011629,1.7767992653336666,0.7635728965396801,-5.374579640048161
-0.6342465071478263,1.9891449687647527,0.7098271001391985,-5.506363750231663
-0.6143550574601787,2.212081108850844,0.6547634626368819,-5.658897773475039
-0.5922342463716703,2.447662148260616,0.5981744849021315,-5.835296638767099
-0.5677576248890641,2.6982979340973885,0.5398215185144606,-6.039168153100546
-0.5407746455480902,2.966741364783078,0.47942983698345515,-6.274622240220514
-0.5111072319002594,3.255989126657919,0.41668361458125003,-6.546167226610066
-0.4785473406336802,3.5689913850973207,0.35122194231514936,-6.858351235816855
-0.442857426782707,3.9079651178373145,0.2826384299569808,-7.214866191730026
-0.40377777560433387,4.272929187949078,0.21048976803968053,-7.6165847853619475
-0.3610484837248431,4.658831164862899,0.13432392018606104,-8.05764967136118
-0.31446017207621413,5.050512244216625,0.05374742347244925,-8.518546998178191
-0.26395504963404787,5.415601601676911,-0.03143804650933267,-8.956243868045494
-0.20979903361727875,5.6992770055571205,-0.12100048518978761,-9.29678649131288
-0.15280626356170754,5.832605456229159,-0.2139683501029164,-9.446565933935421
-0.09448020899941595,5.766614647674591,-0.3084340094422706,-9.339095317839138
-0.03681406252267004,5.513271519193017,-0.40182496262066203,-8.991172800368549
0.01831865266926013,5.142058643013932,-0.49173669062434755,-8.497585830555469
0.06973923909939946,4.730891739180042,-0.5767125489299022,-7.963391266373324
0.11704815649119987,4.330318958558404,-0.6563464615936354,-7.455391284523441
0.16035134607678392,3.962243324011947,-0.7309003744388698,-7.00122182747208
0.19997377931690338,3.631767876194861,-0.8009125927135906,-6.606000288127982
0.236291458078852,3.3366986290990255,-0.8669725955948704,-6.26537971777599
0.26965844436984227,3.072479909576331,-0.9296263927726303,-5.972200388651403
0.3003832434656056,2.8342859219714063,-0.9893483966591443,-5.719232100510504
0.32872610268531965,2.617767115528681,-1.0465407176642494,-5.500099300046636
0.35490377384060645,2.4192372760067133,-1.1015417106647158,-5.309468190289253
0.3790961466006736,2.2356516299826796,-1.1546363925676084,-5.142969135143706
0.4014526629005004,2.0645202407894323,-1.2060660839190456,-4.99704524701239
0.4220978653083947,1.9038122698610296,-1.2560365363891695,-4.868798242122376
0.441135988007005,1.7518702266970965,-1.3047245188103933,-4.755854359086513
0.45865469027397593,1.6073389669330238,-1.3522830624012585,-4.656254661427216
0.4747280799433062,1.46910892598501,-1.3988456090155306,-4.5683676311564865
0.48941916920315626,1.3362714500277086,-1.4445292853270955,-4.490820264283135
0.5027818837034334,1.2080838551649855,-1.4894374879699268,-4.422443912363189
0.5148627222550832,1.0839420928171914,-1.5336619270935588,-4.36223168695686
0.5257021431832551,0.9633592630546721,-1.5772842439631274,-4.309304902503074
0.5353357358138019,0.8459485656421206,-1.6203772929881581,-4.262886621573857
0.5437952214702231,0.7314095715925312,-1.6630061592038967,-4.22228084503987
0.5511093171861484,0.6195169326448896,-1.7052289676542953,-4.186856260928501
0.5573044865125973,0.5101108312318043,-1.7470975302635803,-4.156033744834415
0.5624055948249154,0.4030886210468954,-1.7886578677119245,-4.129277008206266
0.5664364810353844,0.29839722938282687,-1.8299506377939871,-4.106085933080424
0.5694204533292127,0.19602599611164928,-1.8710114971247913,-4.085992224570606
0.5713807132903291,0.09599971725309764,-1.9118714193704973,-4.068557065255296
0.5723407104628601,-0.001628252206962541,-1.9525569900230502,-4.053370476924195
0.5723244279407904,-0.09678289937530676,-1.9930906947922922,-4.040052092957616
0.5713565989470374,-0.18937444422533975,-2.0334912157218685,-4.028253027120035
0.569462854504784,-0.27930513592941036,-2.0737737459930687,-4.017658500366433
0.5666698031454899,-0.36647581170445676,-2.113950330996733,-4.007990865223698
0.5630050450284453,-0.4507920318460287,-2.15403023964897,-3.999012655882293
0.558497124709985,-0.5321695812099422,-2.194020366207793,-3.9905292985052814
0.5531754288978856,-0.6105391268607392,-2.233925659192846,-3.982391145326926
0.5470700376292782,-0.6858498448245794,-2.2737495706461153,-3.9744945495707995
0.5402115391810324,-0.7580718740458604,-2.3134945161418234,-3.9667817740595153
0.5326308204405737,-0.8271975181473588,-2.353162333882419,-3.959239618972781
0.5243588452591001,-0.8932411884979211,-2.392754730072147,-3.951896755001822
0.515426433374121,-0.9562381570832327,-2.432273697622165,-3.9448198470311775
0.5058640518032886,-1.016242256311173,-2.4717218960924767,-3.9381086404017647
0.4957016292401769,-1.0733227178867812,-2.5111029824964946,-3.931890248409776
0.4849684020613091,-1.1275603792023068,-2.5504218849805924,-3.9263129205670166
0.473692798269286,-1.1790435010578506,-2.5896850141862626,-3.921539584490753
0.4619023632587075,-1.2278634355769058,-2.62890041003117,-3.917741441868373
0.44962372890293845,-1.2741103609496351,-2.668077824449854,-3.915091865416326
0.4368826252934421,-1.317869264798767,-2.707228743104017,-3.9137607956180474
0.4237039326454544,-1.359216315898698,-2.7463663510601974,-3.913909780408924
0.41011176948646744,-1.3982157199093705,-2.7855054488642867,-3.9156877445573386
0.39612961228737376,-1.4349171131166603,-2.82466232630986,-3.91922752371294
0.38178044115620713,-1.4693535121018921,-2.8638546015469895,-3.924643154740775
0.36708690603518823,-1.5015398086799525,-2.9031010330943974,-3.9320278810810327
0.3520715079483887,-1.5314717790191705,-2.942421311905208,-3.9414528099701234
0.336756790158197,-1.5591255632820007,-2.981835840004909,-3.952966146731518
0.321165534525377,-1.5844575664195049,-3.021365501472224,-3.966592928500169
0.30532095886118193,-1.607404730541914,-3.0610314307572257,-3.9823351837725585
0.2892469115557628,-1.6278851330549367,-3.1008547825949515,-4.0001724530585445
0.27296806022521347,-1.6457988710149578,-3.140856507125537,-4.0200626177447925
0.2565100715150639,-1.6610291995831055,-3.181057133302985,-4.041942997396569
0.23989977951923283,-1.6734438999230483,-3.221476563276951,-4.065731688755876
0.22316534052000234,-1.6828968584898818,-3.2621338801645097,-4.091329131572615
0.2063363719351035,-1.689229844714164,-3.3030471714802356,-4.118619896342241
0.18944407348796188,-1.692274477110073,-3.344233370443658,-4.147474696468235
0.17252132871686116,-1.6918543685198206,-3.3857081174083405,-4.177752631972498
0.15560278503166294,-1.6877874393971477,-3.4274856437280654,-4.2093036734658815
0.13872491063769146,-1.6798883837298646,-3.469578680462724,-4.241971393644148
0.12192602680039281,-1.6679712655511436,-3.5119983943991655,-4.275595949221504
0.10524631414488138,-1.651852215287088,-3.5547543538913806,-4.310017309238198
0.0887277919920105,-1.6313521848812012,-3.5978545269837627,-4.345078716527123
0.07241427014319848,-1.6062997093211957,-3.641305314149034,-4.380630358413021
0.05635127304998652,-1.5765336106029522,-3.685111617733164,-4.416533211231381
0.040585936943957,-1.5419055691415788,-3.729276949845478,-4.4526630119306105
0.025166881252541212,-1.5022824780838124,-3.7738035799647838,-4.488914299918183
0.010144056471703088,-1.4575484887896597,-3.8186927229639656,-4.525204464552142
-0.00443142841619351,-1.4076066517497612,-3.863944767609487,-4.561477729378391
-0.018507494933691124,-1.3523800570273614,-3.909559544903271,-4.59770900439076
-0.03203129550396474,-1.2918123823296557,-3.9555366349471788,-4.633907543076902
-0.0449494193272613,-1.225867765041308,-4.001875710377948,-4.670120352369311
-0.05720809697767438,-1.154529926602382,-4.048576913901641,-4.706435321074722
-0.0687533962436982,-1.0778004926597409,-4.095641267112389,-4.742984055774164
-0.0795314011702956,-0.9956964692252295,-4.1430711076701305,-4.779944442095716
-0.0894883658625479,-0.9082468520405248,-4.190870552091088,-4.817542982915689
-0.09857083438295314,-0.8154883616257288,-4.239045981920245,-4.856057002539043
-0.10672571799921042,-0.7174603080938559,-4.287606551945635,-4.895816846345029
-0.11390032108014898,-0.6141985957691635,-4.336564720409085,-4.937208248037853
-0.12004230703784062,-0.505728876113549,-4.385936802889464,-4.980675081154172
-0.12509959579897612,-0.3920588468520554,-4.435743553701006,-5.026722758005729
-0.12902018426749667,-0.2731696742492826,-4.486010781281063,-5.0759225885514425
-0.1317518810099895,-0.1490064834081642,-4.536770007166577,-5.128917465199304
-0.13324194584407115,-0.019467817986999314,-4.58805918181857,-5.186429299112653
-0.13343662402394113,0.1156060835674928,-4.639923474809697,-5.249268701180256
-0.1322805631882662,0.25644641130898704,-4.6924161618215,-5.318347477522786
-0.12971609907517634,0.40337058996876907,-4.745599636596728,-5.39469459376199
-0.12568239317548865,0.556799113052868,-4.799546582534347,-5.479476346685192
-0.12011440204495998,0.7172747857386852,-4.854341346001199,-5.57402154588103
-0.11294165418757313,0.8854847270492584,-4.910081561460009,-5.679852504603459
-0.10408680691708054,1.0622853049302485,-4.966880086506044,-5.798722469268745
-0.09346395386777806,1.2487296965513246,-5.024867311198731,-5.932659577370292
-0.08097665690226481,1.4460966703409432,-5.084193906972434,-6.084016115593907
-0.06651569019885538,1.6559168688996249,-5.145034068128373,-6.255518939970387
-0.04995652150985913,1.8799881480136689,-5.207589257528077,-6.450310809472033
-0.031156640029722443,2.1203620990090597,-5.272092365622797,-6.671959922054556
-0.009953019039631847,2.379265368143215,-5.338811964843342,-6.924390061327577
0.013839634641800307,2.6588837404978602,-5.4080558654566175,-7.211635217322779
0.04042847204677891,2.9608706251712,-5.480172217629845,-7.537231183732519
0.0700371782984909,3.2853264881180446,-5.555544529467171,-7.902896360410139
0.10289044317967136,3.628826482092908,-5.634573493071272,-8.305914806335537
0.13917870800060045,3.980934025130771,-5.717632641134628,-8.734428214588384
0.17898804825190817,4.318934899062579,-5.8049769232805115,-9.160227046816392
0.22217739724253396,4.602391735184294,-5.896579193748676,-9.531172500660965
0.2682013145943769,4.773962626312385,-5.991890918755286,-9.772052446819552
0.31594094085750074,4.777470110200532,-6.089611443223482,-9.8089664531679
0.36371564195950606,4.592936915852902,-6.187701107755161,-9.616805413968308
0.4096450111180351,4.25681537033315,-6.283869161894844,-9.246138905848628
0.4522131648213666,3.838016299821905,-6.37633055095333,-8.789752899470797
0.49059332781958565,3.3971220931873605,-6.464228079948039,-8.327289095913569
0.5245645487514592,2.9690153644388992,-6.5475009709071745,-7.902707334823814
0.5542547023958482,2.5676660813925833,-6.626528044255413,-7.531749573328441
0.579931363209774,2.1956744145071516,-6.701845539988698,-7.215280621188955
0.6018881073548455,1.850818770059379,-6.773998346200587,-6.948174731211264
0.6203962950554394,1.5293657688987257,-6.843480093512699,-6.72367183574343
0.6356899527444266,1.22749235618676,-6.910716811870134,-6.535160641655943
0.6479648763062942,0.9418100637037871,-6.976068418286693,-6.376770029255556
0.657382976943332,0.6695049381700344,-7.039836118579249,-6.243469396558401
0.6640780263250323,0.4083275254531823,-7.102270812544833,-6.1309906252630695
0.6681613015795641,0.15653293757618647,-7.163580718797464,-6.035701356797089
0.6697266309553259,-0.08718885574997434,-7.223937732365434,-5.954479466026865
0.6688547423978262,-0.32377801268192063,-7.283482527025703,-5.884605385513106
0.665616962271007,-0.5538611691821897,-7.342328580880834,-5.823675745790573
0.6600783505791851,-0.777799344031495,-7.40056533833874,-5.769536990720623
0.6523003571388701,-0.9957289494801613,-7.4582607082459464,-5.720236202526697
0.6423430676440686,-1.2075976861162592,-7.515463070271213,-5.673986221539998
0.630267090782906,-1.4131968850828907,-7.572202932486613,-5.629142403251621
0.6161351219320771,-1.6121914927225358,-7.62849435651913,-5.584188681220068
0.6000132070048517,-1.8041484941826182,-7.68433624333133,-5.537730884547409
0.5819717220630255,-1.9885641962421305,-7.739713552176804,-5.48849547269029
0.5620860801006042,-2.1648904614165163,-7.794598506903707,-5.435332015027131
0.5404371754864391,-2.332559721054582,-7.848951827053979,-5.377217886131766
0.5171115782758933,-2.4910084058501276,-7.902724005915296,-5.3132637977198875
0.492201494217392,-2.6396983249080597,-7.955856643892495,-5.242718965316629
0.46580451096831144,-2.778135500499849,-8.008283833545661,-5.164974922069965
0.4380231559633129,-2.9058860190587668,-8.05993358276636,-5.079567242590797
0.40896429577272525,-3.022588576407877,-8.110729255192268,-4.986174714500827
0.3787384100086465,-3.1279635568175213,-8.160591002337277,-4.884615774979967
0.3474587744404713,-3.221818667377843,-8.209437160087077,-4.774842290724395
0.31524058776669284,-3.3040513268231892,-8.257185582994321,-4.65693097983209
0.28220007449846096,-3.3746481597122138,-8.303754892792641,-4.531072935625381
0.24845359290133884,-3.4336820568892197,-8.349065622148895,-4.397561805547346
0.21411677233244664,-3.481307323073957,-8.393041240204369,-4.256781202335448
0.17930369910170707,-3.5177534416845853,-8.435609052227724,-4.10919188747535
0.14412616468486122,-3.5433179517786995,-8.476700971102478,-3.955319182747115
0.10869298516707424,-3.558358863264582,-8.516254162929949,-3.795740952411805
0.07310939653442841,-3.5632869476449374,-8.554211572454067,-3.6310763748004535
0.037476527057979034,-3.558558145959094,-8.59052233620207,-3.461975604347838
0.001890945598388094,-3.5446662449966744,-8.625142092245548,-3.289110326257325
-0.03355571685157865,-3.5221358960495213,-8.658033195508121,-3.113165134063832
-0.06877707581207386,-3.4915159927944255,-8.68916484684876,-2.934829618627394
-0.10369223574001812,-3.453373388324957,-8.718513143035034,-2.754791044501245
-0.1382259696232677,-3.408286914940669,-8.746061053480046,-2.5737275017996932
-0.1723088387726744,-3.3568416709313165,-8.771798328498043,-2.3923014520698853
