th1 (rad),w1 (rad/s),th2 (rad),w2 (rad/s),a1 (rad/s^2),a2 (rad/s^2)
2.46280767945422,-1.5329981062156852,4.628529871887466,-1.7140126499532375,-3.2566911011409627,5.994042231309658
2.4474776983920634,-1.5655650172270947,4.611389745387934,-1.654072227640141,-3.529190431390573,5.745055000388761
2.4318220482197925,-1.6008569215410005,4.594849023111532,-1.5966216776362534,-3.7974767148505135,5.486278196227845
2.4158134790043824,-1.6388316886895056,4.578882806335169,-1.541758895673975,-4.062247586367322,5.216736924209024
2.3994251621174874,-1.6794541645531789,4.56346521737843,-1.4895915264318846,-4.324235166929957,4.935427843763526
2.3826306204719554,-1.7226965162224783,4.548569302114111,-1.4402372479942493,-4.584205087315508,4.641319946458674
2.3654036553097306,-1.7685385670956335,4.534166929634169,-1.3938240485296627,-4.842955272607789,4.3333549928321595
2.3477182696387744,-1.8169681198217114,4.520228689148872,-1.350490498601341,-5.10131432403571,4.010447802463872
2.329548588440557,-1.8679812630620685,4.506723784162858,-1.3103860205767024,-5.360139327179889,3.6714866231418504
2.3108687758099364,-1.9215826563338674,4.493619923957091,-1.2736711543452839,-5.620312904674262,3.3153338422228975
2.291652949246598,-1.97778578538061,4.480883212413638,-1.240517815923055,-5.882739316943423,2.9408273466320494
2.2718750913927916,-2.036613178550044,4.4684780342544075,-1.2111095424567344,-6.148339396298329,2.546782887408328
2.2515089596072912,-2.098096572513027,4.45636693882984,-1.1856417135826511,-6.418044078140862,2.1319978600091165
2.230527993882161,-2.162277013294436,4.4445105216940135,-1.1643217349825599,-6.692786268719037,1.6952569720177022
2.2089052237492166,-2.229204875981626,4.432867304344188,-1.1473691652623828,-6.973490762908034,1.2353403341252687
2.1866131749894,-2.2989397836107064,4.421393612691564,-1.13501576192113,-7.261061899556068,0.7510345760882099
2.163623777153293,-2.371550402606267,4.410043455072353,-1.127505416160248,-7.556368618500732,0.24114765345073969
2.1399082731272303,-2.4471140887912743,4.39876840091075,-1.1250939396257407,-7.8602265658838775,-0.29547193167596697
2.1154371322393177,-2.5257163544501133,4.387517461514493,-1.1280486589425003,-8.173376887510516,-0.8599107283175078
2.090179968694817,-2.6074501233252185,4.376236974925068,-1.1366477662256753,-8.49646135972876,-1.4531599635773171
2.0641054674615646,-2.692414736922506,4.364870497262811,-1.1511793658614484,-8.829993541197723,-2.076078421909725
2.0371813200923397,-2.7807146723344833,4.353358703604196,-1.1719401500805458,-9.174325696073545,-2.729347860985301
2.009374173368995,-2.872457929295219,4.341639302103391,-1.1992336286903988,-9.5296113501324,-3.4134203761054813
1.9806495940760427,-2.967754042796543,4.329646965816487,-1.2333678324514536,-9.895763507743736,-4.1284573397224085
1.9509720536480772,-3.0667116778739802,4.317313287491972,-1.2746524058486777,-10.272408791210786,-4.874259866228271
1.9203049368693375,-3.1694357657860883,4.304566763433485,-1.3233950045109604,-10.65883807549556,-5.6501912068740285
1.8886105792114765,-3.276024146541044,4.291332813388375,-1.3798969165797006,-11.053954588324686,-6.455092084659796
1.855850337746066,-3.3865636924242906,4.277533844222578,-1.4444478374262986,-11.456220929884964,-7.287190746484106
1.821984700821823,-3.50112590172314,4.263089365848315,-1.5173197448911395,-11.863607030262287,-8.144010439371518
1.7869734418045917,-3.619761972025763,4.247916168399404,-1.5987598492848547,-12.27354168576861,-9.02227808954709
1.7507758220843341,-3.742497388883449,4.231928569906556,-1.6889826301803257,-12.682870959496537,-9.917839131113531
1.7133508481954995,-3.8693260984784144,4.215038743604753,-1.788161021491461,-13.087827338629618,-10.82558461504548
1.6746575872107154,-4.000204371864711,4.1971571333898385,-1.8964168676419157,-13.484014031345026,-11.739397810574687
1.6346555434920684,-4.135044512178161,4.1781929647134195,-2.0138108457476624,-13.866409060119691,-12.652128332438004
1.5933050983702868,-4.273708602779358,4.1580548562559425,-2.1403321290720423,-14.22939375384153,-13.555602199704293
1.5505680123424932,-4.416002540317773,4.136651534965222,-2.2758881510690854,-14.56680974678904,-14.440675950722254
1.5064079869393154,-4.561670637785664,4.113892653454531,-2.420294910576308,-14.872047566705985,-15.297341812805222
1.460791280561459,-4.710391113452723,4.0896897043487686,-2.5732683287043603,-15.13816828978317,-16.114888814678483
1.4136873694269316,-4.861772796350555,4.063957021061725,-2.734417216851145,-15.358057580795942,-16.882121590818336
1.365069641463426,-5.015353372158514,4.036612848893213,-2.9032384327593284,-15.524608837602715,-17.5876345554243
1.314916107741841,-5.170599460534541,4.00758046456562,-3.0791147783135715,-15.630929338584878,-18.22013438516935
1.2632101131364957,-5.3269087539203905,3.976789316782484,-3.261316122165265,-15.670560560416574,-18.768798782803522
1.2099410255972918,-5.483614359524556,3.9441761555608315,-3.4490041099933,-15.637701562901515,-19.223654877666846
1.1551048820020462,-5.6399913751535715,3.9096861144608983,-3.6412406587699686,-15.527422902346824,-19.575957001371055
1.0987049682505106,-5.79526560417704,3.8732737078731985,-3.8370002287836793,-15.335858241777116,-19.81854156541692
1.04075231220874,-5.94862418659481,3.834903705585362,-4.035185644437848,-15.060361841395823,-19.946136809817794
0.981266070342792,-6.099227805008769,3.7945518491409835,-4.234647012536026,-14.699622407808128,-19.95560746668842
0.9202737922927043,-6.24622402908685,3.7522053790156233,-4.434203087202911,-14.253727115312747,-19.84611873574043
0.8578115520018358,-6.3887613002399775,3.707863348143594,-4.632664274560315,-13.724173563385417,-19.619209913607268
0.793923938999436,-6.526003035873831,3.661536705397991,-4.828856373696388,-13.113831466969835,-19.278774812479337
0.7286639086406977,-6.6571413505435295,3.6132481416610274,-5.021644121821181,-12.426859446318502,-18.83095287785613
0.6620924951352625,-6.781409945006715,3.5630317004428154,-5.209953650599743,-11.668584941638942,-18.283940838373653
0.5942783956851954,-6.898095794423104,3.510932163936818,-5.392793058983479,-10.845356751875679,-17.64773914473147
0.5252974377409643,-7.006549361941861,3.457004233346983,-5.5692704504307935,-9.964379929473928,-16.93385001683075
0.45523194412154566,-7.1061931612366,3.401311528842675,-5.738608950599101,-9.033541902676054,-16.15494457401779
0.38417001250917965,-7.196528580263361,3.343925439336684,-5.900158396339279,-8.061237046578235,-15.324515512604188
0.31220472670654603,-7.277140950729143,3.2849238553732913,-6.053403551465321,-7.056194864127001,-14.456529556080794
0.2394333171992546,-7.347702899370413,3.2243898198586383,-6.197968847026129,-6.027314846217343,-13.565090964509524
0.16595628820555047,-7.4079760478325865,3.162410131388377,-6.333619756671224,-4.983509265888062,-12.664124262416971
0.09187652772722461,-7.457811140491467,3.0990739338216646,-6.460260999295394,-3.9335538275430117,-11.767081445102034
0.01729841632230994,-7.497146678766897,3.034471323828711,-6.577931813746414,-2.885945321489182,-10.8866765271266
-0.05767305046535903,-7.526006131981789,2.968692005691247,-6.68679857901768,-1.848765203863707,-10.034648530100979
-0.13293311178517692,-7.544493784020426,2.90182401990107,-6.78714506431869,-0.8295482310574905,-9.221552865891306
-0.20837804962538117,-7.552789266331001,2.833952569257883,-6.879360592977603,0.16484421862615428,-8.45658045860973
-0.28390594228869115,-7.551140824144739,2.765158963328107,-6.9639263975637,1.1283458597566887,-7.747403715681567
-0.35941735053013857,-7.539857365547173,2.69551969935247,-7.041400434720516,2.0558013284506744,-7.100048445466076
-0.4348159241856103,-7.519299352262665,2.625105695005265,-7.112400919175177,2.943074654679013,-6.518790888117792
-0.510008917708237,-7.489868605715875,2.553981685813513,-7.177588828056355,3.787148513857753,-6.006079082420654
-0.5849076037653957,-7.451997120577298,2.4822057975329495,-7.237649618880561,4.586212159607538,-5.562477793230549
-0.6594275749711688,-7.406134998981223,2.4098293013441436,-7.293274396812866,5.339735828343134,-5.186636186981158
-0.7334889249609811,-7.352737640697791,2.336896557376015,-7.345140758682678,6.048529343669503,-4.8752774319165635
-0.807016301367959,-7.292252347261096,2.263445149789188,-7.393893533001844,6.714782535573868,-4.623209519992269
-0.87993882484057,-7.225104521905357,2.1895062144591697,-7.440125628201766,7.342084816029951,-4.423356987544828
-0.9521898700596235,-7.151683673745057,2.115104958177152,-7.484359198077215,7.935420713057096,-4.266813986789383
-1.023706706797074,-7.0723294666144865,2.04026136619638,-7.527027337945109,8.50113727568123,-4.14292045023366
-1.094430001463219,-6.987318093857674,1.964991092816929,-7.5684565424474455,9.046877981516229,-4.039364976615601
-1.1643031824017955,-6.896849314042512,1.8893065273924545,-7.608850192213602,9.581476133236261,-3.942320563407932
-1.2332716755422206,-6.801034552710149,1.8132180254703185,-7.648273397847682,10.11479884371295,-3.836622326896297
-1.3012820210693221,-6.69988656427302,1.7367352914918417,-7.686639621116645,10.657530837271644,-3.7059996486163467
-1.3682808867120524,-6.5933112559003035,1.6598688952806753,-7.723699617602808,11.220885858873258,-3.5333783319716896
-1.4342139992710554,-6.481102397311571,1.5826318991046473,-7.759033400922525,11.816233102860057,-3.3012706652375186
-1.499025023244171,-6.36294006628297,1.505041565095422,-7.7920461075749,12.454627570242168,-2.992271809994894
-1.5626544239070008,-6.238393790580549,1.4271211040196732,-7.821968825674849,13.146237623673583,-2.589678446578014
-1.6250383618128064,-6.106931414343813,1.3489014157629247,-7.847865610140629,13.89967126105909,-2.078238724205144
-1.6861076759562446,-5.967934701733222,1.2704227596615183,-7.868647997382681,14.721215609372297,-1.4450299637264792
-1.7457870229735768,-5.820722545639499,1.1917362796876916,-7.883098297019945,15.614022123149308,-0.6804413987832034
-1.8039942484299718,-5.664582324408006,1.1129052967174922,-7.889902711007777,16.57729217474651,0.2207862750977038
-1.8606400716740519,-5.49880940266054,1.0340062696074144,-7.887694848256801,17.60554178644239,1.2585427014500852
-1.9156281657006573,-5.322753984796116,0.9551293211248464,-7.8751094212423,18.688045883984795,2.426459255332652
-1.9688557055486184,-5.135873525956268,0.8763782269124234,-7.850844828688973,19.80857551300821,3.711281795761438
-2.0202144408081812,-4.937787770826186,0.7978697786255337,-7.813732010731359,20.94553883639778,5.09264503142493
-2.069592318516443,-4.7283323824622085,0.7197324585182201,-7.762805560417109,22.072612115570475,6.543373740467859
-2.116875642341065,-4.5076062613065035,0.642104402914049,-7.697371823012431,23.159897324610213,8.030391997265111
-2.16195170495413,-4.276007288060401,0.5651306846839247,-7.61706790303978,24.175571562227297,9.51624891195232
-2.204711777834734,-4.034251572438128,0.4889600056535269,-7.5219054139202575,25.087910448655183,10.961177097171747
-2.2450542935591153,-3.7833724679515766,0.41374095151432433,-7.41229364294854,25.86749020163958,12.32550535531821
-2.2828880182386313,-3.5246975659351807,0.3396180150848389,-7.289038589395358,26.489320782583835,13.572172009175233
-2.318134993897983,-3.259804358109342,0.26672762919088533,-7.153316869303605,26.934651799602086,14.669050506454836
-2.3507330374790767,-2.9904578401133213,0.19519446049784928,-7.006626364239057,27.192230747281066,15.590816459128542
-2.38063761588021,-2.7185355326405105,0.1251281968554587,-6.850718199647772,27.25887374451606,16.320153655973744
-2.407822971206615,-2.4459467951953497,0.05662101485898098,-6.687516663088035,27.13931441083868,16.848200503700973
-2.4322824391585685,-2.174553651086963,-0.010254151771899367,-6.519034658051025,26.845402688093568,17.174253425715303
-2.454027975669438,-1.9060996242060273,-0.07544449835240961,-6.3472921237938715,26.394809338249644,17.304844410035894
-2.4730889719114986,-1.6421515308235308,-0.1389174195903483,-6.174243679693513,25.80943861188433,17.252377090865547
-2.489510487219734,-1.3840571447046874,-0.20065985638728345,-6.001719908784858,25.11375751092087,17.033531459980992
-2.503351058666781,-1.1329195695954788,-0.26067705547513204,-5.831384594185048,24.333221766572567,16.667634746507854
-2.514680254362736,-0.8895873519297531,-0.3189909014169825,-5.664708246719969,23.492929010888947,16.175156253762715
-2.5235761278820337,-0.6546580618208637,-0.3756379838841822,-5.502956684182342,22.616572918437825,15.576431078928831
-2.5301227085002425,-0.42849233263648545,-0.4306675507260056,-5.347192373393054,21.725720082904893,14.890664422431675
-2.5344076318266073,-0.21123513180743653,-0.48413947445993616,-5.198285729168737,20.83939129824206,14.135223472810797
-2.536519983144682,-0.002841218825015923,-0.5361223317516235,-5.05693349444063,19.97390332349221,13.32519192105531
-2.536548395332932,0.19689781440990617,-0.5866916666960298,-4.923681575230076,19.14291517322641,12.473143478396729
-2.5345794171888327,0.38832696614217027,-0.6359284824483306,-4.798950140446109,18.35762152822894,11.589083344876354
-2.530696147527411,0.5719031814244597,-0.6839179838527917,-4.683059306997345,17.62704139823831,10.680507316922421
-2.5249771157131664,0.7481735954068428,-0.7307485769227651,-4.576254233828121,16.958359374442132,9.752533989311287
-2.5174953797590978,0.9177571891512641,-0.7765111192610463,-4.478728893935008,16.357287120051733,8.80807370044139
-2.508317807867585,1.0813300603517815,-0.8212984082003965,-4.390648156930594,15.828422449709556,7.848006662942094
-2.4975045072640674,1.239614284848877,-0.8652048897697024,-4.312168090301173,15.375591461483548,6.871351055673166
-2.4851083644155785,1.3933701994637124,-0.9083265706727142,-4.243454579744442,15.002165243211875,5.875409323668331
-2.471174662420941,1.5433918518958312,-0.9507611164701586,-4.184700486507758,14.711346492205344,4.855887660921733
-2.4557407439019827,1.6905053168178845,-0.9926081213352361,-4.136141609898541,14.506422834843509,3.806990204598675
-2.438835690733804,1.8355695451663196,-1.0339695374342215,-4.098071707852554,14.390982426313798,2.721496871940175
-2.420479995282141,1.9794793694294577,-1.074950254512747,-4.070856739133153,14.36908288331445,1.590843638441308
-2.4006852015878466,2.1231701982626023,-1.1156588219040784,-4.05494830274874,14.445355412331246,0.40523890239529986
-2.3794534996052206,2.267623752385915,-1.156208304931566,-4.050895913724787,14.625009708623653,-0.8461266352758681
-2.3567772620813616,2.4138738494721514,-1.1967172640688137,-4.059357180077546,14.913677667407804,-2.174680156705436
-2.33263852358664,2.5630106261462293,-1.2373108358695892,-4.081103981644601,15.316988425344217,-3.5917165288085107
-2.3070084173251777,2.7161805103996715,-1.2781218756860353,-4.117021146932686,15.83969333769297,-5.107033282230982
-2.279846612221181,2.874577443776601,-1.3192920871553622,-4.168091479754995,16.48404244727555,-6.7265213671438895
-2.2511008377834147,3.0394178682493567,-1.360973001952912,-4.235356693426434,17.2469363458978,-8.448031490413294
-2.2207066591009212,3.2118872317083347,-1.4033265688871763,-4.319837008330567,18.11512841959698,-10.254483896389461
-2.1885877867838377,3.3930385159043044,-1.446524938970482,-4.422381847294462,19.057460121714836,-12.102775132248938
-2.1546574016247946,3.5836131171214527,-1.4907487574434266,-4.543409598616951,20.012927329040583,-13.906771168718723
-2.11882127045358,3.7837423904118586,-1.536182853429596,-4.682477310304138,20.873765679792008,-15.51321955296385
-2.0809838465494614,3.992480047209779,-1.5830076265326374,-4.837609505833777,21.464828783558858,-16.672346032331568
-2.041059046077364,4.207128335045367,-1.6313837215909752,-5.004332966157093,21.52638849163057,-17.01315149384886
-1.9989877627269101,4.422392219961673,-1.6814270512525462,-5.1744644810955815,20.71928889496071,-16.050082546007125
-1.9547638405272934,4.6295851089112805,-1.733171696063502,-5.334965306555652,18.68645525190538,-13.269081186434098
-1.9084679894381806,4.816449661430334,-1.7865213491290586,-5.467656118419994,15.203996939753935,-8.34017220573294
-1.8603034928238773,4.968489630827873,-1.8411979103132585,-5.551057840477323,10.398575639213425,-1.4243831400535625
-1.8106185965155985,5.072475387220008,-1.8967084887180317,-5.565301671877859,4.885895291363101,6.628676577077253
-1.7598938426433985,5.121334340133639,-1.9523615054368102,-5.499014906107086,-0.37156448415527765,14.476862055223235
-1.7086804992420621,5.1176186952920855,-2.007351654497881,-5.354246285554853,-4.48612740743279,20.87483712431579
-1.6575043122891413,5.072757421217758,-2.0608941173534294,-5.1454979143116955,-7.0266179328611384,25.210178597083313
-1.6067767380769638,5.002491241889146,-2.1123490964965463,-4.8933961283408625,-8.067931280371408,27.576098686435476
-1.5567518256580724,4.921811929085432,-2.161283057779955,-4.617635141476508,-7.971908208821841,28.46808321740393
-1.507533706367218,4.842092846997213,-2.2074594091947204,-4.332954309302469,-7.14687137122834,28.4495021396666
-1.459112777897246,4.7706241332849295,-2.250788952287745,-4.048459287905803,-5.919936523393999,27.973577391346137
-1.4114065365643966,4.711424768050989,-2.291273545166803,-3.768723513992341,-4.510069240527012,27.345282762190298
-1.3642922888838867,4.666324075645719,-2.3289607803067267,-3.4952706863704384,-3.0473955544657594,26.74750123201079
-1.3176290481274295,4.635850120101062,-2.3639134871704313,-3.2277956740503306,-1.6018487371676469,26.280165754864765
-1.271270546926419,4.619831632729386,-2.3961914439109346,-2.964994016501683,-0.2067690003711089,25.99241094393049
-1.225072230599125,4.6177639427256745,-2.4258413840759516,-2.705069907062378,1.1250501776527022,25.904244134669927
-1.1788945911718682,4.629014444502202,-2.4528920831465753,-2.446027465715679,2.391404008202729,26.01974755313537
-1.1326044467268461,4.652928484584229,-2.477352357803732,-2.1858299901843252,3.5947851477415496,26.334592968964184
-1.0860751618810038,4.688876336061645,-2.4992106577055755,-1.9224840604946833,4.738978401392873,26.840042642468124
-1.0391863985203873,4.736266120075573,-2.5184354983105224,-1.654083634070002,5.8271009843728026,27.52486890973176
-0.9918237373196316,4.794537129919301,-2.534976334651222,-1.3788349449726844,6.860457542662544,28.376068524954604
-0.9438783660204386,4.863141705345926,-2.548764684100949,-1.0950742597231384,7.837847108879681,29.378891689985316
-0.8952469489669793,4.941520176434723,-2.5597154266981805,-0.8012853428232853,8.755124503060635,30.516495604811816
-0.8458317472026321,5.029071421465329,-2.5677282801264134,-0.4961203867751672,9.604918898015748,31.76941605152743
-0.7955410329879788,5.125120610445487,-2.572689483994165,-0.1784262262598929,10.376473277811096,33.114990764829436
-0.744289826883524,5.228885343223598,-2.574473746256764,0.15272368138840148,11.055605860132658,34.52684086958711
-0.692000973451288,5.339441401824924,-2.5729465094428803,0.4979920900842726,11.62481647143286,35.97450553693971
-0.6386065594330387,5.455689566539253,-2.5679665885420375,0.8577371454536697,12.063570957370658,37.42331901173601
-0.5840496637676461,5.57632527611296,-2.559389217087501,1.2319703355710299,12.348795938825315,38.83460976403095
-0.5282864110065165,5.699813235501213,-2.5470695137317905,1.6203164332113393,12.455604531415961,40.16628222082355
-0.4712882786515044,5.824369280815373,-2.5308663493996773,2.021979255419575,12.358251437503517,41.373808352799784
-0.4130445858433507,5.9479517951904075,-2.5106465568454817,2.4357173389475726,12.031285266319575,42.41160900447138
-0.3535650678914466,6.068264647853603,-2.486289383456006,2.859833428992286,11.450831877421438,43.234747825028826
-0.29288242141291054,6.182772966627817,-2.457691049166083,3.2921809072425745,10.595912530620653,43.80080383136444
-0.23105469174663237,6.2887320919340235,-2.424769240093657,3.730188945556219,9.449683752685472,44.0717459170908
-0.16816737082729213,6.383228929460878,-2.3874673506380946,4.170906404727127,8.000490250480642,44.015618673900136
-0.10433508153268335,6.463233831965685,-2.345758286590823,4.611062591466128,6.242651906886854,43.60787424662744
