th1 (rad),w1 (rad/s),th2 (rad),w2 (rad/s),a1 (rad/s^2),a2 (rad/s^2)
0.024440672754363988,0.9657549899407538,5.018979135610198,-2.6678737803425716,-5.287854535804642,11.71106095780869
0.03409822265377153,0.9128764445827074,4.992300397806772,-2.5507631707644847,-4.878270657157926,11.413979594358446
0.0432269870995986,0.8640937380111282,4.966792766099127,-2.4366233748209,-4.495418433282562,11.156931187253502
0.051867924479709886,0.8191395536783026,4.942426532350918,-2.325054062948365,-4.137264798172452,10.935455558850679
0.06005932001649291,0.7777669056965781,4.919175991721435,-2.215699507359858,-3.802019477413306,10.745500662650985
0.0678369890734587,0.739746710922445,4.897018996647836,-2.108244500733348,-3.488129997291105,10.583402471496955
0.07523445618268315,0.704865410949534,4.875936551640502,-2.0024104760183787,-3.1942669400559085,10.445855786204243
0.0822831102921785,0.6729227415489749,4.8559124468803185,-1.8979519181563362,-2.9193043798276452,10.329881776587237
0.08901233770766824,0.6437296977506984,4.836932927698755,-1.7946531003904638,-2.6622984635281046,10.232795554835278
0.09544963468517523,0.6171067131154174,4.818986396694851,-1.692325144842111,-2.4224658758661253,10.152175552296926
0.1016207018163294,0.5928820543567561,4.8020631452464295,-1.5908033893191418,-2.1991631695004776,10.085835552052385
0.10754952235989697,0.5708904226617514,4.786155111353238,-1.489945033798618,-1.9918674766284712,10.031799688680609
0.11325842658651449,0.5509717478954667,4.7712556610152514,-1.3896270369118118,-1.800158836667403,9.988280418434613
0.11876814406546915,0.5329701595287927,4.757359390646133,-1.2897442327274657,-1.6237042073612495,9.953659297317753
0.12409784566075707,0.5167331174551801,4.744461948318858,-1.1902076397542882,-1.4622431301099097,9.926470325061779
0.1292651768353089,0.502110686154081,4.732559871921316,-1.0909429365036705,-1.315574967279874,9.905385584766663
0.1342862836968497,0.4889549364812823,4.721650442556279,-0.9918890806560039,-1.1835476026077805,9.88920290928204
0.1391758330616625,0.4771194604552045,4.711731551749719,-0.8929970515631835,-1.0660474848975112,9.876835322906281
0.14394702766621456,0.4664589856062294,4.7028015812340875,-0.7942286983341207,-0.9629908934663053,9.867302032458786
0.14861161752227686,0.45682907667156636,4.6948592942507466,-0.6955556780095328,-0.8743163072286073,9.859720770292046
0.15317990828899253,0.4480859135992803,4.687903737470651,-0.5969584703066123,-0.7999777655582917,9.853301320418199
0.15766076742498533,0.4400861359436974,4.681934152767585,-0.4984254571024303,-0.7399391168005468,9.84734008594842
0.16206162878442232,0.4326867447756919,4.676949898196561,-0.3999520562429461,-0.6941690588024635,9.841215580573008
0.16638849623217924,0.4257450541876673,4.672950377634132,-0.301539900437216,-0.6626368847656864,9.834384748411127
0.17064594677405592,0.4191186853400104,4.66993497862976,-0.20319605295310472,-0.6453088569830466,9.826380035087029
0.17483713362745604,0.41266559677017994,4.667903018100229,-0.10493225260223443,-0.6421451406087026,9.816807148377828
0.17896378959515782,0.4062441453640929,4.666853695574207,-0.006764181118456156,-0.6530972395840811,9.80534345937101
0.18302623104879875,0.3997131729682521,4.666786053763023,0.09128925347525393,-0.6781058872644966,9.79173700498571
0.18702336277848128,0.39293211409560713,4.667698946297775,0.18920662352511103,-0.7170993552117951,9.775806060221024
0.19095268391943734,0.38576112054348916,4.669591012533026,0.2869646841273213,-0.7699921550517672,9.757439253911414
0.19481029512487225,0.37806119899297147,4.672460659374299,0.38453907666643544,-0.8366841202149471,9.736596205449748
0.19859090711480196,0.369694357790822,4.676306050140964,0.48190503872093293,-0.9170598667136715,9.713308662279369
0.20228785069271019,0.3605237591236853,4.681125100528173,0.5790381253437267,-1.0109886447404417,9.687682119400002
0.20589308828394703,0.3504138726762809,4.68691548178161,0.6759149465377267,-1.1183246056436316,9.659897903165199
0.20939722701070984,0.33923062661984454,4.693674631246988,0.7725139255693787,-1.2389075215543712,9.630215702805613
0.21278953327690828,0.3268415514043008,4.7013997705026815,0.8688160825974348,-1.3725640073846535,9.598976534971436
0.21605794879095128,0.3131159113304543,4.710087931328656,0.9648058479471492,-1.5191093068625448,9.566606129767507
0.21918910790425583,0.29792481826182887,4.719735989808127,1.0604719092448243,-1.6783497154898686,9.533618731906216
0.22216835608687413,0.2811413211069302,4.730340708900576,1.1558080965638864,-1.8500857235970245,9.500621318396266
0.22497976929794344,0.26264046387095996,4.741898789866214,1.250814309747849,-2.0341159718651305,9.468318245291501
0.22760617393665306,0.24229930415230866,4.754406932963692,1.345497492200764,-2.230242119683386,9.437516351097187
0.23002916697817613,0.2199968829554748,4.7678619078857,1.439872655711736,-2.4382747334787807,9.409130564079351
0.23222913580773089,0.19561413562068697,4.782260634442817,1.5339639613525295,-2.658040307752039,9.384190085477202
0.23418527716393775,0.1690337325431666,4.797600274056343,1.6278058622073015,-2.8893895361127724,9.36384525089043
0.23587561448936942,0.14013983718203887,4.813878332678416,1.7214443147162057,-3.1322069533280326,9.349375208141085
0.2372770128611898,0.10881776764875856,4.831092775825578,1.8149380667976165,-3.386422072493006,9.342196591682974
0.23836519053767738,0.0749535469238285,4.849242156493554,1.9083600327144463,-3.6520221440364216,9.343873420779419
0.23911472600691566,0.03843332548346428,4.868325756820699,2.0017987669222403,-3.9290666652905633,9.356128500288962
0.2394990592617503,-0.0008573411694413544,4.888343744489921,2.09536005192513,-4.217703770213158,9.380856657280948
0.2394904858500559,-0.04303437887157294,4.909297345009173,2.1891686184979395,-4.5181886270996205,9.420140200898238
0.23906014206134016,-0.08821626514256914,4.931189031194152,2.283370020506922,-4.830903964840829,9.476267041991882
0.23817797940991448,-0.13652530479097744,4.954022731399221,2.378132690926841,-5.156382830096183,9.551751945073589
0.2368127263620047,-0.18808913309193925,4.9778040583084895,2.473650210377577,-5.495333639369788,9.649361395114742
0.2349318350310853,-0.24304246948563712,5.002540560412266,2.5701438243287242,-5.848667515842216,9.772142524765473
0.23250141033622893,-0.3015291446440593,5.028241998655553,2.667865249576379,-6.217527765418447,9.923456429994708
0.22948611888978834,-0.36370442229824373,5.054920651151317,2.7670998138763263,-6.603321108520486,10.107015949711261
0.2258490746668059,-0.4297376333834486,5.08259164929008,2.8681699733734387,-7.007749877317637,10.326927510228508
0.22155169833297142,-0.499815132156625,5.111273349023815,2.9714392484757237,-7.432843706044767,10.587735797670343
0.21655354701140517,-0.5741435692170727,5.140987741508572,3.077316606452427,-7.880988114737079,10.894468593596013
0.21081211131923444,-0.6529534503644434,5.171760907573096,3.1862612923883873,-8.35494554204941,11.252676725217281
0.20428257681559,-0.7365029057849375,5.203623520496979,3.29878805964056,-8.857861385571068,11.668460151401803
0.19691754775774062,-0.8250815196406481,5.236611401093385,3.415472661154578,-9.393242762250713,12.14846477856238
0.18866673256133415,-0.9190139472631552,5.270766127704931,3.536957308940202,-9.964889897074057,12.699824149644389
0.1794765930887026,-1.0186628462338958,5.306135700794333,3.663955550436646,-10.576747524043547,13.330003236880044
0.16928996462636364,-1.1244303214743312,5.342775256298699,3.7972555828054464,-11.232623677348677,14.046474345714907
0.15804566141162033,-1.236756558247818,5.380747812126754,3.9377203262625953,-11.935691516856114,14.856111647447516
0.14567809582914215,-1.3561134734163791,5.42012501538938,4.086281442737071,-12.687640086167198,15.764122214691993
0.13211696109497836,-1.4829898742780512,5.460987829816751,4.243922664883991,-13.487263486984027,16.772225258480567
0.11728706235219785,-1.6178625091478915,5.503427056465591,4.411644917468797,-14.32816470066227,17.87563270712329
0.10110843726071894,-1.7611441561545143,5.547543505640279,4.59040124454003,-15.19509323179382,19.058162261954948
0.08349699569917379,-1.9130950884724525,5.5934475180856795,4.7809828671595795,-16.05824629511447,20.284541972550215
0.06436604481444927,-2.073677551423597,5.641257346757276,4.983828286885082,-16.86471136670795,21.488736286714925
0.0436292693002133,-2.2423246650906767,5.691095629626126,5.198715649752231,-17.52633440973633,22.557238418479283
0.02120602264930653,-2.41758800918804,5.743082786123648,5.424288033937024,-17.904212707910464,23.30749038648933
-0.0029698574425738693,-2.5966301362671445,5.797325666463019,5.657362937801917,-17.792852712267635,23.465463843441167
-0.028936158805245315,-2.7745586633898207,5.853899295841038,5.892017576236329,-16.91346579493184,22.655292391028407
-0.05668174543914352,-2.943693321339139,5.9128194716034015,6.118570500146613,-14.93662810896274,20.428760730105704
-0.0861186786525349,-3.093059602428766,5.974005176604868,6.32285810744767,-11.56414144691543,16.375939034790758
-0.11704927467682257,-3.2087010168979204,6.037233757679345,6.486617497795578,-6.688063586195906,10.342149298818127
-0.14913628484580177,-3.2755816527598793,6.102099932657301,6.590038990783759,-0.5810435288360798,2.6884379821253956
-0.18189210137340056,-3.28139208804824,6.168000322565138,6.616923370605013,6.029514752950133,-5.607524708701453
-0.21470602225388297,-3.2210969405187386,6.234169556271189,6.5608481235179985,12.158961041490453,-13.223537495764218
-0.24691699165907036,-3.099507330103834,6.2997780375063686,6.428612748560356,16.97622460533111,-19.055164356513654
-0.2779120649601087,-2.929745084050523,6.364064164991972,6.23806110499522,20.123529880968682,-22.64785194826228
-0.3072095158006139,-2.728509785240836,6.426444776041924,6.011582585512597,21.721561789205623,-24.195189666123742
-0.33449461365302224,-2.51129416734878,6.48656060189705,5.76963068885136,22.149746669717146,-24.232530887390602
-0.35960755532651006,-2.2897967006516087,6.544256908785564,5.527305379977454,21.82252333943856,-23.331165705828784
-0.38250552233302615,-2.071571467257223,6.599529962585338,5.293993722919166,21.07227197103949,-21.942114147876797
-0.40322123700559837,-1.8608487475468283,6.6524698998145295,5.074572581440398,20.124579825623833,-20.366563503844095
-0.42182972448106665,-1.65960294929059,6.703215625628934,4.8709069464019565,19.116425356985093,-18.78370043654231
-0.43842575397397254,-1.468438695720739,6.751924695092954,4.683069942036534,18.123556828154335,-17.289699738308435
-0.45311014093117996,-1.2872031274391955,6.798755394513319,4.5101729446534495,17.18346019851885,-15.929712533531553
-0.4659821722055719,-1.115368525454007,6.843857123959853,4.350875819318134,16.311249614060216,-14.719653899421148
-0.477135857460112,-0.9522560293134049,6.887365882153034,4.2036792803239225,15.509670503014412,-13.659709296075485
-0.48665841775324603,-0.7971593242832608,6.929402674956274,4.067082187363168,14.7750624810825,-12.742242462200736
-0.4946300109960786,-0.6494086994724357,6.970073496829905,3.9396597627411603,14.10078507483075,-11.956232671335773
-0.5011240979908029,-0.5084008487241283,7.009470094457317,3.8200974360278024,13.47912462075751,-11.289662161143006
-0.5062081064780443,-0.3736096025165532,7.0476710688175945,3.7072008144163724,12.9023180145448,-10.730730424223577
-0.5099442025032098,-0.24458642237110517,7.084743076961758,3.5998935101741365,12.363073557132797,-10.268414148847137
-0.5123900667269209,-0.1209556867997772,7.120742012063499,3.497209368685665,11.854810896734316,-9.89267236893956
-0.5135996235949186,-0.0024075778324340324,7.155714105750356,3.3982826449962693,11.3717476534575,-9.59446693326895
-0.5136236993732429,0.11130989870214097,7.189696932200318,3.30233797566358,10.90890511514516,-9.365693493550474
-0.5125106003862215,0.2203989498535926,7.222720311956954,3.208681040728075,10.462073495691701,-9.199075377024117
-0.5103066108876856,0.3250196848105096,7.254807122364235,3.1166902869578337,10.027758962446606,-9.088048418915287
-0.5070564140395805,0.42529727443497567,7.285974025233813,3.0258098027686806,9.603124241111663,-9.026651160817885
-0.5028034412952307,0.5213285168460923,7.3162321232615,2.935543291160502,9.185928758754025,-9.00942720046125
-0.49759015612676977,0.6131878044336325,7.345587556173105,2.8454490191558897,8.774471056727478,-9.03134228790078
-0.4914582780824334,0.7009325150009074,7.374042046364664,2.7551355962768818,8.367534478918387,-9.087716509056584
-0.48444895293242435,0.7846078597900912,7.401593402327433,2.664258431186316,7.964336270723153,-9.174170729997016
-0.4766028743345234,0.8642512224973227,7.4282359866392955,2.572516723886346,7.564479835784968,-9.28658591277516
-0.46796036210955017,0.9398960208551723,7.453961153878159,2.479650864758594,7.167909772906372,-9.421073684379719
-0.4585614019009984,1.011575118584236,7.478757662525744,2.385440127914797,6.774869327960762,-9.573956492467804
-0.4484456507151561,1.0793238118638437,7.502612063804892,2.289700562990119,6.38585997158768,-9.741755730777616
-0.43765241259651766,1.1431824115797204,7.5255090694347935,2.192283005682343,6.001602910968272,-9.921186317262269
-0.4262205884807205,1.2031984406894032,7.547431899491617,2.09307114250972,5.623002439821437,-10.109156333822314
-0.41418860407382646,1.2594284650876175,7.568362610916714,1.991979579171497,5.251111113066734,-10.30277047414915
-0.40159431942295026,1.3119395762182848,7.588282406708429,1.8889518744300053,4.887096796392598,-10.499336187679921
-0.3884749236607674,1.3608105441822107,7.607171925452729,1.783958512553206,4.53221168542513,-10.696371548126857
-0.3748668182189453,1.406132661036462,7.625011510578261,1.6769947970719374,4.18776341588731,-10.89161401122227
-0.36080549160858066,1.448010295195335,7.641781458548981,1.5680786569597147,3.8550883978702966,-11.083029355933208
-0.3463253886566273,1.486561179174038,7.657462245118578,1.4572483634003826,3.5355275073378416,-11.268820224910986
-0.3314597768648869,1.5219164542474164,7.672034728752582,1.3445601611512727,3.2304042593759594,-11.447433792499096
-0.31624061232241274,1.554220496841176,7.685480330364094,1.2300858232262817,2.9410055731681233,-11.617568192040267
-0.300698407354001,1.5836305525728571,7.697781188596357,1.113910141305879,2.668565220292479,-11.778177428908167
-0.28486210182827243,1.610316204775782,7.708920290009416,0.9961283670167973,2.4142500271275145,-11.928474592520084
-0.2687589397805146,1.6344587050470571,7.7188815736795835,0.8768436210915964,2.1791488797557106,-12.06793326071715
-0.25241435273004403,1.6562501938446144,7.7276500098905,0.756164288484425,1.964264556167141,-12.196287064527871
-0.2358518507915979,1.6758928394062858,7.735211652775344,0.6342014178391463,1.770508385902786,-12.313527451466538
-0.21909292239753503,1.6935979232653136,7.7415536669537355,0.511066143324481,1.5986977115473198,-12.419899751764333
-0.2021569431648819,1.7095849003807868,7.746664328386981,0.3868671458068376,1.4495560997106192,-12.515897714331599
-0.18506109416107402,1.724080461377893,7.750532999845049,0.26170816866352165,1.323716221447503,-12.602256737189197
-0.16782028954729508,1.7373176235923682,7.753150081531684,0.13568560129162968,1.2217252936667033,-12.679946069280563
-0.1504471133113714,1.7495348765290353,7.7545069375446,0.00888614059882406,1.1440529441797678,-12.750160304994294
-0.13295176454608104,1.760975405970833,7.7545957989505885,-0.11861546245111887,1.0911013336586497,-12.814310526730107
-0.11534201048637271,1.7718864193074193,7.753409644326077,-0.24675856771841995,1.0632173374618625,-12.874015471065997
-0.09762314629329852,1.782518592682038,7.750942058648893,-0.3754987224290799,1.0607065577599575,-12.931093096322535
-0.07979796036647814,1.7931256582596375,7.7471870714246025,-0.5048096533923052,1.0838488989980697,-12.987552908182062
-0.06186670378388176,1.8039641472496182,7.742138974890679,-0.6346851824741259,1.1329153928132134,-13.045589348305306
-0.04382706231138558,1.8152933011777503,7.735792123065938,-0.765141075957179,1.2081858944886794,-13.10757645852436
-0.025674129299608075,1.8273751601226371,7.728140712306366,-0.8962168405424226,1.3099671800940822,-13.176063885558639
-0.007400377698381703,1.840474831923578,7.7191785439009415,-1.027977479398009,1.4386108338208603,-13.253774066566168
0.011004370620854076,1.8548609402617866,7.708898769106962,-1.1605152200636706,1.5945301021628142,-13.343600101509287
0.029552980023471943,1.8708062412834148,7.697293616906325,-1.2939512210787634,1.7782145662963,-13.448603324894146
0.04826104243630609,1.8885883869463778,7.6843541046955375,-1.4284372543277049,1.9902409884381513,-13.57200886237287
0.06714692630576988,1.9084907968307592,7.67006973215226,-1.5641573429514335,2.231277936803857,-13.717196384720152
0.08623183427407746,1.9308035761987978,7.654428158722746,-1.701329306798635,2.502080661317073,-13.887681684503226
0.10553987003606544,1.9558243828119686,7.63741486565476,-1.8402061236436673,2.80347099338563,-14.087082348369599
0.12509811386418512,1.9838590927458248,7.619012804418324,-1.9810769471273633,3.1362945066883117,-14.319057308746169
0.14493670479164336,2.015222037812708,7.59920203494705,-2.124267520214825,3.5013434080463854,-14.587204888775121
0.16508892516977045,2.050235471893172,7.577959359744901,-2.2701395691025765,3.8992280644128123,-14.894896319724683
0.18559127988870217,2.0892277525373,7.555257964053876,-2.4190885322998232,4.330171928201316,-15.245010511386115
0.20648355741407518,2.1325294718193133,7.531067078730878,-2.5715386374136844,4.793692852586126,-15.639519618163108
0.2278088521322683,2.1804664003451744,7.505351692356741,-2.7279338335953156,5.2881171128178295,-16.078851844840692
0.24961351613572005,2.233347571473353,7.478072354020788,-2.8887223520437226,5.809849582141921,-16.560926100693504
0.27194699185045357,2.291446067294772,7.449185130500351,-3.0543316130506577,6.3522938628348,-17.079711563950482
0.2948614525234013,2.35496900592312,7.4186418143698445,-3.2251287286901626,6.90428164447782,-17.623116336841186
0.3184111425826325,2.424011822367898,7.386390527082943,-3.4013598920585744,7.447839573935598,-18.16996443789615
0.3426512608063115,2.498490218107254,7.352376928162357,-3.5830595364375357,7.955117661347885,-18.685811007095843
0.367636162987384,2.578041394720733,7.316546332797982,-3.7699176465084943,8.384378745450377,-19.117444725117917
0.3934165769345913,2.6618851821752365,7.278847156332897,-3.9610920937596736,8.675209716338681,-19.386280562914802
0.4200354287563437,2.7486372793386233,7.2392362353953,-4.154954899388821,8.743743267073278,-19.381706880585316
0.4475218015497299,2.836074712009356,7.197686686401411,-4.348771968194675,8.479912088335247,-18.957151264988553
0.4758825486698235,2.9208738328927084,7.1541989667194645,-4.53834348084456,7.750720696390994,-17.934347814168838
0.5050912869987506,2.998381039856618,7.108815531911019,-4.717686958986248,6.415707021791323,-16.12432860355742
0.5350750973973168,3.0625381100745313,7.0616386623211564,-4.878930245021823,4.361089561954802,-13.37413070439732
0.5657004784980622,3.1061490056940793,7.0128493598709385,-5.012671552065796,1.5533240991146937,-9.640228137696202
0.596761968555003,3.1216822466852263,6.96272264435028,-5.109073833442758,-1.9028406976558563,-5.06803673434651
0.6279787910218553,3.1026538397086676,6.911631906015852,-5.159754200786223,-5.736933887587803,-0.028880869814992598
0.659005329418942,3.0452845008327896,6.860034364007991,-5.160043009484372,-9.554100220953533,4.938136856371846
0.6894581744272699,2.949743498623254,6.808433933913147,-5.110661640920654,-12.94701383468273,9.281225967789835
0.7189556094135024,2.8202733602764267,6.7573273175039406,-5.017849381242756,-15.622829065052464,12.610398506916926
0.7471583430162667,2.664045069625902,6.707148823691513,-4.891745396173587,-17.471422042696936,14.789395239886227
0.7737987937125257,2.4893308491989328,6.658231369729777,-4.743851443774725,-18.54808848880776,15.909040048873011
0.798692102204515,2.303849964310855,6.61079285529203,-4.584761043285995,-19.004339484472695,16.189816853849848
