th1 (rad),w1 (rad/s),th2 (rad),w2 (rad/s),a1 (rad/s^2),a2 (rad/s^2)
4.010425872134361,2.1753301115421406,4.0499649363985295,-2.531929380635666,7.673116375788471,-0.12683568307753865
4.032179173249783,2.2520612753000253,4.024645642592173,-2.533197737466441,7.578805223313707,0.03188678234952528
4.054699786002783,2.3278493275331624,3.9993136652175085,-2.532878869642946,7.433232235187535,0.2904097287194048
4.077978279278115,2.402181649885038,3.973984876521079,-2.529974772355752,7.239654199679473,0.6459964493969573
4.102000095776965,2.474578191881833,3.9486851287975213,-2.5235148078617824,7.005348638164898,1.090316485046644
4.126745877695783,2.5446316782634817,3.9234499807189036,-2.512611643011316,6.741109691972109,1.6101027168154272
4.152192194478418,2.6120427751832027,3.8983238642887903,-2.4965106158431616,6.460213010777261,2.188562727950938
4.17831262223025,2.6766449052909755,3.8733587581303586,-2.474624988563652,6.177031269840939,2.8072950801160914
4.205079071283159,2.738415217989385,3.848612508244722,-2.4465520377624914,5.905570995844583,3.4483335311763397
4.2324632234630535,2.7974709279478307,3.8241469878670973,-2.412068702450728,5.658206290991545,4.095932095670503
4.260437932742532,2.8540529908577463,3.80002630084259,-2.3711093814940227,5.44480830544133,4.737808590318109
4.288978462651109,2.9085010739121597,3.7763152070276496,-2.3237312955908416,5.272347727785251,5.365732951642779
4.3180634733902306,2.9612245511900124,3.7530778940717413,-2.270073966074414,5.144930040809192,5.975510823663154
4.3476757189021304,3.0126738515981044,3.730377154410997,-2.210318857837782,5.064145998158774,6.566521783134375
4.377802457418111,3.063315311579692,3.7082739658326194,-2.1446536400064384,5.029593959406753,7.141008900450456
4.408435610533909,3.1136112511737597,3.686827429432555,-2.073243551001934,5.03944622945048,7.7032958826764855
4.439571723045646,3.1640057134682644,3.6660949939225356,-1.9962105921751692,5.090968746568585,8.25905698787242
4.471211780180329,3.2149154009339505,3.6461328880007837,-1.913620022296445,5.180944249942109,8.814708432979579
4.5033609341896685,3.2667248434333716,3.6269966877778193,-1.8254729379666492,5.305982308490437,9.376943704554769
4.536028182624002,3.319784666518276,3.6087419583981526,-1.7317035009211015,5.462721372071693,9.952404605943817
4.569226029289185,3.374411880238993,3.5914249233889417,-1.6321794548616633,5.647939151318772,10.547463967120828
4.602970148091575,3.4308912717521807,3.575103128840325,-1.526704815190455,5.858591057202502,11.168090729040717
4.637279060809097,3.489477182324206,3.5598360806884206,-1.4150239079000477,6.091795265208449,11.819769301694471
4.672173832632339,3.5503951349762906,3.54568584160942,-1.2968262148831031,6.3447796767864215,12.507449308848951
4.707677783982102,3.6138429317441547,3.532717579460589,-1.1717517217946136,6.614802234761644,13.235506897623857
4.743816213299543,3.679990954091771,3.521000062242643,-1.0393966528183751,6.899052585622282,14.007703550328321
4.780616122840461,3.748981479947994,3.510606095714459,-0.8993196173150919,7.194540351791238,14.827132332458085
4.818105937639941,3.8209268834659063,3.5016128995413083,-0.7510482939905111,7.497973378019714,15.69614470007029
4.8563152064746,3.895906617246103,3.494102416601403,-0.5940868469898082,7.805628208071384,16.61625353406771
4.895274272647061,3.9739628993268172,3.488161548131505,-0.4279243116491311,8.113214643024618,17.58801020962698
4.935013901640329,4.055095045757064,3.4838823050150136,-0.2520442095528613,8.415736438860936,18.610855496031615
4.9755648520979,4.139252410145673,3.481361862919485,-0.06593565459254513,8.707350937186789,19.682946136947564
5.016957376199357,4.22632591951754,3.4807025063735595,0.13089380677693052,8.981231615268554,20.800961255582212
5.059220635394532,4.316138235670226,3.4820114444413286,0.33890341933275264,9.229439111242296,21.959895369274665
5.102382017751235,4.408432626782649,3.485400478634656,0.5585023730254993,9.44280812600804,23.15284780702192
5.1464663440190614,4.502860708042729,3.4909855023649112,0.7900308510957186,9.610859582938653,24.370821622476853
5.1914949510994886,4.598969303872116,3.4988858108758683,1.0337390673204871,9.721749343125627,25.602548485638394
5.23748464413821,4.696186797303373,3.509223201549073,1.289764552176871,9.76226636975171,26.834359191146667
5.284446512111243,4.7938094610008894,3.5221208470708416,1.5581081440883378,9.717894200626576,28.050121891260133
5.332384606721252,4.890988403007155,3.537701928511725,1.838609363000939,9.572949589533252,29.231271414854177
5.381294490751324,4.986717898902487,3.5560880221417346,2.1309220771494806,9.31081090787181,30.356952527922054
5.431161669740349,5.079826007981206,3.5773972429132295,2.434491602428701,8.914246146088264,31.40429728535323
5.481959929820161,5.168968469442088,3.6017421589375163,2.7485345752822337,8.36584607607939,32.348851514263636
5.533649614514582,5.252626930202882,3.6292275046903386,3.07202309042487,7.648562512126802,33.16515811646339
5.586175883816611,5.3291125553241505,3.6599477355945873,3.4036746715895037,6.7463450515595955,33.82749587883796
5.639467009369852,5.396576005839746,3.693984482310482,3.741949630377883,5.6448627613163715,34.3107628300627
5.69343276942825,5.45302463345291,3.731403978614261,4.0850572586785105,4.332290578603519,34.5914840817616
5.747963015762779,5.496347539238945,3.772254551201046,4.430972099496127,2.800134063612728,34.64891661038004
5.802926491155168,5.524348879875072,3.816564272196007,4.777461265599927,1.044060480652858,34.466218087595365
5.858169979953919,5.534789484681601,3.8643388848520064,5.1221234464758805,-0.9353016691442629,34.03164325752787
5.913517874800735,5.525436467990158,3.915560119316765,5.462439879051159,-3.131639678573028,33.33972808659193
5.968772239480637,5.494120071204428,3.970184518107277,5.795837159917078,-5.532364739509839,32.39241690674917
6.023713440192681,5.43879642380933,4.028142889706448,6.11976132898457,-8.118217778308544,31.200079145515485
6.078101404430774,5.357614246026245,4.0893405029962935,6.431762120439725,-10.863153093239756,29.782349508539628
6.131677546891037,5.248982715093847,4.153658124200691,6.729585615525121,-13.734590844930162,28.16871083342846
6.184167374041976,5.111636806644546,4.220953980355942,7.011272723859405,-16.694131982050514,26.39872779665589
6.235283742108421,4.944695486824041,4.291066707594536,7.2752600018259646,-19.698816076931667,24.521840634955762
6.284730696976661,4.747707326054725,4.363819307612795,7.5204784081755225,-22.702967763458602,22.596650309963124
6.332207770237209,4.520677648420139,4.4390240916945505,7.7464449112751534,-25.660619258975043,20.689676866105525
6.37741454672141,4.264071455830389,4.516488540807302,7.953341679936209,-28.52842020597535,18.873651568877417
6.420055261279714,3.9787872537706352,4.596021957606664,8.142078195624983,-31.26886544768962,17.2255022661525
6.4598431338174205,3.666098599293739,4.677442739562913,8.314333218286508,-33.85360634226215,15.824292963233312
6.496504119810358,3.3275625358711176,4.760586071745778,8.472576147918842,-36.266582789139385,14.749460396549482
6.529779745169069,2.9648967079797237,4.845311833224967,8.620070751884336,-38.50673560629994,14.07973121204478
6.559428712248867,2.5798293519167244,4.93151254074381,8.760868064004784,-40.590132344540464,13.893089252391382
6.585227005768034,2.1739280284713196,5.019121221383858,8.899798956528699,-42.55144445418186,14.268088055268926
6.606966286052747,1.748413583929501,5.108119210949145,9.042479837081387,-44.44480687360213,15.286663486284144
6.624450421892042,1.3039655151934797,5.198544009319958,9.195346471944228,-46.34409829954377,17.03836433228224
6.637490077043976,0.840524532198042,5.290497474039401,9.36573011526705,-48.34246967008463,19.625471520428228
6.6458953223659565,0.3570998354971957,5.384154775192071,9.561984830471333,-50.550253664684305,23.16750201072288
6.649466320720928,-0.14840270114964738,5.479774623496785,9.793659850578562,-53.088615667928785,27.801293441552676
6.647982293709432,-0.6792888578289352,5.57771122200257,10.071672784994089,-56.07208381967735,33.667330865834586
6.641189405131143,-1.2400096960257088,5.6784279498525105,10.408346093652435,-59.56330953341927,40.85982800485509
6.6287893081708855,-1.8356427913599016,5.782511410789035,10.816944373700986,-63.46161428893138,49.28813844866531
6.610432880257287,-2.470258934249215,5.890680854526045,11.309825758187639,-67.24323453446215,58.3359234637844
6.585730290914794,-3.1426912795938367,6.003779112107922,11.893184992825482,-69.41002302569177,66.11592598763117
6.554303378118856,-3.8367915098507543,6.122710962036177,12.554344252701794,-66.55073691440055,68.17203505326108
6.515935463020349,-4.502298878994759,6.248254404563195,13.236064603234405,-52.67438664784911,56.50225207838739
6.470912474230401,-5.029042745473251,6.380615050595539,13.801087124018279,-21.976689005235947,23.214487841778837
6.4206220467756685,-5.24880963552561,6.518625921835722,14.033232002436067,21.337448081891527,-26.21680685403211
6.368133950420412,-5.035435154706695,6.658958241860082,13.771063933895746,58.330137240211464,-66.74776450777829
6.317779598873345,-4.45213378230458,6.7966688811990394,13.103586288817963,74.91414112200742,-80.43436825606685
6.2732582610503,-3.702992371084506,6.927704744087219,12.299242606257295,75.56889585024858,-74.19007206226378
6.236228337339455,-2.94730341258202,7.050697170149792,11.557341885634656,70.03078038312462,-61.18185470636985
6.206755303213635,-2.2469956087507734,7.166270589006138,10.945523338570958,63.64406939066458,-48.23356804101489
6.184285347126127,-1.6105549148441276,7.2757258223918475,10.463187658160809,58.14453251646179,-37.32493216511292
6.168179797977686,-1.0291095896795097,7.380357698973455,10.08993833650968,53.808447249845656,-28.598655860817257
6.157888702080891,-0.49102511718105313,7.481257082338552,9.803951777901508,50.48005375508982,-21.724004585634965
6.152978450909081,0.013775420369845026,7.5792966001175675,9.586711732045158,47.92191146925069,-16.332400607699274
6.153116205112779,0.4929945350623519,7.675163717438019,9.423387725968166,45.91385200271873,-12.123849730782661
6.158046150463402,0.9521330550895393,7.7693975946977005,9.302149228660339,44.27265120796673,-8.875785552310116
6.167567481014298,1.3948595671692066,7.862419086984304,9.213391373137238,42.84994212675164,-6.428194855502625
6.18151607668599,1.823358988436723,7.954553000715677,9.149109424582212,41.526095048983464,-4.666229396744752
6.199749666570358,2.2386199389265578,8.046044094961498,9.102447130614765,40.204978300092826,-3.5054304741505944
6.222135865959624,2.640669721927486,8.137068566267645,9.06739282587326,38.81053174417627,-2.8801748344970917
6.248542563178899,3.0287750393692487,8.227742494526378,9.038591077528288,37.284906044118266,-2.734926106821394
6.278830313572591,3.4016240998104315,8.31812840530166,9.011241816460075,35.587614814984086,-3.0178281380444076
6.3128465545706955,3.757500247960272,8.408240823466262,8.981063535079631,33.69511334554885,-3.676329722006689
6.350421557050298,4.094451381415761,8.498051458817057,8.944300237859563,31.600282853618634,-4.65465204827261
6.391366070864456,4.410454209951947,8.587494461195654,8.897753717376837,29.311420409922437,-5.892942789853126
6.435470612963976,4.703568414051172,8.676471998369422,8.838824289478305,26.850498793791942,-7.3279091136885395
6.482506297104488,4.972073401989091,8.764860241264206,8.76554519834142,24.25065024280019,-8.894619725094142
6.532227031124378,5.214579904417093,8.85251569324762,8.676599001090478,21.55301384033355,-10.529060126215752
6.584372830168549,5.430110042820428,8.939281683258525,8.57130839982832,18.803232452845762,-12.170961335868133
6.638673930596753,5.618142367348886,9.024994767256809,8.449598786469638,16.047961816686406,-13.766431014479217
6.694855354270242,5.77862198551575,9.109490755121506,8.311934476324845,13.331748863542476,-15.270003141754168
6.752641574125399,5.911939474151175,9.192610099884755,8.159234444907304,10.694557956443102,-16.645868507086732
6.811760968866911,6.018885053715605,9.274202444333827,7.992775759836436,8.170099848405473,-17.868216909668774
6.871949819404067,6.10058605219966,9.354130201932191,7.814093590739748,5.784984138849932,-18.92077395832835
6.932955679926064,6.15843589358816,9.432271137839589,7.624885851156465,3.5586030571476885,-19.79572171655832
6.994540038861945,6.194021924159637,9.508519996351154,7.426928633990882,1.503581573335326,-20.492241251770388
7.056480258103542,6.20905773989299,9.582789282691063,7.222006221473178,-0.37339938609873136,-21.014911123448638
7.118570835502472,6.205323746032002,9.655009344905796,7.011857110238692,-2.0705905625782703,-21.372154541331124
7.180624072962792,6.1846178404062195,9.725127916008184,6.7981355648253805,-3.5901231733353542,-21.57486838220053
7.242470251366854,6.148716608672866,9.793109271656437,6.582386881003375,-4.937025178960634,-21.635306068640386
7.303957417453583,6.0993463568832595,9.85893314046647,6.366033820316971,-6.118367743003466,-21.566234558540014
7.364950881022416,6.038162679453225,9.92259347866964,6.15037147473157,-7.142568337889893,-21.380348515193088
7.4253325078169485,5.966736996074326,9.984097193416956,5.93656798957964,-8.018850709157615,-21.089902605066612
7.484999877777692,5.88654848898275,10.043462873312752,5.725668963528974,-8.756845612510912,-20.706513462103942
7.543865362667519,5.79898003285764,10.100719562948042,5.518603828907934,-9.366308195709031,-20.241082664953332
7.601855162996096,5.70531695090055,10.155905601237121,5.316193002258401,-9.856925844618598,-19.703797592181928
7.658908332505102,5.606747692454364,10.209067531259706,5.119155026336581,-10.23819206545489,-19.104175352241228
7.714975809429646,5.504365771799815,10.260259081523072,4.928113272814168,-10.519325753620317,-18.451124040721414
7.770019467147644,5.399172514263612,10.309540214251214,4.7436020324069545,-10.709219719936968,-17.753004034469992
7.82401119229028,5.292080317064243,10.356976234575283,4.566071992062255,-10.816406779992825,-17.01767918044853
7.8769319954609225,5.183916249264315,10.402636954495906,4.395895200257769,-10.849035595913,-16.252553302799054
7.928771157953566,5.075425893305185,10.446595906498484,4.233369667229779,-10.814851584678985,-15.464591440830924
7.979525416886617,4.9672773774583945,10.488929603170781,4.078723752821469,-10.721180534708209,-14.660327810808305
8.029198190661202,4.860065572111313,10.529716840698995,3.932120474713386,-10.574914164788506,-13.845863900316054
8.077798846382315,4.754316430463428,10.56903804544613,3.7936618357102256,-10.382497830623324,-13.026860623496384
8.12534201068695,4.650491452157195,10.606974663803232,3.663393229475262,-10.149921067801444,-12.20852834618074
8.171846925208522,4.548992241479181,10.643608596097984,3.5413079460134544,-9.882711788771964,-11.395618060133561
8.217336847623313,4.450165123591461,10.679021675558118,3.427351765412119,-9.585934845247001,-10.592416234629956
8.261838498859229,4.35430577513899,10.71329519321224,3.3214276030658194,-9.264195426879391,-9.802745048648967
8.305381556610618,4.261663820870196,10.746509469242898,3.22340015257933,-8.921647470720917,-9.029968914279795
8.34799819481932,4.172447346162987,10.778743470768692,3.133100463436532,-8.562006960840494,-8.277007510585971
8.38972266828095,4.086827276554582,10.810074475403058,3.0503303883306723,-8.188569740861833,-7.546354994790674
8.430590941046495,4.004941579145964,10.840577779286365,2.9748668383827654,-7.8042332647128925,-6.840104657021742
8.470640356837954,3.926899246498835,10.870326447670193,2.906465791812548,-7.411521580138827,-6.159978030617427
8.509909349302943,3.8527840306974466,10.899391105588318,2.8448660115063737,-7.012612773620778,-5.507357344875867
8.548437189609917,3.7826579029612386,10.927839765703382,2.789792438057615,-6.609368096234443,-4.883320187331266
8.58626376863953,3.7165642219988944,10.955737690083959,2.740959236184302,-6.203362026323659,-4.288675302095148
8.623429410859519,3.6545306017356576,10.983147282445803,2.6980724831633505,-5.795912594183342,-3.72399856428974
8.659974716876874,3.5965714757938243,11.010128007277435,2.660832497520453,-5.3881113842262005,-3.1896683157499854
8.695940431634813,3.5426903619515624,11.03673633225264,2.628935814362953,-4.980852730776933,-2.685899405537176
8.73136733525433,3.492881834643793,11.06302569039627,2.6020768203075813,-4.574861726089479,-2.212775436227425
8.766296153600768,3.447133217382898,11.089046458599345,2.579949065945307,-4.170720756921892,-1.7702788633677597
8.800767485774598,3.405426009813679,11.114845949258799,2.5622462773116292,-3.7688943745480383,-1.3583187245259176
8.834821745872734,3.3677370660681984,11.140468412031915,2.5486630900663703,-3.369752379707501,-0.9767558825838425
8.868499116533416,3.3340395422711233,11.165955042932579,2.5388955312405317,-2.9735910673967094,-0.625425754237801
8.901839511956126,3.3043036315971563,11.191343998244983,2.532641273698154,-2.580652626371185,-0.3041585596267587
8.934882548272098,3.2784971053334444,11.216670410981965,2.5295996881018863,-2.1911427253104523,-0.012797174269956768
8.967667519325433,3.2565856780803397,11.241966407862984,2.5294717163591867,-1.805246342833463,0.24878730765293214
9.000233376106236,3.238533214652005,11.267261125026575,2.531959589435716,-1.4231419132483962,0.4806821766195306
9.032618708252755,3.224301795519521,11.292580720920933,2.5367664112019113,-1.0450138654839898,0.682921754799564
9.064861726207951,3.2138516568646813,11.317948385032953,2.543595628749907,-0.6710636304695088,0.8554779728128961
9.097000242776598,3.207141020559986,11.343384341320451,2.552150408478036,-0.301519183605177,0.9982527785303918
9.129071652982198,3.2041258287239343,11.368905845405232,2.56213293626334,0.06335682493797123,1.1110723019502426
9.161112911269438,3.204759396973314,11.394527174767866,2.5732436592828423,0.42326031750917614,1.1936827255222506
9.19316050523917,3.2089920001484056,11.420259611360695,2.5851804865380648,0.7778404008141653,1.2457478367105224
9.225250425240654,3.2167704041565472,11.446111416226076,2.59763796490517,1.1266953533968358,1.2668482677083877
9.25741812928222,3.2280373576905155,11.472087795875128,2.610306447582254,1.4693700259506872,1.2564824547890219
9.289698502859125,3.242731057950022,11.49819086035095,2.622871272130144,1.8053547190468617,1.2140693755772238
9.322125813438625,3.2607846051404907,11.524419573072253,2.6350119658859166,2.134085630972188,1.1389531453142838
9.35473365949003,3.2821254614502124,11.550769692731112,2.6464014973390593,2.4549469965317634,1.030409571600846
9.387554914104532,3.30667493141553,11.577233707704503,2.656705593055068,2.7672750651466784,0.8876547795892359
9.420621663418688,3.334347682066997,11.603800763635054,2.6655821408509603,3.0703640924869617,0.7098560243297998
9.453965140239358,3.3650513229918664,11.630456585043563,2.6726807010942584,3.3634745431472894,0.4961448017768749
9.487615653469277,3.398686068423339,11.657183392054506,2.6776421491120272,3.6458437211790375,0.24563235223286134
9.52160251415351,3.4351445056351295,11.683959813545627,2.6800984726343557,3.916699059031249,-0.04257238330556623
9.555953959209862,3.474311496225442,11.71076079827197,2.6796727488013,4.17527430171304,-0.3693423458693651
9.590697074172116,3.5160642392425725,11.737557525759984,2.6759793253426065,4.420828819558587,-0.7355095477984798
9.625857716564541,3.5602725274381584,11.76431731901341,2.668624229864622,4.652670267397174,-1.1418400389633308
9.661460441838923,3.60679923011213,11.791003561312056,2.6572058294749885,4.870180777630171,-1.5890069549453747
9.697528434140043,3.6555010378884316,11.817575619606806,2.6413157599255346,5.072846827223347,-2.0775621227144137
9.734083444518928,3.706229506160665,11.843988777206063,2.6205401386983906,5.260292851907122,-2.6079069091232103
9.771145739580534,3.758832434679736,11.870194178593046,2.5944610696071586,5.43231859384191,-3.180263248567182
9.808734063927332,3.813155620618155,11.896138789289118,2.562658437121487,5.588940062132389,-3.7946460781950955
9.846865620133514,3.869045021239479,11.921765373660334,2.524711976339536,5.730433861725614,-4.450838738754175
