th1 (rad),w1 (rad/s),th2 (rad),w2 (rad/s),a1 (rad/s^2),a2 (rad/s^2)
0.22547306663804453,2.1337569761017043,2.167023951592292,2.4913677460721866,-1.6440882317179797,-12.948357177365677
0.2468106363990616,2.1173160937845243,2.191937629053014,2.3618841742985297,-2.1626083841359187,-12.932851211851295
0.2679837973369068,2.0956900099431652,2.2155564707959994,2.2325556621800167,-2.649054670708013,-12.8910916572991
0.28894069743633843,2.0691994632360853,2.2378820274177995,2.1036447456070255,-3.1033352181906015,-12.823994700789576
0.3096326920686993,2.038166111054179,2.25891847487387,1.9754047985991297,-3.5256208027861753,-12.73279797805431
0.3300143531792411,2.0029099030263176,2.2786725228598614,1.8480768188185865,-3.916319647628986,-12.619008619980036
0.3500434522095043,1.9637467065500276,2.297153291048047,1.721886732618786,-4.276049894064104,-12.484352846674566
0.36968091927500457,1.9209862076093867,2.314372158374235,1.5970432041520404,-4.605610770784123,-12.330727871517565
0.38889078135109845,1.8749300999015455,2.3303425904157558,1.4737359254368647,-4.905953344077063,-12.160156728855357
0.4076400823501139,1.8258705664607748,2.3450799496701245,1.3521343581483112,-5.178151593451965,-11.974746495753827
0.42589878801472164,1.7740890505262552,2.3586012932516076,1.2323868931907729,-5.423374423898415,-11.77665024411769
0.4436396785199842,1.719855306287271,2.3709251621835152,1.114620390749596,-5.6428591016583765,-11.568032936588773
0.4608382315828569,1.6634267152706872,2.382071366091011,0.9989400613837083,-5.837886486193853,-11.351041369027481
0.4774724987355638,1.6050478504087486,2.3920607667048484,0.8854296476934335,-6.009758327816642,-11.127778164559825
0.4935229772396513,1.5449502671305821,2.400915063181783,0.7741518660478353,-6.159776808518006,-10.900279739325219
0.5089724799109571,1.4833524990454021,2.408656581842261,0.6651490686545831,-6.28922642291211,-10.670498088206566
0.523806004901411,1.420460234816281,2.415308072528807,0.5584440877725174,-6.399358226721069,-10.440286179860456
0.5380106072495738,1.3564666525490703,2.420892513406532,0.45404122597391283,-6.491376421587921,-10.211386704055833
0.5515752737750645,1.291552888333191,2.4254329256662714,0.3519273589333545,-6.566427196804677,-9.985423880274405
0.5644908026583965,1.2258886163651443,2.428952199255605,0.25207312013061045,-6.625589710275087,-9.763898014127454
0.5767496888220479,1.1596327192623934,2.4314729304569114,0.15443413998933592,-6.669869062072602,-9.548182476591741
0.5883460160146718,1.0929340286416673,2.4330172718568046,0.05895231522341851,-6.70019109356884,-9.339522779346764
0.5992753563010885,1.025932117705979,2.4336067950090388,-0.034442912570049125,-6.717398832461389,-9.139037426416607
0.6095346774781483,0.9587581293813652,2.4332623658833383,-0.12583328683421519,-6.722250398207097,-8.94772023656606
0.6191222587719619,0.8915356253992942,2.432004033014996,-0.21531048919987578,-6.715418182401466,-8.766443851088912
0.6280376150259549,0.8243814435752795,2.429850928122997,-0.3029749277107649,-6.697489123550598,-8.595964166366457
0.6362814294617077,0.7574065523397735,2.4268211788458895,-0.3889345693744295,-6.668965904487628,-8.436925458529018
0.6438554949851055,0.6907168932948973,2.422931833152145,-0.4733038239597197,-6.6302689124629826,-8.289865997485812
0.6507626639180545,0.6244142041702674,2.418198794912548,-0.5562024839345778,-6.581738815828291,-8.155223978399754
0.6570068059597571,0.5585968160119845,2.412636770073202,-0.6377547237185753,-6.523639626465612,-8.03334362943621
0.6625927741198769,0.4933604197473284,2.4062592228360162,-0.7180881600129374,-6.456162133012829,-7.924481384543067
0.6675263783173502,0.42879879841720014,2.399078341235887,-0.7973329738583681,-6.379427605930599,-7.828812038530412
0.6718143663015221,0.36500452235789416,2.391105011497303,-0.8756210942436722,-6.2934916910739656,-7.746434828380557
0.6754644115251011,0.3020696054471545,2.3823488005548663,-0.9530854425274777,-6.198348423293704,-7.677379409248034
0.6784851075795726,0.24008612121421746,2.3728179461295915,-1.0298592366199582,-6.09393430540238,-7.62161171584463
0.6808859687917148,0.17914677816019367,2.3625193537633917,-1.1060753537784045,-5.980132410373296,-7.5790397197889305
0.6826774365733167,0.11934545405646071,2.3514586002256075,-1.1818657509762938,-5.856776475729381,-7.549519111054165
0.6838708911138813,0.0607776892991669,2.3396399427158445,-1.2573609420868355,-5.723654968602597,-7.532858946950064
0.684478668006873,0.0035411396131409326,2.3270663332949764,-1.332689531556336,-5.580515107815133,-7.528827325236478
0.6845140794030043,-0.0522640114650104,2.313739437979413,-1.4079778048087008,-5.427066835490033,-7.537157149119139
0.6839914392883543,-0.10653467981991072,2.299659659931326,-1.4833493762998922,-5.262986735097378,-7.5575520611527
0.6829260924901551,-0.1591645471708845,2.2848261661683273,-1.5589248969114191,-5.087921895455339,-7.589692630593336
0.6813344470184463,-0.21004376612543788,2.2692369171992133,-1.6348218232173526,-4.901493721020344,-7.633242884601151
0.6792340093571919,-0.2590587033356413,2.25288869896704,-1.711154252063364,-4.703301687825284,-7.687857277958306
0.6766434223238355,-0.30609172021389414,2.235777156446406,-1.7880328248429471,-4.492927041694227,-7.753188198670555
0.6735825051216965,-0.3510209906308364,2.2178968281979765,-1.8655647068296526,-4.269936430956414,-7.828894107938588
0.6700722952153881,-0.3937203549404006,2.19924118112968,-1.9438536479090385,-4.033885459943571,-7.914648412444826
0.6661350916659842,-0.4340592095398363,2.1798026446505894,-2.023000132033487,-3.7843221423192155,-8.010149164552224
0.6617944995705858,-0.4719024309630284,2.1595726433302547,-2.103101623679009,-3.5207902251253596,-8.115129681610517
0.6570754752609554,-0.507110333214282,2.1385416270934647,-2.184252920495114,-3.2428323458944392,-8.229370168736597
0.6520043719288127,-0.5395386566732264,2.1166990978885134,-2.26654662218248,-2.9499929770753996,-8.352710419615216
0.6466089853620804,-0.5690385864439804,2.0940336316666888,-2.3500737263786324,-2.64182110552941,-8.485063656210933
0.6409185994976406,-0.5954567974992745,2.0705328944029024,-2.4349243629407415,-2.317872591621233,-8.626431549531699
0.6349640315226479,-0.6186355234154868,2.046183650773495,-2.5211886784360584,-1.9777121548027028,-8.776920437849707
0.628777676288493,-0.6384126449635138,2.0209717639891345,-2.6089578828145554,-1.6209149438334594,-8.936758723229358
0.6223935498388579,-0.6546217944018484,1.9948821851609888,-2.698325470046849,-1.247067674509199,-9.106315377571141
0.6158473318948394,-0.6670924711469404,1.9678989304605203,-2.7893886238225605,-0.8557693624287993,-9.28611941924981
0.6091764071833701,-0.6756501647712284,1.9400050442222947,-2.8822498180150586,-0.44663175203622324,-9.476880121198215
0.6024199055356578,-0.6801164822915906,1.911182546042144,-2.977018619227041,-0.01927965882204391,-9.679507566584613
0.5956187407127419,-0.6803092788798111,1.8814123598498738,-3.073813694892887,0.42664838246659226,-9.895132957571324
0.5888156479239438,-0.6760427950551452,1.850674222900945,-3.1727650244686005,0.8914985081848198,-10.125127774018706
0.5820552199733924,-0.667127809973297,1.818946572656259,-3.274016302208788,1.3755979122964532,-10.371120424820209
0.5753839418736594,-0.6533718308503325,1.7862064096341712,-3.37772750645699,1.8792476206055277,-10.635008364240013
0.568850223565156,-0.6345793546442772,1.7524291345696013,-3.48407759009939,2.4027092203382217,-10.9189626547872
0.5625044300187132,-0.610552262440895,1.7175883586686074,-3.593267216647262,2.9461819165717014,-11.225420492985247
0.5563989073943042,-0.581090443275178,1.6816556865021348,-3.705521421577114,3.509764553832564,-11.55705904941628
0.5505880029615524,-0.5459927977368524,1.6446004722863636,-3.821092012071277,4.093394734435345,-11.91674078168302
0.5451280749841839,-0.505058850392499,1.6063895521656508,-3.940259419888107,4.696753549256625,-12.307415687043965
0.5400774864802589,-0.4580913148999327,1.5669869579667697,-4.063333576758547,5.319119244749771,-12.731959105344693
0.5354965733312596,-0.404900122452435,1.5263536221991842,-4.190653167811994,5.959145753347608,-13.192913751893892
0.5314475721067352,-0.34530866491895895,1.4844470905210643,-4.322582305330933,6.614531613697101,-13.692090469636714
0.5279944854575456,-0.27916334878198795,1.441221267467755,-4.4595032100273,7.2815304952569315,-14.229962341298023
0.5252028519697257,-0.20634804382941863,1.3966262353674819,-4.6018028334402805,7.954235549211957,-14.804759976897758
0.5231393715314315,-0.12680568833729905,1.3506082070330792,-4.749850433209258,8.623546166973561,-15.411141603026838
0.5218713146480586,-0.040570226667563436,1.3031097027009866,-4.9039618492395265,9.275699823070061,-16.03827261553514
0.5214656123813829,0.05218677156313718,1.2540700842085912,-5.064344575394878,9.890231534147027,-16.667115498931977
0.5219874800970142,0.15108908690460746,1.2034266384546424,-5.231015730384198,10.437229129349722,-17.26672855153701
0.5234983709660603,0.25546137819810466,1.1511164811508003,-5.403683015899568,10.873827190000178,-17.789458242206507
0.5260529847480414,0.36419965009810645,1.0970796509918046,-5.581577598321633,11.140108548221425,-18.165196842552675
0.5296949812490225,0.4756007355803207,1.0412638750085883,-5.76322956674716,11.15509513964484,-18.295550427274485
0.5344509886048256,0.5871516869767691,0.9836315793411167,-5.946185071019905,10.814481797297377,-18.050063320288753
0.5403225054745934,0.6952965049497429,0.9241697286309176,-6.126685704222793,9.993284549197158,-17.268707260972704
0.5472754705240908,0.7952293504417145,0.8629028715886897,-6.29937277683252,8.558288978625,-15.777213400605705
0.5552277640285079,0.8808122402279646,0.7999091438203645,-6.4571449108385774,6.395663983115115,-13.422578331856482
0.5640358864307876,0.9447688800591157,0.7353376947119787,-6.591370694157142,3.4553834567180943,-10.131173435480227
0.5734835752313787,0.9793227146262967,0.6694239877704073,-6.692682428511945,-0.19690589616988982,-5.977109442773689
0.5832768023776417,0.9773536556645979,0.6024971634852879,-6.752453522939682,-4.346011573918994,-1.2268264496472308
0.5930503389342876,0.9338935399254079,0.5349726282558911,-6.764721787436154,-8.644158717428263,3.683997348693036
0.6023892743335417,0.8474519527511253,0.4673254103815295,-6.727881813949224,-12.69163577810726,8.257853617699947
0.6108637938610529,0.7205355949700527,0.4000465922420373,-6.645303277772224,-16.149795333356803,12.084163698480229
0.6180691498107534,0.5590376416364846,0.33359355946431507,-6.524461640787422,-18.82590375506523,14.948064287376466
0.6236595262271183,0.3707786040858323,0.26834894305644086,-6.374980997913657,-20.68951753056918,16.846674250060975
0.6273673122679766,0.1638834287801405,0.2045991330773043,-6.2065142554130475,-21.829625458611037,17.92758057619546
0.629006146555778,-0.05441282580596987,0.1425339905231738,-6.027238449651093,-22.39159719730429,18.40317153036128
0.6284620182977183,-0.27832879777901276,0.08226160602666288,-5.84320673434748,-22.52643944971598,18.48392562277613
0.6256787303199282,-0.5035931922761725,0.02382953868318808,-5.658367478119719,-22.363198762151224,18.34383893200219
0.6206427983971664,-0.7272251798976848,-0.03275413609800911,-5.474929088799697,-22.00027144980531,18.111149207742653
0.6133705465981896,-0.9472278943957378,-0.08750342698600608,-5.2938175967222705,-21.507278450338486,17.872615913711904
0.6038982676542322,-1.1623006788991228,-0.14044160295322877,-5.115091437585152,-20.930976638392785,17.682525189021042
0.592275260865241,-1.3716104452830506,-0.19159251732908028,-4.938266185694942,-20.301623465376487,17.5717620817951
0.5785591564124104,-1.5746266799368156,-0.2409751791860297,-4.76254856487699,-19.638342870975084,17.55519728414577
0.5628128896130422,-1.7710101086465664,-0.2886006648347996,-4.586996592035533,-18.953167138499126,17.63711608022043
0.5451027885265766,-1.9605417800315577,-0.33447063075515493,-4.410625431233329,-18.253892158578275,17.81498935978766
0.525497370726261,-2.1430807016173405,-0.3785768850674882,-4.232475537635452,-17.546009920201442,18.082013582809346
0.5040665637100876,-2.318540800819355,-0.4209016404438427,-4.051655401807358,-16.83397056550914,18.428800226490814
0.48088115570189405,-2.486880506474446,-0.4614181944619163,-3.86736739954245,-16.121973710240923,18.84450360660453
0.45601235063714957,-2.6481002435768555,-0.5000918684573408,-3.6789223634764046,-15.414434290105433,19.31758881851354
0.429531348201381,-2.8022445864779097,-0.5368810920921048,-3.4857464752912692,-14.716224317190376,19.836372997369914
0.4015089023366019,-2.9494068296498135,-0.5717385568450175,-3.28738274531757,-14.03276006706034,20.389423477750675
0.37201483404010377,-3.089734430320417,-0.6046123842981932,-3.083488510540063,-13.369982211741851,20.96586196178767
0.3411174897368996,-3.2234342524378357,-0.6354472694035939,-2.8738298909221864,-12.734261451517362,21.555600296365498
0.30888314721252125,-3.350776866953009,-0.6641855683128157,-2.6582738879585315,-12.132251793201675,22.149517434122494
0.27537537854299116,-3.472099384885026,-0.690768307192401,-2.4367787136173065,-11.57070582324009,22.73957595554357
0.2406543846941409,-3.587806443117427,-0.7151360943285741,-2.2093829540618706,-11.05625964748559,23.31886813902767
0.20477632026296663,-3.698369039592283,-0.7372299238691927,-1.9761942726715938,-10.595188462001916,23.881574346853146
0.1677926298670438,-3.804320924212302,-0.7569918665959087,-1.7373785292030623,-10.193126016688412,24.422808983375685
0.12974942062492079,-3.906252184379186,-0.7743656518879393,-1.4931504393693056,-9.854731647693102,24.93832003215392
0.09068689878112893,-4.004799500856117,-0.7892971562816323,-1.2437672390477663,-9.583276206336253,25.423995699069547
0.05063890377256776,-4.100632262919479,-0.80173482867211,-0.9895272820570709,-9.380102261384929,25.87511452785512
0.009632581143372967,-4.194433285533329,-0.8116301014926807,-0.7307761367785197,-9.243893836992426,26.285252498916364
-0.03231175171196032,-4.286872223903253,-0.8189378628604659,-0.46792361178935604,-9.169667081072328,26.644732535812036
-0.07518047395099285,-4.378568894713976,-0.8236170989783594,-0.20147628643123566,-9.147368636512713,26.938472809735533
-0.11896616289813261,-4.470042581079103,-0.8256318618426718,0.06790844166611965,-9.15995207193792,27.143073162661928
-0.16366658870892364,-4.5616421017984825,-0.8249527774260106,0.33933917329273894,-9.180815851240377,27.22300444278285
-0.20928300972690847,-4.653450260310886,-0.8215593856930832,0.6115692177205674,-9.17057344004475,27.125896866005217
-0.2558175123300173,-4.745155994711333,-0.8154436935158775,0.8828281863806196,-9.073369327039249,26.777276769821853
-0.3032690722771306,-4.835889687981726,-0.8066154116520713,1.150600954078838,-8.813483071656188,26.075857574825907
-0.3516279691569479,-4.924024518698287,-0.7951094021112829,1.4113595298270971,-8.29392624070434,24.89185716127748
-0.4008682143439308,-5.0069637811053305,-0.780995806813012,1.660278101439872,-7.400165807459231,23.07282488967251
-0.45093785215498405,-5.080965439179923,-0.7643930257986132,1.891006350336597,-6.013553526103953,20.463464805366584
-0.5017475065467832,-5.141100974440962,-0.7454829622952472,2.095640998390263,-4.038982734787374,16.945762330480385
-0.5531585162911928,-5.181490801788836,-0.7245265523113447,2.2650986216950666,-1.4468923170884065,12.499329461098743
-0.6049734243090812,-5.19595972495972,-0.7018755660943939,2.390091916306054,1.6813643505294702,7.265975334402455
-0.6569330215586784,-5.179146081454426,-0.6779746469313334,2.462751669650079,5.130053821394304,1.582176717768077
-0.7087244823732226,-5.127845543240483,-0.6533471302348326,2.4785734368277597,8.576112824495583,-4.061451928938431
-0.7600029378056274,-5.042084414995527,-0.628561395866555,2.437958917538375,11.672113624546677,-9.141183057053889
-0.8104237819555827,-4.92536327875006,-0.6041818066911713,2.346547086967836,14.14928528730148,-13.250025562687146
-0.8596774147430833,-4.783870425877046,-0.580716335821493,2.2140468313409647,15.884400942353679,-16.19549747376885
-0.9075161190018538,-4.625026416453509,-0.5585758675080833,2.052091856603276,16.900540856656487,-18.001828157945837
-0.953766383166389,-4.456021007886944,-0.5380549489420505,1.8720735750238178,17.31806022210822,-18.83960813267849
-0.9983265932452584,-4.282840405665862,-0.5193342131918124,1.683677493697033,17.29414504440454,-18.937984826821403
-1.041154997301917,-4.109898955221817,-0.502497438254842,1.4942976454288188,16.9785560451128,-18.519478733438344
-1.0822539868541352,-3.940113394770689,-0.48755446180055384,1.3091028580944353,16.492241493906626,-17.767579398049737
-1.1216551208018422,-3.7751909798316223,-0.4744634332196095,1.131427064113938,15.9228928478288,-16.818989402963627
-1.1594070306001585,-3.615962051353334,-0.4631491625784701,0.9632371700843017,15.329124347402992,-15.76869117816034
-1.1955666511136918,-3.462670807879304,-0.4535167908776271,0.8055502583026982,14.74735787035384,-14.679289433842303
-1.2301933591924847,-3.315197229175766,-0.4454612882946001,0.6587573639642752,14.198416175056394,-13.59021635257618
-1.2633453314842424,-3.173213067425202,-0.43887371465495734,0.5228552004385134,13.692766784607871,-12.525174528084085
-1.2950774621584944,-3.036285399579123,-0.4336451626505722,0.3976034551576726,13.234314226120725,-11.497591532350175
-1.3254403161542856,-2.9039422573179157,-0.42966912809899543,0.2826275398341708,12.822990490018846,-10.514393786346737
-1.3544797387274647,-2.7757123524177274,-0.42684285270065375,0.17748360197070345,12.456458417701233,-9.57852206126018
-1.382236862251642,-2.651147768240715,-0.42506801668094674,0.08169838135810165,12.131199999756186,-8.690563808950431
-1.4087483399340492,-2.529835768243153,-0.4242510328673657,-0.005207256731402668,11.84319402643384,-7.849789071690956
-1.4340466976164807,-2.4114038279788144,-0.42430310543467975,-0.08370514744831223,11.588326299768056,-7.054793522642008
-1.458160735896269,-2.2955205649811337,-0.42514015690916285,-0.1542530826747323,11.362628748562587,-6.303887278486381
-1.4811159415460802,-2.1818942774955077,-0.42668268773591017,-0.21729195545959612,11.16241066537068,-5.595321605860283
-1.5029348843210353,-2.070270170841801,-0.42885560729050615,-0.27324517151819894,10.984322883606463,-4.927413783510059
-1.5236375860294533,-1.9604269420057363,-0.43158805900568814,-0.32251930935329953,10.825380953981501,-4.298609122572644
-1.5432418554495106,-1.8521731324659214,-0.4348132520992211,-0.365505400579026,10.682963813449277,-3.7075051759310758
-1.56176358677417,-1.7453434943314285,-0.43846830610501136,-0.4025804523383367,10.554798306141773,-3.152854067826334
-1.5792170217174841,-1.6397955112700109,-0.4424941106283947,-0.43410899301660005,10.438936012807941,-2.633552979679623
-1.5956149768301842,-1.5354061511419315,-0.44683520055856074,-0.46044452281339626,10.333726376694484,-2.1486290221497364
-1.6109690383416035,-1.4320688873749867,-0.4514396457866947,-0.4819308130348936,10.237788561006397,-1.6972222737356606
-1.6252897272153535,-1.3296910017649228,-0.45625895391704363,-0.4989030357722502,10.149983501816596,-1.2785691955112803
-1.6385866372330027,-1.2281911667467569,-0.46124798427476615,-0.511688727727363,10.069387016607772,-0.8919876306583125
-1.6508685489004702,-1.127497296580679,-0.46636487155203976,-0.520608604033946,9.995264456197896,-0.536863966317497
-1.662143521866277,-1.0275446520187002,-0.4715709575923792,-0.5259772436971211,9.92704716009083,-0.21264264439427644
-1.672418968386464,-0.9282741804177919,-0.47683073002935045,-0.5281036701410639,9.864310837596278,0.0811820267303276
-1.681701710190642,-0.8296310720418291,-0.48211176673076106,-0.5272918498737605,9.806755914958744,0.34507194088384646
-1.6899980209110603,-0.7315635128922416,-0.4873846852294987,-0.5238411304649221,9.754189840705825,0.5794493921327241
-1.6973136560399829,-0.6340216144851833,-0.49262309653414793,-0.5180466365435948,9.706511314136078,0.7846996767205815
-1.7036538721848347,-0.5369565013438226,-0.4978035628995839,-0.510199639776389,9.663696387139925,0.9611723726058917
