th1 (rad),w1 (rad/s),th2 (rad),w2 (rad/s)
5.436851175491282,-3.1007850145939844,4.3881164352099695,3.0666784312817086
5.405843325345342,-3.113703175137396,4.418783219522787,3.249353814836733
5.374706293593968,-3.1335435869740125,4.451276757671154,3.43499221894673
5.343370857724228,-3.1603697188892683,4.485626679860622,3.6241733086546852
5.311767160535335,-3.194063160034745,4.5218684129471685,3.8172505021987373
5.279826528934987,-3.234214217328502,4.560040917969156,4.014203541033454
5.247484386761702,-3.2799639206226447,4.60018295337949,4.214425517279962
5.214684747555475,-3.329786688654693,4.64232720855229,4.41642915521129
5.181386880668929,-3.381212474872375,4.6864915001044025,4.6174700964845945
5.147574755920205,-3.4305135723112876,4.732666201069248,4.813121040797055
5.113269620197093,-3.4724352350935237,4.780797411477219,4.996904887274992
5.078545267846158,-3.5001341358545885,4.830766460349969,5.16021210522458
5.043543926487612,-3.5055747372594355,4.882368581402215,5.292846277618188
5.008488179115017,-3.4806247305732376,4.935297044178396,5.384528565829947
4.973681931809285,-3.4188408770337197,4.989142329836696,5.427344484560676
4.939493523038948,-3.317416947649832,5.043415774682303,5.418396528835833
4.906319353562449,-3.1783156981114895,5.097599739970661,5.3613088984535375
4.874536196581334,-3.0078136531708326,5.151212828955197,5.265530083578978
4.844458060049626,-2.814631284830357,5.203868129790987,5.143696768988926
4.816311747201323,-2.60767878034843,5.255305097480876,5.008503961569546
4.790234959397838,-2.3944309784056443,5.3053901370965715,4.870482596903629
4.766290649613782,-2.1802763264655978,5.354094963065608,4.737143677354833
4.744487886349126,-1.9686044303374066,5.401466399839156,4.613143750136956
4.724801842045752,-1.76123526749504,5.447597837340525,4.500911803810586
4.707189489370801,-1.5589017889822294,5.492606955378631,4.40133674063413
4.691600471480979,-1.3616525183869197,5.536620322784972,4.314333375616865
4.677983946297109,-1.1691427411977464,5.579763656541141,4.239247009495924
4.666292518885132,-0.9808280296122145,5.6221561266361,4.175118493744815
4.65648423858901,-0.7960856808345542,5.663907311573548,4.120847144730324
4.648523381780664,-0.6142875375206324,5.705115783020852,4.0752851806516075
4.642380506405457,-0.43484178310887733,5.745868634827368,4.037288721609688
4.638032088574368,-0.2572156920351232,5.786241522043465,4.005742336898833
4.635459931654017,-0.08094705566411531,5.826298945412454,3.97956808198537
4.634650461097376,0.0943509193978837,5.866094626232307,3.9577258585543524
4.635593970291355,0.2689883489086481,5.905671884817851,3.939209280229229
4.638283853780441,0.4431993574416906,5.945063977620143,3.92303957004716
4.642715847354858,0.6171437750715553,5.984294373320615,3.9082590019279495
4.648887285105574,0.790909365476488,6.023376963339894,3.8939247869341993
4.656796378760339,0.9645143864093648,6.062316211209236,3.8791039400764857
4.6664415226244325,1.1379104513976257,6.101107250610001,3.8628694461863264
4.677820627138408,1.310985759440238,6.139735945071864,3.844297912540428
4.690930484732811,1.483568812642368,6.178178924197269,3.8224688134774945
4.705766172859235,1.6554327652064438,6.216403612332043,3.796465374815977
4.7223205005113,1.826300549849579,6.254368266080204,3.7653770991905526
4.740583506009796,1.9958509148012642,6.292022037072109,3.7283038889834867
4.760542015157808,2.163725479320479,6.329305075961944,3.6843616765958496
4.782179269951013,2.329536880455482,6.3661486927279025,3.63268942018233
4.805474638755568,2.492878040513878,6.402475586929726,3.5724572662545375
4.830403419160707,2.653332535421001,6.438200159592271,3.502875619649721
4.8569367445149165,2.810485991078453,6.473228915788768,3.4232047981609535
4.885041604425701,2.9639383805891244,6.507460963770377,3.332764886267558
4.914680988231592,3.11331704273669,6.540788612633053,3.230945343066461
4.945814158658959,3.2582901946537737,6.573098066063717,3.117213867226355
4.978397060605497,3.398580672685763,6.604270204735981,2.9911239803066856
5.012382867332354,3.533979608719308,6.634181444539047,2.8523207628640366
5.047722663419547,3.664359738409462,6.662704652167688,2.7005441689690266
5.084366260803642,3.7896880464158356,6.689710093857378,2.535629357129419
5.1222631412678,3.9100374852166597,6.715066387428672,2.357503511292643
5.161363516119967,4.02559756090395,6.738641422541598,2.166178685289783
5.201619491729007,4.136683663028572,6.760303209394495,1.9617402865361013
5.242986328359293,4.243745125798399,6.779920612259856,1.744330916434027
5.285423779617277,4.3473721420663995,6.797363921424196,1.5141293998338639
5.328897501037941,4.448301803683097,6.812505215422535,1.2713249567060898
5.3733805190747725,4.547423701719478,6.825218464989596,1.016086589144402
5.418854756091967,4.645785671505876,6.8353793308810396,0.7485278741531811
5.465312612807026,4.744600384665627,6.842864609622572,0.46866747811300846
5.512758616653683,4.845253531420178,6.847551284403702,0.17638587884611884
5.561211151967885,4.94931422949847,6.849315143192163,-0.12862091877570564
5.610704294262869,5.058547911748074,6.848028934004406,-0.44688928171455655
5.66128977338035,5.174931043073253,6.84356004118726,-0.7792348147149168
5.713039083811083,5.300665145700072,6.83576769304011,-1.126792986628543
5.766045735268084,5.4381839113989665,6.824499763173825,-1.4910432141622478
5.820427574382074,5.590140032305141,6.809589331032202,-1.8737961644932444
5.8763289747051255,5.7593447954953385,6.79085136938727,-2.277105039383565
5.933922422660079,5.948608142538034,6.768080318993435,-2.7030260863380393
5.993408504085459,6.160381143732073,6.741050058130054,-3.153089499272931
6.05501231552278,6.396025495791151,6.709519163137325,-3.6272338234820656
6.118972570480691,6.654422014536161,6.673246824902504,-4.121800533979384
6.185516790626053,6.9295279289861815,6.63202881956271,-4.626046678993555
6.254812069915915,7.206620324225111,6.585768352772774,-5.116824001191021
6.326878273158166,7.4579430190490985,6.534600112760864,-5.552473381264939
6.401457703348657,7.641263744596115,6.479075378948215,-5.870940923176212
6.4778703407946185,7.708613365617739,6.420365969716453,-6.002437083291906
6.554956474450796,7.6295339661221995,6.360341598883534,-5.902738143010355
6.631251814112018,7.414544599204607,6.30131421745343,-5.586789963938484
6.705397260104063,7.111550031889743,6.245446317814046,-5.123802955571293
6.7765127604229605,6.7762768588291085,6.1942082882583325,-4.595175024331604
6.844275529011251,6.448335987292014,6.1482565380150165,-4.06004568919878
6.908758888884171,6.1473697773455855,6.107656081123029,-3.5492968607374613
6.970232586657628,5.879505006706109,6.072163112515654,-3.074391864086242
7.029027636724688,5.644039915010474,6.041419193874792,-2.636771933545999
7.085468035874793,5.4375350884990565,6.015051474539332,-2.2336904648212443
7.139843386759783,5.255820228857252,5.9927145698911195,-1.861128665370332
7.192401589048356,5.0948443390968245,5.974103283237416,-1.5150692537315953
7.2433500324393245,4.950975678034951,5.9589525907001,-1.191975506712683
7.292859789219674,4.821064078442712,5.947032835632974,-0.8889173700820119
7.341070430004101,4.702411175006554,5.938143661932154,-0.603553016943829
7.388094541754167,4.592712228130874,5.932108131762716,-0.33405883422650806
7.434021664035475,4.489995641968528,5.9287675434204505,-0.07904729878228611
7.478921620455161,4.392569661255507,5.927977070432628,0.16251174045694722
7.522847317067716,4.29897865913584,5.929602187837197,0.3913612199682842
7.565837103659074,4.207968599086994,5.93351580003688,0.6080175592417542
7.607916789649944,4.118460272661207,5.939595975629298,0.8128225632444931
7.649101392376556,4.029528712364233,5.947724201261743,1.0059876148243332
7.689396679500199,3.9403872852165187,5.957784077409987,1.1876312126022248
7.7288005523523635,3.850375184630261,5.969660389536009,1.3578107366063787
7.7673043041986665,3.758947271875294,5.983238496902072,1.5165491360844743
7.804893776917419,3.6656654406132536,5.998403988262917,1.663857080231755
7.841550431323552,3.5701908771706528,6.015042559065235,1.799751005215623
7.877252340095258,3.47227676218484,6.0330400691173915,1.9242674262215644
7.911975107717106,3.371761105779132,6.052282743379608,2.037473851537812
7.945692718774898,3.268559529321519,6.072657481894986,2.139476625812339
7.978378314068113,3.1626579033902735,6.094052248153109,2.2304260313896305
8.010004893102016,3.05410482552545,6.116356508467005,2.3105189819401044
8.040545941357271,2.9430039748541907,6.139461698286406,2.3799996457104697
8.069975981105813,2.8295064163205432,6.163261694743511,2.439158333253606
8.09827104526902,2.71380294789369,6.187653278076047,2.4883289750242787
8.125409074747957,2.5961165927362324,6.212536567826289,2.5278854978249052
8.15137024067532,2.4766953377477203,6.237815422804538,2.5582373867960984
8.176137194052798,2.3558052127468914,6.263397796672499,2.579824693008982
8.199695246180266,2.2337237930231306,6.289196043602589,2.5931127173909396
8.222032484110496,2.1107341938452904,6.315127170776498,2.5985865712293177
8.24313982604895,1.9871196101145103,6.3411130364887915,2.5967457830991196
8.263011022150094,1.8631584386677962,6.367080494319783,2.5880990926802596
8.281642606536773,1.7391200054659197,6.392961485246586,2.573159544196614
8.299033806591432,1.6152609054996852,6.418693080688552,2.552439966509159
8.315186415646428,1.4918219500397987,6.444217480353644,2.5264489034415636
8.330104635146826,1.3690257040560723,6.46948196938806,2.4956870368110224
8.343794892187386,1.2470745863944892,6.49443883975617,2.460644125919818
8.356265638051331,1.1261494967297834,6.5190452810153685,2.4217964709408206
8.36752713301863,1.0064089264665796,6.543263245724777,2.379604893689622
8.377591222283296,0.8879885056580767,6.567059294661673,2.334513217684782
8.386471107339878,0.7710009346130939,6.590404426838521,2.2869472200990715
8.394181116686008,0.6555362470850117,6.613273899039512,2.2373140211107065
8.400736479156858,0.5416623516464215,6.635647039250618,2.1860018711505407
8.406153102673322,0.4294257988759135,6.657507057962124,2.1333802934482655
8.410447360662081,0.31885272411095567,6.678840860896607,2.0798005379137847
8.41363588790319,0.2099499185257266,6.699638866275745,2.025596302528952
8.415735387088448,0.10270598494018449,6.719894829301034,1.9710846798335864
8.41676244693785,-0.0029074611734676986,6.73960567609937,1.916567288526886
8.416733372326116,-0.10693458076331928,6.758771348984639,1.862331553435547
8.415664026518483,-0.20943412136244333,6.777394664518995,1.80865210090282
8.413569685304859,-0.31047827525326377,6.795481185528023,1.7557922408307096
8.410464902552325,-0.4101516087235708,6.81303910793633,1.704005510990317
8.40636338646509,-0.5085500820818835,6.830079163046233,1.6535372636626842
8.401277885644271,-0.6057801771382422,6.84661453568286,1.6046262790740748
8.39522008387289,-0.7019581464017182,6.8626607984736,1.5575063943631369
8.388200502408871,-0.7972093963180733,6.878235862417231,1.5124081409047712
8.38022840844569,-0.8916680154692412,6.893359943826279,1.469560386677615
8.371311728290998,-0.9854764577612027,6.9080555476930545,1.4291919839716865
8.361456963713385,-1.0787853902014697,6.922347467532771,1.3915334260661414
8.35066910981137,-1.1717537148563428,6.936262801793433,1.3568185195328424
8.338951572662808,-1.2645487749034814,6.949830986988761,1.3252860814860763
8.326306084913773,-1.3573467552484633,6.963083847803622,1.2971816733072643
8.312732617361288,-1.4503332888010585,6.976055664536695,1.2727593839617712
8.298229284473278,-1.5437042799852103,6.988783258376312,1.2522836767201642
8.282792241673425,-1.6376669570577504,7.001306095143514,1.2360313124587976
8.266415572102847,-1.7324411638431652,7.013666408268102,1.2242933600513324
8.249091160464415,-1.8282608988132825,7.025909341868615,1.2173772985976998
8.230808551476283,-1.9253761039255342,7.038083114854592,1.2156092057164882
8.211554790437027,-2.0240546955686134,7.0502392069117565,1.2193360083261575
8.191314243481342,-2.124584812742482,7.062432566995018,1.228927743422668
8.170068395353917,-2.2272772292538163,7.074721844429245,1.2447797305122248
8.147795623061379,-2.3324678312127793,7.087169641734367,1.2673144857949783
8.124470944749252,-2.4405199893482337,7.099842786592317,1.2969830976959458
8.100065744855769,-2.5518265438675316,7.1128126175692765,1.3342656140952547
8.074547479417093,-2.666810947219439,7.126155273710229,1.3796697341783306
8.0478793699449,-2.785926846826994,7.139951971052013,1.4337267089840526
8.02002010147663,-2.9096549917192047,7.154289238141853,1.4969827722826696
7.990923551559439,-3.038495752481312,7.16925906586468,1.5699835608110373
7.960538594034626,-3.172954671604476,7.184958901472791,1.6532477264756256
7.928809047318581,-3.3135172143625327,7.201491378737547,1.7472241596469684
7.895673875174956,-3.4606071805830223,7.218963620334017,1.8522248147524605
7.861067803369126,-3.614521055296275,7.237485868481541,1.9683220569820965
7.824922592816163,-3.7753281570064843,7.257169089051362,2.095196089953671
7.787169311246099,-3.9427246185799563,7.278121049950899,2.2319155966015036
7.747742065060299,-4.115830077185427,7.300440205916914,2.3766362198686597
7.706583764288445,-4.292923702970759,7.3242065681156,2.526213020683619
7.663654527258737,-4.47113804382293,7.349468698322436,2.6757548392336017
7.618943146820508,-4.6461739530116475,7.376226246714772,2.8182131336127854
7.572481407290392,-4.812170556038307,7.4044083780509,2.9441994784494723
7.52435970173001,-4.961939007702277,7.433850372835395,3.042333199822037
7.474740311652987,-5.087776616683481,7.464273704833616,3.100432006746262
7.423862545486152,-5.182907802620235,7.495278024901078,3.1076152968101063
7.37203346745995,-5.243209893324049,7.526354177869179,3.056833406465138
7.319601368526709,-5.268485262082981,7.556922511933831,2.946764672566677
7.266916515905879,-5.262563753110514,7.586390158659498,2.7820449184415774
7.214290878374774,-5.232132658160931,7.614210607843914,2.571661884047425
7.161969551793165,-5.184927972877189,7.639927226684388,2.326401703901851
7.1101202720643935,-5.12813323372571,7.663191243723406,2.056553144032521
7.058838939727137,-5.067461876690708,7.683756775163731,1.7705623691970866
7.00816432096023,-5.006912081750632,7.7014623988557025,1.4746412198297125
6.958095200142724,-4.948937871279805,7.716208811054,1.1729770508489217
6.9086058214299255,-4.894781070272859,7.727938581562489,0.8681851965475508
6.8596580107271965,-4.844807437385338,7.736620433527964,0.561779914476187
6.811209936353343,-4.798781445193456,7.742238232672726,0.25456697302560677
6.763222121901409,-4.756067554156193,7.744783902402982,-0.053063354219715864
6.715661446359847,-4.715768451305817,7.744253268860785,-0.36093140557344594
6.668503761846789,-4.676816459539789,7.7406439548050505,-0.6689310336207831
6.621735597251391,-4.638032984759281,7.7339546444688425,-0.9769412919196852
6.575355267403798,-4.598167511485694,7.7241852315496455,-1.284772245491225
6.529373592288941,-4.555924350740919,7.711337509094733,-1.5921346125174676
6.483814348781532,-4.509982702156862,7.6954161629695585,-1.898626403366796
6.438714521759963,-4.459013649314513,7.676429898935891,-2.2037321730778268
6.394124385266818,-4.4016963196888215,7.654392577205113,-2.5068321149363824
6.35010742206993,-4.336734446957892,7.629324256055749,-2.807219209279868
6.306740077600351,-4.262873845092645,7.60125206396295,-3.104123187184871
6.264111339149424,-4.178920752356303,7.570210832091101,-3.3967403150756397
6.222322131625861,-4.083760575493634,7.536243428940345,-3.6842680597770974
6.181484525870924,-3.976376232201568,7.499400748342574,-3.9659436347684185
6.141720763548908,-3.8558650434280226,7.45974131199489,-4.241085320531218
6.103162113114628,-3.7214529672241032,7.417330458789578,-4.509135345674738
6.065947583442387,-3.5725048996227002,7.37223910533283,-4.769703051496289
6.03022253444616,-3.4085298037834453,7.324542074817867,-5.022607070961489
5.996137236408326,-3.229179573563651,7.274316004108252,-5.267915351412049
5.9638454406726895,-3.0342407963588602,7.221636850594131,-5.505982039787877
5.933503032709101,-2.823618956093031,7.166577030196253,-5.737480508375617
5.905266843148171,-2.5973151190782895,7.109202225112496,-5.96343207481576
5.879293691957388,-2.3553957993941537,7.049567904364339,-6.185230162124417
5.855739733963446,-2.0979575750111237,6.987715602743094,-6.404659579205251
5.834760158213335,-1.82508927520046,6.923669006951042,-6.623909984042422
5.81650926546133,-1.5368364983290053,6.8574299071106175,-6.84558091205874
5.80114090047804,-1.233176449797582,6.78897409799003,-7.07267212350201
5.788809135980064,-0.9140167177443776,6.71824737675501,-7.308545885647361
5.77966896880262,-0.5792415725782727,6.645161917898537,-7.556834442073729
5.773876553076837,-0.2288469120492021,6.5695935734778,-7.82124178939253
5.771588083956345,0.1367651327040214,6.491381155583874,-8.105147094133313
5.772955735283386,0.5162134109359715,6.410329684642541,-8.410849672776349
5.778117869392745,0.9061040175298241,6.326221187914777,-8.738202018125389
5.787178909568044,1.2993020095244843,6.2388391677335235,-9.082296471620964
5.800171929663289,1.6823585889736237,6.148016203017314,-9.429965313557382
5.8169955155530255,2.032481216199506,6.053716549881741,-9.755560531511986
5.8373203277150205,2.3159309939563353,5.956160944566621,-10.018502230955548
5.860479637654584,2.4920345610710135,5.855975922257065,-10.168242565367827
5.885399983265295,2.526898441653933,5.754293496603387,-10.162221806268642
5.910668967681834,2.412472948258366,5.652671278540701,-9.99098232585337
5.934793697164417,2.1743997685359453,5.552761455282168,-9.688162313839115
5.956537694849776,1.858299992743877,5.4558798321437765,-9.311839974573179
5.975120694777215,1.5078877940627895,5.362761432398044,-8.915720288726206
5.9901995727178425,1.1531094404152142,5.273604229510783,-8.53434373835204
6.001730667121994,0.8101369465212942,5.188260792127262,-8.18402540625305
6.009832036587207,0.4859374243708309,5.106420538064731,-7.86942555295344
6.014691410830916,0.18248970573093415,5.027726282535197,-7.5892665820707075
6.016516307888225,-0.10055047885014673,4.951833616714491,-7.339802220140783
6.0155108030997235,-0.36442541837409786,4.878435594513083,-7.116587987990418
6.011866548915982,-0.6105872545599047,4.807269714633179,-6.915281217668337
6.005760676370383,-0.8403967792519543,4.738116902456496,-6.731953246323995
5.997356708577864,-1.055012403023369,4.670797369993256,-6.563175762772313
5.98680658454763,-1.2553679825985065,4.605165612365533,-6.406011141677842
5.974252904721645,-1.4421895872595951,4.541105500948754,-6.257967604810121
5.959831008849049,-1.6160272813253378,4.478525824900653,-6.116946201267299
5.943670736035796,-1.7772907593617369,4.41735636288798,-5.98119058197342
5.925897828442179,-1.9262838176609989,4.357544457068245,-5.849243205228371
5.906634990265569,-2.063235555542091,4.299052025015961,-5.7199084049037925
5.886002634710148,-2.188327547111612,4.241852940966924,-5.59222148520355
5.864119359239032,-2.301716828983101,4.185930726114888,-5.465422628049763
5.841102190949201,-2.403554811653172,4.1312764998343905,-5.338934414630959
5.817066642832669,-2.4940023340178876,4.077887155688081,-5.212341937469898
5.792126619492491,-2.5732411318367157,4.025763736313381,-5.085374703981787
5.766394208174123,-2.6414820212860266,3.9749099892735633,-4.957889756152641
5.739979387961263,-2.6989701229299334,3.925331091712037,-4.829855630748928
5.712989686731964,-2.745987472791447,3.8770325354045476,-4.701336950803456
5.68552981200405,-2.782853384274314,3.830019165896513,-4.572479569128156
5.657701278161307,-2.8099229347087653,3.7842943702052314,-4.443496279036502
5.629602048814219,-2.827583950934679,3.7398594074148663,-4.31465316924456
5.6013262093048715,-2.836252858402842,3.6967128757224206,-4.1862567333526535
5.572963680720843,-2.8363697378807697,3.654850308388894,-4.058641854478101
5.544599983342035,-2.8283929042381977,3.6142638898441133,-3.932160777920536
5.516316054299653,-2.812793285005277,3.574942282064908,-3.8071731645032
5.488188121449601,-2.7900488349150208,3.536870550419876,-3.6840372893128763
