th1 (rad),w1 (rad/s),th2 (rad),w2 (rad/s),a1 (rad/s^2),a2 (rad/s^2)
5.8336276359231976,1.4514442217772239,2.8993669528190282,0.008666687228398622,6.371562620219876,4.318101773174035
5.848142078140969,1.5151598479794226,2.8994536196913123,0.05184770496013898,6.159219576836118,4.135244384668592
5.8632936766207635,1.5767520437477838,2.8999720967409135,0.0932001488068249,5.928337629879748,3.93033917980116
5.879061197058241,1.6360354200465812,2.9009040982289815,0.1325035406048365,5.678588628044576,3.7023854353452736
5.895421551258707,1.692821306327027,2.90222913363503,0.16952739495828922,5.409777004383689,3.4505940056309217
5.912349764321977,1.746919076370864,2.9039244075846127,0.20403333501459844,5.121855495611659,3.174415163421395
5.929818955085686,1.7981376313269806,2.905964740934759,0.2357774866488124,4.81493965994157,2.8735644648983665
5.947800331398956,1.8462870279263963,2.908322515801247,0.2645131312977961,4.489320859833211,2.5480459329175367
5.96626320167822,1.8911802365247283,2.910967647114225,0.28999359062697144,4.145477392324065,2.1981718646887445
5.985175004043468,1.932635010447969,2.9138675830204948,0.31197530927385886,3.7840834704373156,1.8245785982414986
6.004501354147948,1.970475845152342,2.9169873361132335,0.33022109525627386,3.406015782230859,1.4282376145793816
6.0242061125994715,2.0045360029746506,2.920289547065796,0.34450347140206766,3.0123573772740015,1.0104614072747236
6.044251472629218,2.0346595767473907,2.923734581779817,0.35460808547481487,2.604398652200983,0.5729036167065321
6.064598068396691,2.0607035632694006,2.927280662634565,0.3603371216418802,2.1836352269400465,0.11755300129761438
6.085205104029385,2.082539915538801,2.930884033850984,0.36151265165485635,1.7517625219649313,-0.35327909676150804
6.1060305031847735,2.10005754075845,2.9344991603675328,0.35797986068724125,1.3106668666039343,-0.8369780370491476
6.127031078592358,2.1131642094244896,2.938078958974405,0.3496100803167498,0.8624129926246665,-1.3306520520759244
6.148162720686603,2.1217883393507364,2.9415750597775725,0.3363035597959905,0.40922780070812764,-1.8311653085021216
6.169380604080111,2.1258806173578177,2.9449380953755324,0.31799190671096933,-0.046519664574692886,-2.3351777101204716
6.190639410253689,2.125415420712071,2.948118014442642,0.2946401296097646,-0.5023420277211157,-2.839191115313881
6.2118935644608095,2.1203920004348595,2.95106441573874,0.2662482184566258,-0.9556610873350334,-3.3396014347986527
6.2330974844651585,2.110835389561509,2.9537268979233064,0.23285220410863924,-1.403838798311107,-3.8327558422101795
6.2542058383607735,2.096797001578398,2.9560554199643927,0.19452464568653743,-1.8442113708466341,-4.315014076305147
6.275173808376557,2.0783548878699314,2.958000666421258,0.15137450492348598,-2.274125958468777,-4.782812550117651
6.295957357255257,2.0556136282852435,2.9595144114704928,0.10354637942230946,-2.6909792260184617,-5.232729725433787
6.3165134935381095,2.028703836025059,2.9605498752647157,0.05121908216797159,-3.0922569059966776,-5.661550981208763
6.33680053189836,1.9977812669650923,2.9610620660863956,-0.0053964276441160475,-3.4755732837509483,-6.0663310259900705
6.356778344568011,1.9630255341275828,2.9610081018099543,-0.06605973790401676,-3.83870941667177,-6.444451801823416
6.376408599909286,1.9246384399608651,2.960347504430914,-0.1305042559222509,-4.17964880810417,-6.793673823132455
6.395654984308895,1.8828419518798234,2.9590424618716913,-0.19844099415357547,-4.496609239192062,-7.112179005797038
6.414483403827694,1.8378758594879028,2.9570580519301557,-0.26956278421154584,-4.788069523010148,-7.3986032775339075
6.432862162422572,1.7899951642578014,2.9543624240880404,-0.3435488169868849,-5.052790090133837,-7.652057617969634
6.45076211406515,1.739467263356463,2.9509269359181713,-0.4200693931665812,-5.289826540208042,-7.872136640346184
6.468156786698715,1.6865689979543825,2.9467262419865055,-0.49879075957004304,-5.498535588498237,-8.058914369445574
6.4850224766782585,1.6315836420694,2.9417383343908052,-0.5793799032644988,-5.678573180365981,-8.21292745497452
6.501338313098953,1.5747979102657403,2.93594453535816,-0.661509177814244,-5.829884914602433,-8.335146642986077
6.51708629220161,1.516499061119716,2.9293294435800177,-0.7448606442441048,-5.952689279828313,-8.426937865128433
6.532251282812807,1.456972168321433,2.921880837137577,-0.8291300228953892,-6.047454538040515,-8.490014755455542
6.546821004496022,1.3964976229410277,2.913589536908623,-0.9140301704499446,-6.114870360564762,-8.526384734449946
6.560785980725432,1.33534891933538,2.9044492352041233,-0.999294017794444,-6.1558155150927725,-8.538290988984732
6.574139469918785,1.2737907641844524,2.894456295026179,-1.0846769276842914,-6.171323007203425,-8.528152718222062
6.58687737756063,1.2120775341124181,2.883609525749336,-1.169958454866512,-6.16254409371411,-8.498505915783827
6.598998152901754,1.150452093175277,2.871909941200671,-1.2549435140243503,-6.13071251470684,-8.45194673688445
6.610502673833507,1.0891449680282086,2.8593605060604275,-1.3394629813931949,-6.077110149362783,-8.391079183380292
6.621394123513789,1.0283738665345807,2.8459658762464954,-1.4233737732269978,-6.003035105794077,-8.318468462812772
6.631677862179135,0.96834351547664,2.8317321385142256,-1.5065584578551254,-5.909773027116671,-8.236600973494435
6.641361297333901,0.9092457852054733,2.8166665539356743,-1.5889244675900698,-5.798572155172004,-8.14785146798286
6.650453755185956,0.8512600636537533,2.8007773092597734,-1.6704029822698985,-5.670622457583399,-8.054457578168739
6.658966355822494,0.7945538390779193,2.7840732794370746,-1.7509475580515859,-5.5270389077389055,-7.958501566091709
6.666911894213273,0.7392834500005303,2.7665638038565588,-1.8305325737125029,-5.368848821119912,-7.861898907511253
6.674304728713278,0.6855949617893312,2.7482584781194337,-1.9091515627876154,-5.196983001102636,-7.766393125183843
6.681160678331172,0.6336251317783048,2.7291669624915573,-1.9868154940394538,-5.012270334943208,-7.673556164711077
6.687496929648955,0.5835024284288728,2.709298807551163,-2.0635510556865646,-4.81543540484895,-7.58479354212398
6.693331953933243,0.5353480743803833,2.688663296994297,-2.1393989911078046,-4.607098636171274,-7.50135348041823
6.6986854346770475,0.4892770880186706,2.667269307083219,-2.214412525911987,-4.387778489646174,-7.424339281845297
6.703578205557235,0.4453993031222089,2.645125181824099,-2.28865591873044,-4.15789521135659,-7.354724243355623
6.708032198588457,0.403820351008643,2.622238622636795,-2.3622031611639964,-3.917775676733615,-7.2933685042547385
6.7120704020985436,0.36464259424130685,2.598616591025155,-2.435136846206544,-3.6676588978999507,-7.241037309189592
6.715716828040956,0.32796600526230735,2.5742652225630893,-2.50754721929844,-3.4077018021583254,-7.198420268941936
6.7189964880935795,0.2938889872407241,2.549189750370105,-2.5795314219878596,-3.1379849294842685,-7.1661513007898705
6.721935377965987,0.26250913794588143,2.5233944361502263,-2.651192934995758,-2.8585177354538946,-7.144829025678687
6.7245604693454455,0.2339239605913425,2.4968825068002687,-2.722641225252545,-2.569243220950508,-7.135037488867606
6.726899708951359,0.20823152838183742,2.469656094547743,-2.793991600141221,-2.2700416398510983,-7.137367153076406
6.728982024235178,0.18553111198332645,2.441716178546331,-2.865365271671985,-1.9607330599618864,-7.152436188403212
6.730837335355011,0.16592378138370759,2.413062525829611,-2.9368896335560173,-1.6410785705714699,-7.180912152074222
6.732496573168848,0.1495129956779929,2.3836936294940507,-3.0086987550767597,-1.3107799424168083,-7.2235342144989065
6.733991703125628,0.1364051962538248,2.353606641943283,-3.080934097221749,-0.9694775533421206,-7.28113614737364
6.7353557550881655,0.1267104207204036,2.3227973009710654,-3.1537454586954854,-0.6167463966738391,-7.35467034580166
6.73662285929537,0.12054295675366519,2.2912598463841105,-3.227292162153502,-0.2520899911270926,-7.445233210191192
6.737828288862906,0.11802205684239427,2.2589869247625756,-3.3017444942554137,0.1250679864502023,-7.554092264723156
6.73900850943133,0.11927273670689628,2.2259694798200216,-3.3772854169026454,0.5153945170310437,-7.682715435491733
6.740201236798399,0.12442668187720672,2.192196625650995,-3.454112571257563,0.9196606577003895,-7.832802948415947
6.741445503617172,0.13362328845421062,2.157655499938419,-3.5324406007417224,1.338757677870427,-8.00632232583822
6.742781736501714,0.1470108652329149,2.122331093931002,-3.6125038240001044,1.7737159560258433,-8.205546945677838
6.744251845154043,0.16474802479317333,2.086206055691001,-3.6945592934568827,2.2257265483843596,-8.433098551456517
6.745899325401974,0.18700529027701693,2.049260462756432,-3.778890278971448,2.6961651144780916,-8.691993921248999
6.747769378304745,0.21396694142179784,2.0114715599667177,-3.8658102181839378,3.186617504497469,-8.985695546158649
6.749909047718963,0.24583311646677253,1.9728134577848784,-3.9556671736455242,3.698905686019702,-9.318165516251534
6.752367378883631,0.2828221733269696,1.933256786048423,-4.0488488288080395,4.235111664798162,-9.693920672442335
6.755195600616901,0.3251732899749512,1.8927682977603426,-4.145788035532463,4.797595398242903,-10.118085146167335
6.75844733351665,0.37314924395738025,1.851310417405018,-4.246968886994136,5.3890000315639615,-10.596433172076713
6.762178825956224,0.42703924427301987,1.8088407285350765,-4.352933218714903,6.012233498209249,-11.13540970904592
6.766449218398954,0.4871615792551124,1.7653113963479274,-4.464287315805363,6.670408648138611,-11.742107628133367
6.7713208341915045,0.5538656657364985,1.7206685231898737,-4.581708392086696,7.366713055249928,-12.42416591090979
6.77685949084887,0.6275327962889978,1.6748514392690068,-4.705950051195794,8.104162070229378,-13.189530080621815
6.78313481881176,0.7085744169912916,1.627791938757049,-4.837845352002012,8.88516073643069,-14.045978674642129
6.790220562981673,0.7974260243555985,1.579413485237029,-4.978305138748434,9.710756149620147,-15.000259883794218
6.79819482322523,0.8945335858518,1.5296304338495446,-5.128307737586376,10.579393530450218,-16.056588811060074
6.8071401590837475,1.000327521156302,1.4783473564736809,-5.2888736256969775,11.484886223256849,-17.21411278796092
6.8171434342953106,1.1151763833888706,1.425458620216711,-5.4610147535765865,12.413162112017691,-18.46274433889364
6.828295198129199,1.2393080045090474,1.3708484726809451,-5.645642196965523,13.33715765747207,-19.776486875085205
6.84068827817429,1.3726795810837682,1.3143920507112898,-5.843407065716375,14.209037908503012,-21.103089183277074
6.854415073985128,1.5147699601687983,1.255957980054126,-6.054437957549145,14.948882517407705,-22.348767584002804
6.869562773586816,1.6642587853428754,1.1954136004786347,-6.277925633389173,15.429518206436537,-23.35740295945238
6.886205361440245,1.8185539674072408,1.1326343441447428,-6.511499662983697,15.45924187835614,-23.88634824882047
6.904390901114318,1.9731463861908023,1.0675193475149058,-6.750363145471901,14.769409567419444,-23.588049057820687
6.924122364976226,2.1208404818649966,1.0000157160601868,-6.986243636050109,13.023861336854038,-22.020349000381028
6.945330769794876,2.251079095233537,0.9301532796996858,-7.206447126053919,9.879582048818614,-18.725549294923045
6.967841560747211,2.349874915721723,0.8580888084391466,-7.393702619003149,5.127666202478271,-13.418251330627148
6.9913403099044285,2.401151577746506,0.7841517822491151,-7.527885132309421,-1.1021179308511224,-6.259807261706494
7.015351825681893,2.3901303984379947,0.7088729309260209,-7.590483204926485,-8.194921975391319,1.9461660335292041
7.039253129666274,2.3081811786840816,0.632968098876756,-7.5710215445911935,-15.15275037841338,9.895173126436822
7.0623349414531145,2.156653674899948,0.557257883430844,-7.472069813326825,-20.98595720040554,16.312209323102742
7.083901478202114,1.9467941028958924,0.4825371852975758,-7.308947720095797,-25.12952060488765,20.50636672938264
7.103369419231074,1.695498896847016,0.4094477080966178,-7.103884052801971,-27.56387221847257,22.517726353573217
7.120324408199544,1.4198601746622903,0.3384088675685981,-6.878706789266238,-28.629356342729523,22.852839106119344
7.134523009946166,1.1335666112349951,0.26962179967593575,-6.650178398205045,-28.766306600112372,22.13049863739782
7.145858676058516,0.8459035452338715,0.2031200156938853,-6.428873411831067,-28.352181434004212,20.867313372416255
7.154317711510855,0.5623817308938293,0.13883128157557462,-6.220200278106905,-27.651603826436705,19.418054656127094
7.159941528819794,0.2858656926294622,0.07662927879450557,-6.026019731545634,-26.827687666469735,17.9969836200067
7.162800185746089,0.01758881596476486,0.01636908147904923,-5.846049895345566,-25.970956738644304,16.720277944347373
7.162976073905736,-0.24212075142167816,-0.04209141747440644,-5.678847115902093,-25.12585241243769,15.643176709074428
7.16055486639152,-0.4933792755460551,-0.09887988863342737,-5.522415348811348,-24.30971966937739,14.785783942641956
7.155621073636059,-0.736476472239829,-0.15410404212154086,-5.374557509384929,-23.524977950721258,14.149091425922446
7.148256308913661,-0.9717262517470416,-0.20784961721539014,-5.233066595125704,-22.766479793272588,13.724275352513837
7.138539046396191,-1.1993910496797675,-0.2601802831666472,-5.095823841600566,-22.02581478137708,13.497819183647994
7.126545135899393,-1.4196491974935384,-0.31113852158265287,-4.960845649764086,-21.29377661282605,13.454192850840537
7.112348643924458,-1.632586963621799,-0.3607469780802937,-4.82630372125568,-20.561756628557326,13.577159720874969
7.096022774288239,-1.8382045299073722,-0.4090100152928505,-4.69053212404693,-19.82251768184556,13.850345252764784
7.077640728989166,-2.0364297067258277,-0.45591533653331984,-4.552028671519283,-19.07060948904079,14.25743326023367
7.057276431921907,-2.2271358016162357,-0.5014356232485127,-4.409454338916946,-18.302571988160214,14.782197714366772
7.035005073905745,-2.410161521497838,-0.5455301666376822,-4.2616323617732785,-17.517007042036198,15.408486401541037
7.010903458690766,-2.5853315919182,-0.588146490255415,-4.107547497757868,-16.714561620496482,16.12021964792973
6.985050142771584,-2.7524772081231648,-0.6292219652329937,-3.946345301278571,-15.897845476761924,16.901436117811855
6.957525370690353,-2.911455662890784,-0.6686854182457794,-3.7773309401004522,-15.071296203735015,17.73639883692654
6.928410814061444,-3.0621686249281344,-0.706458727646784,-3.599966951731187,-14.241000208326334,18.60976274082526
6.897789127812163,-3.2045786270113976,-0.7424583971640959,-3.4138693243229343,-13.414477048155161,19.50679729269043
6.865743341542049,-3.338723397492949,-0.7765970904073253,-3.21880135139603,-12.600435174580142,20.41365252486284
6.8323561075671195,-3.4647277492387505,-0.8087851039212856,-3.014664826147402,-11.808508420773457,21.317653461668826
6.797708830074732,-3.5828128334464853,-0.8389317521827596,-2.8014882915307138,-11.04898389984076,22.207605900781253
6.7618807017402665,-3.6933026724448927,-0.8669466350980668,-2.5794122325229014,-10.332532879809005,23.074095764407858
6.724947675015818,-3.7966280012429827,-0.8927407574232958,-2.3486712748788228,-9.669956357573199,23.90976451546311
6.686981395003388,-3.8933275648187147,-0.9162274701720841,-2.1095736297241916,-9.071956225877802,24.709544244619018
6.648048119355201,-3.984047127077493,-0.937323206469326,-1.8624781872780014,-8.548940922643999,25.470837613698215
6.608207648084425,-4.069536536303933,-0.955947988342106,-1.6077698111410192,-8.110871069617266,26.193629320941568
6.567512282721386,-4.150645247000106,-0.9720256864535163,-1.3458335179316037,-7.767145564392182,26.880516265296304
6.526005830251385,-4.228316702644028,-0.9854840216328323,-1.0770283552786406,-7.5265214025819605,27.53664183193291
6.4837226632249445,-4.303581916669847,-0.9962543051856187,-0.8016619369593114,-7.397050301686462,28.169513769797955
6.440686844058246,-4.377552419686712,-1.004270924555212,-0.5199667992613319,-7.386000415418168,28.78867208997264
6.3969113198613785,-4.451412423840893,-1.0094705925478253,-0.23208007836160555,-7.499709368007724,29.405148882202486
6.352397195622969,-4.526409517520971,-1.0117913933314413,0.06197141046041932,-7.743280999360626,30.030619186128586
6.30713310044776,-4.6038423275145774,-1.011171679226837,0.3622776023217052,-8.11998538760927,30.67607080830164
6.261094677172614,-4.68504218139067,-1.00754890320362,0.6690383104047215,-8.630139006332566,31.349706166288588
6.214244255358707,-4.771343571453995,-1.0008585200995728,0.9825353720676073,-9.26911430920306,32.05361051839488
6.1665308196441675,-4.864034714546026,-0.9910331663788967,1.3030714772515561,-10.023939109969508,32.77845637249899
6.117890472498707,-4.964274105645721,-0.9780024516063811,1.630856040976546,-10.867689686164612,33.49515686462954
6.068247731442249,-5.072951002507367,-0.9616938911966156,1.9658076096228414,-11.75059904526054,34.141992914857894
6.017518221417176,-5.190456992959973,-0.9420358151003873,2.3072275387714205,-12.586679957879713,34.605587155698494
5.965613651487576,-5.31632379253877,-0.9189635397126731,2.6532834103284055,-13.235251196728397,34.69496145342026
5.912450413562189,-5.448676304506054,-0.892430705609389,3.000233024862608,-13.479350208012495,34.111621206313266
5.857963650517128,-5.583469806586179,-0.8624283753607629,3.341349236925741,-13.00997844670808,32.428476574749844
5.802128952451266,-5.71356959105326,-0.8290148829915055,3.6656340026732392,-11.438855986688251,29.109773200025604
5.744993256540734,-5.827958150920143,-0.7923585429647731,3.9567317346734954,-8.379359966313638,23.628011077058215
5.686713675031532,-5.911751750583279,-0.7527912256180382,4.193011845444078,-3.6322212410472363,15.728943006202433
5.6275961575257,-5.948073962993751,-0.7108611071635975,4.350301275506102,2.559248177739084,5.79353169122198
5.568115417895762,-5.92248148121636,-0.6673580944085364,4.408236592418322,9.36917849759025,-4.966062543282472
5.508890603083598,-5.828789696240458,-0.6232757284843532,4.358575966985497,15.607388654807265,-14.820865848462564
5.4506027061211935,-5.672715809692385,-0.5796899688144982,4.210367308500872,20.26261125889257,-22.30156302464576
5.39387554802427,-5.470089697103459,-0.5375862957294895,3.9873516782544143,22.942889729570354,-26.828679394229788
5.339174651053235,-5.240660799807755,-0.4977127789469453,3.7190648843121163,23.87025041067626,-28.707986995841825
5.286768043055158,-5.001958295700993,-0.46052213010382415,3.431985014353698,23.56475506496664,-28.68125468390633
5.236748460098148,-4.766310745051326,-0.42620227996028714,3.1451724675146346,22.54713410943532,-27.500207959100216
5.189085352647635,-4.540839403956973,-0.3947505552851408,2.8701703879236327,21.204372789855626,-25.731023723377042
5.143676958608065,-4.328795676058417,-0.3660488514059045,2.6128601506898623,19.778383370191193,-23.73466453774443
5.100389001847481,-4.1310118423565045,-0.3399202498990059,2.375513505312418,18.402010179537033,-21.715994383684535
5.059078883423916,-3.9469917405611343,-0.3161651148458817,2.1583535614755727,17.138740823724184,-19.77937420580895
5.019608966018304,-3.7756043323238924,-0.294581579231126,1.9605598194174831,16.012179105533686,-17.97041765845337
4.981852922695065,-3.6154825412685554,-0.27497598103695114,1.7808556428329494,15.024720513244404,-16.302729418732
4.94569809728238,-3.4652353361361112,-0.25716742460862163,1.6178283486456293,14.168426572759222,-14.773663483323004
4.911045743921019,-3.323551070408519,-0.24098914112216535,1.4700917138123992,13.431014638123813,-13.373140360025323
4.877810233216933,-3.189240924027281,-0.22628822398404136,1.336360310212146,12.799001918757616,-12.088378950950718
4.84591782397666,-3.061250904839705,-0.2129246208819199,1.2154765207026388,12.259261195285095,-10.90631981151584
4.815305314928263,-2.938658292886854,-0.20076985567489353,1.1064133225874804,11.799717745399738,-9.814779533295034
4.785918731999395,-2.820661115432857,-0.18970572244901873,1.00826552725453,11.409596493398936,-8.802925096725595
4.757712120845066,-2.7065651504988675,-0.17962306717647344,0.920236276287274,11.0794435969308,-7.861395130391047
