th1 (rad),w1 (rad/s),th2 (rad),w2 (rad/s)
0.06384020654406682,-2.9162074672605693,4.123764484322429,-1.7183280814373072
0.034678131871461126,-2.882770313857145,4.106581203508056,-1.548945690068931
0.005850428732889677,-2.845076002893451,4.091091746607367,-1.3792270165248668
-0.022600331296044832,-2.803595844019035,4.077299476442118,-1.209657545287645
-0.050636289736235185,-2.75879995817704,4.065202900989242,-1.0406990236637481
-0.07822428931800558,-2.711153240892189,4.054795910752604,-0.8727847057021412
-0.10533582172692747,-2.661111576661349,4.046068063695583,-0.7063151045350958
-0.13194693749354097,-2.6091183810290897,4.039004912650232,-0.5416543438291582
-0.15803812130383188,-2.5556015403467662,4.03358836921194,-0.37912718248857635
-0.18359413670729954,-2.5009708077221293,4.029797097387054,-0.21901676388457283
-0.20860384478452085,-2.445615698371608,4.027606929748209,-0.06156311390567712
-0.23306000176823694,-2.3899039099053057,4.026991298609152,0.09303761650802389
-0.25695904086729,-2.3341802745357363,4.027921674774232,0.24463319657532237
-0.28030084361264734,-2.2787662322661304,4.030368006739986,0.3931147059271112
-0.30308850593530867,-2.223959798025732,4.034299153799257,0.5384153478607987
-0.325328103915566,-2.1700359824041997,4.039683307277865,0.680508778805595
-0.347028463739608,-2.117247615659053,4.0464883950659205,0.8194070566473319
-0.3682009398961985,-2.06582651823415,4.054682465632394,0.95515831432068
-0.38885920507854,-2.015984958021262,4.0642340487756,1.0878442637142254
-0.4090190546587526,-1.9679173346575907,4.075112491412742,1.217577629298051
-0.42869822800532853,-1.921802033741929,4.0872882677057225,1.3444996019723168
-0.4479162483427478,-1.8778033983334608,4.100733263725446,1.4687773924690992
-0.4666942823260824,-1.8360737707959176,4.115421037650137,1.5906019511553677
-0.48505502003404155,-1.7967555643010602,4.13132705716169,1.7101859080572357
-0.5030225756770521,-1.7599833294792722,4.1484289162422625,1.8277617739127996
-0.5206224089718449,-1.7258857872107525,4.16670653398139,1.9435804303697053
-0.5378812668439524,-1.6945878028206203,4.186142338285087,2.0579099251044153
-0.5548271448721587,-1.6662122793935024,4.206721437536132,2.171034575382163
-0.5714892676660936,-1.640881947903719,4.228431783289953,2.283254370790755
-0.5878980871451308,-1.618721028556315,4.251264326997861,2.394884651557779
-0.604085297430694,-1.599856730072468,4.275213173513438,2.5062560214839276
-0.6200838647314186,-1.5844205401253957,4.300275733728277,2.61771443190767
-0.6359280701326726,-1.5725492385966076,4.326452878047354,2.729621342145773
-0.6516535625186387,-1.5643855327044702,4.353749091468812,2.8423538181193875
-0.6672974178456834,-1.5600781649587567,4.382172629650006,2.9563043681362022
-0.682898199495271,-1.559781275061771,4.411735673331368,3.0718802242520113
-0.6984960122458886,-1.5636526965169935,4.4424544755738875,3.1895016469453332
-0.7141325392110586,-1.5718507256743435,4.47434949204334,3.309598642950338
-0.729851046467802,-1.5845286989017329,4.507445478472844,3.4326052179560738
-0.7456963334568193,-1.6018264314902197,4.5417715306524045,3.5589499075402524
-0.7617145977717215,-1.6238571846950047,4.577361029727807,3.6890408048754253
-0.7779531696186716,-1.6506883095333975,4.614251437776561,3.823242594339411
-0.7944600527140055,-1.6823130522486438,4.652483863719955,3.9618421799612795
-0.811283183236492,-1.7186102159631274,4.692102285519568,4.104998385018242
-0.8284692853961232,-1.7592875611661176,4.733152269369751,4.252670026496794
-0.8460621610077844,-1.8038042832439232,4.775678969634719,4.404515815746191
-0.8641002038402237,-1.8512682685105262,4.819724127792181,4.5597598633938325
-0.882612886525329,-1.9003063357964884,4.86532172642612,4.717019748198277
-0.9016159498832939,-1.9489123892977112,4.912491923908103,4.874102980817611
-0.9211050737762709,-1.994292176703485,4.961232953716279,5.027796170486058
-0.9410479955433058,-2.032746608190097,5.01151091542114,5.1737027128736015
-0.9613754616252067,-2.0596668425186992,5.063247942549876,5.306227426886117
-0.9819721300503937,-2.0697413801478186,5.1163102168187375,5.418843674720804
-1.002669543851872,-2.0574687269897005,5.170498653565946,5.504769727265792
-1.023244231121769,-2.01798851075066,5.225546350838604,5.558071260157895
-1.0434241162292757,-1.9480758083065228,5.281127063440183,5.574977762209998
-1.0629048743123408,-1.8469600385061016,5.336876841062282,5.554952069524877
-1.0813744746974019,-1.7165902834621694,5.392426361757531,5.501002820019842
-1.0985403775320235,-1.5611826675170537,5.44743638995773,5.419026918955362
-1.114152204207194,-1.386242277169379,5.501626659147283,5.316457251271168
-1.1280146269788878,-1.197480448160668,5.554791231659995,5.200795538771409
-1.1399894314604944,-0.9999960807434564,5.606799187047709,5.078527998008531
-1.149989392267929,-0.797862647004871,5.657584467027795,4.954604579012088
-1.1579680187379777,-0.5940605155101004,5.7071305128179155,4.832387286643634
-1.1639086238930787,-0.39061322096435763,5.755454385684351,4.71386771094434
-1.1678147561027223,-0.18880088990732738,5.802593062793795,4.599979180663078
-1.1697027650017957,0.01062721464878294,5.848592854600426,4.4908987578920145
-1.169596492855308,0.20727562188237275,5.893501842179346,4.3862947079713965
-1.1675237366364843,0.4009690592727664,5.93736478925906,4.285511221306306
-1.1635140460437567,0.5916579852791614,5.980219901472124,4.187698406673342
-1.1575974661909652,0.7793550108276165,6.022096885538857,4.091900226771528
-1.149803916082689,0.9640940631350089,6.063015887806572,3.997112397651763
-1.140162975451339,1.1459056428068006,6.10298701178309,3.9023198556715295
-1.1287039190232708,1.3248032244272603,6.142010210339805,3.806520821489613
-1.1154558867789983,1.5007773004424798,6.1800754185547015,3.7087423375169464
-1.1004481137745734,1.6737946654323719,6.217162841929871,3.60805053138407
-1.0837101671202496,1.8438013154969328,6.2532433472437114,3.503557697372902
-1.0652721539652803,2.0107278653634495,6.28827892421744,3.3944274823760825
-1.0451648753116458,2.1744967325793336,6.3222231990412014,3.2798789131106645
-1.0234199079858526,2.3350305593548333,6.355021988172308,3.159189629678205
-1.0000696023923044,2.492261479675102,6.3866138844690905,3.0316984420447706
-0.9751469875955533,2.646140921813395,6.416930868889538,2.8968071634409975
-0.9486855783774193,2.7966496849837528,6.445898940523948,2.753981574027622
-0.9207190815275818,2.943808057604434,6.473438756264224,2.6027513146170635
-0.8912810009515374,3.087685762570525,6.499466269410395,2.442708495322824
-0.8604041433258321,3.2284115271171085,6.523893354363624,2.2735048237790907
-0.828120028054661,3.36618208270452,6.5466284026014145,2.0948471116796794
-0.7944582072276158,3.5012704014319413,6.567576873718211,1.9064911100305144
-0.7594455032132964,3.6340329626799175,6.586641784818516,1.7082337604009423
-0.7231051735864973,3.764915803651589,6.603724122422525,1.4999041460146076
-0.6854560155499814,3.894459017962965,6.618723163882671,1.2813537078144925
-0.6465114253703517,4.023299191903736,6.631536700960816,1.0524466988582322
-0.6062784334513143,4.152168952834735,6.642061167949398,0.8130524549486764
-0.5647567439229669,4.281892262233362,6.650191692498885,0.5630419720647514
-0.5219378213006333,4.413373185210419,6.655822112219533,0.30229267770200513
-0.4778040894485291,4.547574411163652,6.658845038996553,0.030707431205388713
-0.43232834533689257,4.6854795022731635,6.659152113308607,-0.2517429255013417
-0.3854735503141609,4.828029331898499,6.656634684053593,-0.54493921128312
-0.33719325699517594,4.9760180362986155,6.651185291940761,-0.8484743660188312
-0.28743307663218975,5.129926853272302,6.6427005482805725,-1.161423837967357
-0.23613380809946674,5.289666223880864,6.631086309900899,-1.4819842882181276
-0.1832371458606581,5.4541909745495945,6.616266467018718,-1.806932165035839
-0.12869523611516215,5.620960106542591,6.59819714536836,-2.130864867405716
-0.07248563504973624,5.785253496729005,6.576888496694303,-2.445247428234845
-0.014633100082446192,5.939469779657476,6.552436022411954,-2.737449379884262
0.04476159771412857,6.072748463379797,6.5250615286131115,-2.9902692951423546
0.10548908234792653,6.171543465194826,6.495158835661688,-3.1828472702365462
0.1672045169998748,6.2218578727807925,6.463330362959323,-3.293976016186281
0.2294230957276827,6.2132101039503675,6.43039060279746,-3.307897194070755
0.2915551967671864,6.142853859538504,6.397311630856753,-3.220449089534246
0.35298373536257144,6.017542697840662,6.3651071399614105,-3.041663899640326
0.41315916234097805,5.851246486048897,6.334690500965007,-2.7925028268731245
0.47167162720146705,5.66028365667764,6.306765472696276,-2.4977998721437404
0.5282744637682435,5.458963231159974,6.2817874739748385,-2.1798583916883105
0.5828640960798432,5.257530882279039,6.259988890057955,-1.855324706107433
0.6354394049026336,5.06215570325055,6.241435642996881,-1.5350169665340492
0.6860609619351391,4.87587366485271,6.2260854733315405,-1.225180053067353
0.7348196985836662,4.6996601395313355,6.213833672800867,-0.9289750712837243
0.7818162999789796,4.533280753327714,6.204543922088029,-0.6476837429903703
0.8271491075122568,4.375865602558821,6.198067084658126,-0.3815330924260227
0.870907763537845,4.226262235600724,6.194251753733866,-0.1302093566643499
0.9131703858938522,4.083239018436814,6.192949660167223,0.10684185671273294
0.9540027760782204,3.945595712007555,6.19401807873435,0.3302501552002829
0.9934587331982959,3.8122194380336074,6.197320580286354,0.5406356408165978
1.031580927578632,3.682109675886926,6.2027269366945195,0.7385707963342403
1.0684020243375014,3.5543862629408864,6.210112644657862,0.9245683876966668
1.1039458869669103,3.428288399615265,6.219358328534828,1.0990832480182924
1.138228770963063,3.3031691217232217,6.2303491610150115,1.2625209049726125
1.1712604621802951,3.1784876601298637,6.242974370064737,1.4152490236058717
1.2030453387815938,3.0538009534645543,6.257126860300796,1.5576093974091445
1.2335833483162393,2.928754942353298,6.272702954274888,1.6899292471815635
1.2628708977397722,2.8030759331090387,6.289602246746703,1.8125311868265903
1.2909016570708627,2.676562146321605,6.307727558614969,1.9257415673108973
1.3176672785340788,2.549075486616512,6.326984974288078,2.029897118469437
1.343158033400244,2.420533540787269,6.347283945472773,2.1253499328184735
1.3673633688081166,2.290901807644461,6.368537444800958,2.2124709101046287
1.3902723868845612,2.160186170038802,6.390662153902004,2.291651825346952
1.4118742485849491,2.0284256296462084,6.413578672155474,2.363306207644501
1.4321585048814112,1.8956853340077229,6.437211734231918,2.427869228363096
1.4511153582214884,1.762049930974648,6.4614904265155495,2.4857967992413217
1.4687358575312348,1.6276172874327461,6.486348394507963,2.537564075840099
1.4850120304055623,1.4924926070785385,6.511724035266364,2.583663551246664
1.4999369564763476,1.3567829766671267,6.537560670778831,2.6246029102955246
1.5135047862430189,1.220592362365934,6.563806699881786,2.6609027968323975
1.5257107098666782,1.0840170685680564,6.59041572785011,2.6930946266130817
1.5365508805523589,0.9471416617092943,6.617346674116241,2.7217185570336273
1.546022297169452,0.8100353522477624,6.644563859686577,2.747321702579024
1.5541226506919297,0.6727488199325499,6.672037076712367,2.7704566619602473
1.5608501388912552,0.5353114617307423,6.699741643331969,2.791680399374207
1.5662032535085626,0.39772903926862835,6.7276584473257115,2.8115534977509284
1.5701805439012488,0.2599817044757695,6.755773982303221,2.830639775301145
1.5727803609460065,0.12202238966946702,6.784080380056232,2.8495062265053543
1.5740005848427012,-0.016224436592765623,6.812575442321286,2.8687232123277897
1.5738383404767735,-0.1548636213928901,6.841262674444564,2.8888647780841685
1.5722897042628445,-0.2940297217018647,6.870151322225405,2.910508915533422
1.5693494070458258,-0.433886817945769,6.8992564113807395,2.934237500590605
1.5650105388663682,-0.5746275400623959,6.928598786386646,2.9606355186698985
1.5592642634657443,-0.7164709793116768,6.958205141573345,2.990289021130444
1.5520995536726276,-0.8596589895154547,6.988108031784649,3.0237810186995366
1.543502963777473,-1.0044501447319916,7.0183458419716445,3.061684185648175
1.5334584623301533,-1.151110295966549,7.048962683828126,3.1045487917729884
1.5219473593704878,-1.2998982365916263,7.080008171745856,3.152883667428671
1.5089483770045715,-1.4510444323270972,7.111537008420143,3.20712722113927
1.4944379326813007,-1.6047201124195878,7.143608280631535,3.267604589910184
1.4783907315571048,-1.7609933370054571,7.176284326530637,3.3344660242954194
1.4607807981870502,-1.919768174885362,7.209628986773591,3.4076009064978092
1.4415831164381965,-2.0807033298304716,7.243704995838569,3.4865220511447133
1.4207760831398917,-2.243108350743836,7.278570216350016,3.5702174275085117
1.3983449996324533,-2.4058204296479553,7.314272390625101,3.6569732611071912
1.3742867953359736,-2.567074683162824,7.350842123236173,3.7441863958032005
1.3486160485043455,-2.724397314704067,7.388283987194205,3.828207109485336
1.3213720753573048,-2.8745730476836666,7.426566058289058,3.9042847833659517
1.2926263448804682,-3.01375771987919,7.465608906122718,3.9667167832272185
1.2624887676816763,-3.137805314879739,7.50527607395499,4.009299461928206
1.2311107145328788,-3.24283070306689,7.5453690685742725,4.0261136476142285
1.19868240750221,-3.325924421031899,7.585630205050415,4.012530074927461
1.165423163291891,-3.3858116126687974,7.62575550579969,3.9661452648366224
1.131565047165203,-3.4231953205420416,7.6654169584480565,3.8872835520255897
1.0973330939597825,-3.4406226405593068,7.704289793968313,3.77883620571192
1.0629268675541894,-3.4419259998370424,7.742078156025432,3.645506223126291
1.028507607555819,-3.431474436662384,7.778533218256695,3.4927830412069536
0.9941928631891952,-3.4134999213560495,7.813461048668764,3.326015232263008
0.9600578639756348,-3.391656520012001,7.846721200991395,3.149801457206618
0.9261412987755148,-3.368832210694458,7.878219215563461,2.967728738190205
0.8924529766685702,-3.347147800390457,7.907896502945363,2.782368573896277
0.8589814986646656,-3.3280577872677672,7.935720188684326,2.595413970296161
0.8257009207919879,-3.312486423878027,7.9616743283872875,2.4078656870779285
0.7925760565532076,-3.300959763828491,7.985752985258067,2.2202138725321565
0.7595664589149227,-3.2937164066761246,8.007955123983388,2.032591420457826
0.7266292948481614,-3.2907928361852172,8.028281038187966,1.8448934754441115
0.6937213664863092,-3.2920855544876346,8.046729972942407,1.6568661407075598
0.6608005109414329,-3.2973944005253086,8.063298634349483,1.4681704046398198
0.6278265669361798,-3.3064515903327667,8.07798033839588,1.2784274704240381
0.5947620510328521,-3.3189403618643234,8.09076461310012,1.0872507410307217
0.5615726474142089,-3.3345062649994706,8.101637120510427,0.894268524095294
0.5282275847642142,-3.352763368126627,8.11057980575138,0.6991404317690999
0.4946999510829479,-3.3732970373885554,8.117571210069071,0.5015695688619908
0.46096698070906234,-3.3956644860303196,8.122586905757691,0.3013119313650131
0.42701033584875914,-3.419393964070109,8.125600025071341,0.09818394242198306
0.392816396208058,-3.443983231892478,8.126581864495561,-0.10793130684827554
0.35837656388913325,-3.468897807540525,8.12550255142708,-0.31707880428892976
0.32368758581372803,-3.493569374019262,8.12233176338419,-0.5292272318135516
0.2887518920735354,-3.5173946625994743,8.117039491066055,-0.7442654642443784
0.25357794544754064,-3.5397350780250427,8.109596836423611,-0.9620000630702987
0.21818059466729023,-3.5599172921172437,8.099976835792909,-1.1821539408046464
0.1825814217461178,-3.5772349965372774,8.088155296384862,-1.4043664100498776
0.14680907178074504,-3.590951968412954,8.074111632284364,-1.6281948467391516
0.1108995520966155,-3.600306560780814,8.057829683816973,-1.8531181912088923
0.07489648648880737,-3.604517681338813,8.039298501904884,-2.078542485266026
0.038851309675419235,-3.6027922670345283,8.018513077052225,-2.3038085998912434
0.002823387005073952,-3.594334198744523,7.995474991053312,-2.528202248762408
-0.03311995498237128,-3.5783545308094737,7.970192968565688,-2.750966310075338
-0.06890350029046602,-3.5540828362499997,7.942683305464935,-2.971315396440056
-0.10444432865296602,-3.520779392416008,7.912970151500534,-3.188452523658259
-0.1396521225771261,-3.477747856368259,7.8810856262639515,-3.4015876379872503
-0.1744296011408087,-3.4243480075955914,7.847069749884079,-3.6099576723487203
-0.2086730812167646,-3.360008071287998,7.810970173160592,-3.8128477193740684
-0.24227316192964457,-3.28423608233249,7.772841695966851,-4.009612838074147
-0.27511552275296947,-3.196629712966354,7.732745567586109,-4.19969995668245
-0.307081819882633,-3.0968839704385323,7.690748568019285,-4.382669302874339
-0.3380506595870183,-2.984796179878674,7.646921874990542,-4.558214790671095
-0.36789862138580504,-2.8602677059182895,7.601339727083831,-4.726182827569854
-0.39650129844498794,-2.7233019368504863,7.554077898808132,-4.886589081776044
-0.4237343178134928,-2.57399815693547,7.505212007990372,-5.039632871986024
-0.4494742993828475,-2.4125410619118357,7.454815679270512,-5.185709011942576
-0.4735997100019659,-2.2391858218672755,7.402958589151086,-5.325417155540911
-0.4959915682206386,-2.0542387527537063,7.349704417595677,-5.45956893688844
-0.5165339557481756,-1.8580338093798587,7.295108728226793,-5.589193468956393
-0.5351142938419742,-1.6509052460358462,7.239216793537229,-5.7155420338047
-0.5516233463023327,-1.4331568989878853,7.182061373199182,-5.840093039358589
-0.5659549152922115,-1.2050286333798965,7.123660442805596,-5.964558494769817
-0.5780052016260105,-0.9666605938062391,7.064014857857898,-6.090893312339342
-0.5876718075640729,-0.7180560706757185,7.003105924734505,-6.221308585168394
-0.5948523682708301,-0.4590441800219142,6.940892838882821,-6.358289446243072
-0.5994428100710493,-0.18924441229262562,6.87730994442039,-6.504616864406069
-0.6013352541939755,0.0919630790627105,6.812263775776329,-6.663390155866812
-0.6004156234033484,0.38545390312510724,6.745629874217661,-6.838041895754163
-0.5965610843720973,0.6923478178578757,6.677249455260119,-7.032327039451829
-0.5896376061935186,1.013940534462708,6.606926184865601,-7.250249199232955
-0.5794982008488915,1.3515246736940303,6.534423692873271,-7.495851668922152
-0.5659829541119512,1.7059993909821134,6.459465176184049,-7.772736752553252
-0.54892296020213,2.0770908296457353,6.381737808658517,-8.083068584920621
-0.5281520519056727,2.4618952608106106,6.300907122809311,-8.425657415994237
-0.5035330992975666,2.852364739337615,6.216650548649368,-8.792584376965713
-0.47500945190419047,3.231512530235075,6.128724704879711,-9.164019838728652
-0.4426943266018397,3.5691577063097997,6.037084506492425,-9.502292793799391
-0.4070027495387417,3.8208737619059754,5.942061578554431,-9.75016786299993
-0.368794011919682,3.9374156195850665,5.844559899924431,-9.843282151187248
-0.3294198557238313,3.888395981878985,5.746127078412559,-9.741944502791664
-0.2905358959050415,3.685227325988152,5.648707633384642,-9.461832932750365
-0.25368362264516,3.376764191834497,5.554089304057139,-9.067550557553945
-0.219915980726815,3.019932018105564,5.463413798481599,-8.632812451276472
-0.18971666054575936,2.6562495709752696,5.377085673968835,-8.209501239153095
-0.16315416483600667,2.307788574492751,5.2949906615773035,-7.8232289308029745
-0.14007627909107917,1.983148032488571,5.216758372269274,-7.481995491589519
-0.12024479876619346,1.6838419427933868,5.141938417353378,-7.184948060963508
-0.10340637933825958,1.4083132033636308,5.070088936743743,-6.927709123665725
-0.08932324730462327,1.153975771488332,5.000811845507086,-6.704985317793944
-0.07778348958973995,0.9181314333129604,4.9337619923291465,-6.511669956859747
-0.06860217525661035,0.6983325277600938,4.868645292760549,-6.3432283316244815
-0.061618849979009405,0.4924932069804544,4.805213009444304,-6.195772702127306
-0.05669391790920486,0.2988944450717529,4.743255282423031,-6.066016745355864
-0.053704973458487335,0.11614891616087242,4.682595114969472,-5.9511926687652235
