th1 (rad),w1 (rad/s),th2 (rad),w2 (rad/s),a1 (rad/s^2),a2 (rad/s^2)
0.37901131275061467,2.83128697001824,4.677178279910771,-2.2376299646157305,-2.6878306833438463,16.050388117799283
0.40732418245079705,2.8044086631848013,4.6548019802646134,-2.077126083437738,-2.2695093993180238,15.79619399320537
0.43536826908264503,2.7817135691916213,4.634030719430236,-1.919164143505684,-1.9112740841062426,15.569791710278121
0.46318540477456127,2.7626008283505588,4.614839077995179,-1.7634662264029028,-1.6111967479530303,15.359796904290683
0.49081141305806686,2.7464888608710285,4.5972044157311505,-1.609868257359996,-1.3679854178798962,15.155905279312933
0.5182763016667772,2.7328090066922295,4.581105733157551,-1.4583092045668666,-1.1807447534537208,14.948850732405832
0.5456043917336995,2.7210015591576924,4.566522641111882,-1.3088206972428083,-1.0487568836537258,14.730417789702287
0.5728144073252763,2.710513990321155,4.5534344341394535,-1.1615165193457853,-0.9712823293286771,14.493492426781618
0.5999195472284878,2.700801167027868,4.5418192689459955,-1.016581595077969,-0.9473833271233812,14.232135109514388
0.6269275588987665,2.6913273337566346,4.531653452995216,-0.8742602439828252,-0.9757735661986783,13.94165982991077
0.6538408322363328,2.6815695980946477,4.522910850555387,-0.7348436456837175,-1.0546991571247966,13.618703433131222
0.6806565282172793,2.6710226065233997,4.51556241409855,-0.5986566113524053,-1.1818554970713764,13.261270953118956
0.7073667542825133,2.659204051552686,4.509575847985026,-0.4660439018212158,-1.354343592590381,12.868745158069608
0.7339587947980402,2.6456606156267823,4.504915408966814,-0.33735645024051975,-1.5686674820254904,12.441852020547627
0.760415400954308,2.6299739408065275,4.501541844464408,-0.21293793003504347,-1.820771911581717,11.982578133243372
0.7867151403623733,2.6117662216907105,4.499412465164058,-0.09311214870260974,-2.1061167008184656,11.494040779180128
0.8128328025792805,2.590705054682526,4.498481343677032,0.021828259089191546,-2.4197816643733594,10.980315918867225
0.8387398531261058,2.5665072380387923,4.498699626267924,0.1316314182778638,-2.7565938946761768,10.446233249745397
0.8644049255064937,2.5389412990920306,4.5000159404507025,0.23609375077531775,-3.1112679292747982,9.89715028538685
0.8897943384974141,2.5078286197992825,4.502376877958456,0.33506525362918627,-3.4785489715793854,9.338718818931552
0.9148726246954069,2.4730431300834885,4.505727530494748,0.4284524418185018,-3.853349904261637,8.776657110176446
0.9396030559962417,2.4345096310408723,4.5100120549129326,0.5162190129202663,-4.230874194738743,8.216539806473902
0.9639481523066504,2.392200889093485,4.515174245042135,0.5983844109850053,-4.606718709092462,7.663615274555314
0.9878701611975853,2.34613370200256,4.521158089151985,0.6750205637305584,-4.976952644522303,7.122657078370396
1.011331498217611,2.296364175557337,4.527908294789291,0.7462471345142624,-5.33817098586647,6.597853200666141
1.0342951399731843,2.2429824656986725,4.535370766134434,0.8122256665209238,-5.687522860073979,6.092733639947494
1.056724964630171,2.1861072370979326,4.543493022799643,0.8731530029203987,-6.022716746518366,5.610134494527659
1.0785860370011504,2.125880069632749,4.5522245528288465,0.9292543478656753,-6.342005622353932,5.152194735163876
1.0998448376974779,2.0624600134092095,4.561517096307504,0.980776295217314,-6.644155773869761,4.720380622850615
1.12046943783157,1.9960184556705118,4.5713248592596765,1.02798010144582,-6.92840323473033,4.315532115726213
1.1404296223882753,1.9267344233232087,4.5816046602741345,1.0711354226030823,-7.194401701782368,3.9379255348323867
1.1596969666215073,1.854790406305385,4.592316014500165,1.1105146779514061,-7.442165424689158,3.587347096399888
1.1782448706845612,1.7803687520584934,4.603421161279679,1.146388148915405,-7.672010061480578,3.263172534347622
1.196048558205146,1.7036486514436877,4.614885042768833,1.1790198742588813,-7.884493920626217,2.964448806735437
1.213085044719583,1.6248037122374255,4.626675241511422,1.2086643623262356,-8.080361436401025,2.6899747007167796
1.2293330818419572,1.5440000978734152,4.638761885134684,1.2355641093334033,-8.260490194189556,2.4383779440475544
1.2447730828206913,1.4613951959315197,4.651117526228019,1.2599478887738789,-8.425842364551778,2.2081871445125194
1.2593870347800065,1.377136772286002,4.663717005115758,1.282029760219004,-8.577421033406994,1.9978974809598833
1.2731584025028664,1.291362561951932,4.676537302717947,1.302008735028603,-8.716231633601584,1.8060295480104662
1.2860720281223856,1.2042002456159162,4.6895573900682335,1.3200690305087075,-8.843248485755254,1.6311811111135288
1.2981140305785448,1.1157677607583636,4.702758080373321,1.3363808416198428,-8.959386334142572,1.4720717686239069
1.3092717081861285,1.0261738974169379,4.716121888789519,1.351101559306082,-9.06547670430892,1.3275806577257772
1.319533447160298,0.9355191303738487,4.729632904382579,1.3643773658833398,-9.162248899834397,1.1967773991526236
1.3288886384640364,0.8438966413755047,4.743276678041412,1.376345139874866,-9.250315482619026,1.0789464709524548
1.3373276048777913,0.7513934865493144,4.757040129440161,1.3871346045843906,-9.330162131049418,0.9736051535509657
1.3448415397432845,0.6580918652388201,4.770911475486004,1.3968706561199002,-9.402141830763817,0.8805151163357248
1.3514224583956727,0.5640704469311819,4.784880182047203,1.4056758072832576,-9.466473411499699,0.7996876385664704
1.3570631628649845,0.46940571281618493,4.798936940120036,1.4136726836689222,-9.52324448955829,0.7313823923516238
1.3617572199931465,0.374173267920602,4.813073666956726,1.4209865075924384,-9.572418898682143,0.6760996791829252
1.3654989526723524,0.27844907893378057,4.82728353203265,1.4277475043842676,-9.613848683981896,0.6345660187014224
1.3682834434616902,0.1823105920939616,4.841561007076493,1.4340931645712818,-9.647290687317653,0.6077130509229433
1.3701065493826299,0.08583768522078507,4.855901938722205,1.4401702950805113,-9.672427664270746,0.596649839303742
1.3709649262348378,-0.010886591421922387,4.8703036416730106,1.4461367934735487,-9.688893742012098,0.6026288550784862
1.3708560603206186,-0.10777552884204337,4.884765009607746,1.4521630820243336,-9.696303857634168,0.6270061804439891
1.369778305032198,-0.20473856741838506,4.89928664042799,1.4584331438287734,-9.694286616208409,0.6711967795128286
1.3677309193580143,-0.30168143358046917,4.913870971866277,1.4651451116239018,-9.682519790155844,0.7366260341034109
1.3647141050222096,-0.3985066314820276,4.928522422982517,1.4725113719649359,-9.66076746415477,0.8246791016878814
1.3607290387073894,-0.49511430612357527,4.943247536702166,1.4807581629818147,-9.628917633920041,0.9366499944772786
1.3557778956461537,-0.5914034824627756,4.958055118331984,1.4901246629265874,-9.587018915759831,1.0736925672127475
1.3498638608215259,-0.687273671620374,4.97295636496125,1.5008615885987149,-9.535314939428604,1.2367758017665451
1.342991124105322,-0.7826268210146601,4.987964980847237,1.5132293466163804,-9.4742749990308,1.4266458575949172
1.3351648558951754,-0.877369571004968,5.003097274313401,1.5274958051923295,-9.404619639538836,1.6437972945765926
1.3263911601851257,-0.9714157674003564,5.018372232365324,1.5439337781380955,-9.327340065904066,1.8884556566023127
1.316677002511122,-1.064689168059397,5.033811570146705,1.5628183347041187,-9.24371057433352,2.1605732329151506
1.3060301108305281,-1.1571262738027324,5.049439753493746,1.58442406703327,-9.155293607720914,2.4598393083315084
1.2944588480925008,-1.2486792098799415,5.065283994164079,1.6090224601165852,-9.063937506961487,2.7857056077157405
1.2819720559937013,-1.3393185849495564,5.081374218765245,1.6368795161937426,-8.97176753737199,3.1374269826826064
1.2685788701442058,-1.4290362603232762,5.097743013927182,1.6682537860205686,-8.881171281166534,3.5141167372402227
1.254288507540973,-1.5178479731349417,5.114425551787388,1.7033949533929709,-8.794779969299775,3.9148154058835805
1.2391100278096236,-1.6057957728279395,5.131459501321317,1.7425431074518067,-8.71544774936087,4.338571342596258
1.2230520700813443,-1.6929502503215481,5.148884932395835,1.7859288208777693,-8.646231228740024,4.784531204893055
1.2061225675781289,-1.7794125626089483,5.166744220604612,1.8337741329266999,-8.590371882967409,5.252038363923284
1.1883284419520395,-1.8653162814386224,5.1850819619338795,1.8862945165659328,-8.551284079690944,5.740737465377348
1.1696752791376532,-1.9508291222355318,5.2039449070995385,1.9437018912197064,-8.53255155445241,6.250683816722423
1.1501669879152978,-2.036154637780056,5.223381926011736,2.0062087293869304,-8.537935213451696,6.782456980761998
1.1298054415374972,-2.121533989914573,5.243444013305605,2.0740332991945505,-8.571395170490193,7.337278900590119
1.1085901016383515,-2.207247941619475,5.26418434629755,2.1474060882004515,-8.63712999898056,7.91713804931295
1.0865176222221566,-2.2936192416092807,5.285658407179555,2.226577468693581,-8.739636350257262,8.524922473751342
1.0635814298060637,-2.381015605111853,5.307924181866491,2.3118266934310947,-8.883792414245384,9.164566176033386
1.0397712737549452,-2.469853529254307,5.331042448800802,2.4034723551914285,-9.0749692341996,9.841215051617457
1.015072738462402,-2.560603221596303,5.355077172352717,2.5018845057076033,-9.319174681817318,10.5614205850054
0.9894667062464391,-2.653794968414476,5.380096017409793,2.6074987115576573,-9.623235979796132,11.333371697091513
0.9629287565622943,-2.7500273282124374,5.406171004525369,2.7208324285285723,-9.995028006654557,12.167177502517728
0.9354284832801699,-2.849977608278983,5.433379328810655,2.8425042035537498,-10.443756114890132,13.075216119391122
0.9069287071973801,-2.9544151694278846,5.461804370846192,2.973256364747661,-10.980303511536208,14.072566657946716
0.8773845555031012,-3.0642182045432467,5.491536934493668,3.1139820313271285,-11.617653631529302,15.177542100347466
0.8467423734576688,-3.1803947408585396,5.522676754806939,3.265757452330603,-12.37139573347831,16.412337757566085
0.8149384260490834,-3.3041086981933225,5.555334329330245,3.429880829906264,-13.260313702580046,17.80379863092816
0.7818973390671502,-3.436711835219123,5.589633137629308,3.6079188162155456,-14.307036578843658,19.384279445048843
0.747530220714959,-3.5797822010075597,5.625712325791463,3.801761610666034,-15.538679851133326,21.192502907976717
0.7117323987048834,-3.735168999518893,5.663729941898124,4.013686639745801,-16.987298664727643,23.27417270109407
0.6743807087096945,-3.9050419861661694,5.703866808295582,4.246428366756742,-18.689745379485828,25.681780964106228
0.6353302888480328,-4.091939439961028,5.74633109196315,4.503246176397805,-20.68604694032847,28.472387835369336
0.5944108944484225,-4.2987999093643126,5.791363553727128,4.787970054751498,-23.014435710477887,31.70078422623041
0.5514228953547794,-4.528944266469091,5.839243254274643,5.104977897013802,-25.69918247826983,35.402680171901636
0.5061334526900885,-4.78593609125179,5.890293033244781,5.4590046987328185,-28.723505501258185,39.557143549895876
0.45827409177757056,-5.073171146264372,5.944883080232109,5.8545761342317775,-31.9728323183081,44.007706332043476
0.40754238031492684,-5.392899469447452,6.003428841574427,6.294653197552212,-35.12336181016575,48.307023599938795
0.3536133856204523,-5.74413308754911,6.066375373549949,6.7777234335516,-37.44493640846965,51.44145428845793
0.2961720547449612,-6.118582451633807,6.134152607885465,7.292137976436179,-37.524689349108975,51.44398890865783
0.23498623022862314,-6.4938293451248965,6.207073987649827,7.806577865522757,-33.11361880924479,45.177613013044784
0.17004793677737418,-6.824965533217345,6.285139766305055,8.258353995653206,-21.781636941560993,29.24848227550607
0.10179828144520073,-7.042781902632955,6.3677233062615874,8.550838818408266,-3.2813699622851193,3.309476152768126
0.031370462418871176,-7.075595602255806,6.4532316944456705,8.583933579935948,17.72847351211565,-26.137161142459775
-0.039385493603686886,-6.89831086713465,6.53907103024503,8.32256196851135,33.69591791393187,-48.56576786434035
-0.10836860227503338,-6.561351687995331,6.622296649930144,7.836904289867946,40.79066574158998,-58.66249108805758
-0.17398211915498668,-6.153445030579431,6.7006656928288235,7.25027937898737,40.83275288537904,-58.98236740249003
-0.23551656946078098,-5.745117501725641,6.773168486618697,6.6604557049624695,37.3848988467668,-54.48221139849512
-0.2929677444780374,-5.371268513257973,6.839773043668322,6.115633590977518,32.911726340926805,-48.575804088720496
-0.3466804296106171,-5.042151249848705,6.9009293795780975,5.629875550090313,28.560189540282025,-42.843152222191655
-0.39710194210910416,-4.756549354445885,6.957228135079001,5.201444027868397,24.724401787076435,-37.82149085905294
-0.444667435653563,-4.50930533657512,7.0092425753576855,4.823229119277867,21.471635520805812,-33.59747897285842
-0.4897604890193142,-4.294588981367062,7.057474866550464,4.487254329549283,18.75187401960951,-30.097100173188963
-0.5327063788329848,-4.107070241170967,7.102347409845957,4.186283327817393,16.48468179275771,-27.205221087139666
-0.5737770812446944,-3.94222342324339,7.144210243124131,3.9142311169459965,14.59115492295691,-24.809244336287655
-0.6131993154771282,-3.7963118740138206,7.183352554293591,3.66613867358312,13.003668651200774,-22.81223335301358
-0.6511624342172665,-3.666275187501813,7.220013941029422,3.438016340052984,11.667302446404284,-21.134679741654857
-0.6878251860922846,-3.54960216303777,7.254394104429952,3.2266695426364356,10.538491609348442,-19.712542666579132
-0.7233212077226623,-3.4442172469442855,7.286660799856317,3.029544115970644,9.58301906229484,-18.49444978754632
-0.7577633801921051,-3.348387056321337,7.316956241016023,2.844599618095181,8.774090838141833,-17.43906718976972
-0.7912472507553184,-3.260646147939919,7.345402237196975,2.6702089461974836,8.090708807458544,-16.512921640508967
-0.8238537122347176,-3.1797390598653337,7.37210432665895,2.505079729792394,7.516360212823587,-15.688695230498329
-0.855651102833371,-3.1045754577370976,7.397155123956874,2.3481927774874105,7.037981572509953,-14.943928898580392
-0.886696857410742,-3.034195642011998,7.420637051731748,2.1987534885016067,6.645142460945791,-14.26005498846819
-0.9170388138308619,-2.96774421740254,7.442624586616764,2.0561529386169246,6.329399939775328,-13.621685373280025
-0.9467162560048874,-2.904450218004787,7.463186116002934,1.9199360848841243,6.0837843263925695,-13.016093763676128
-0.9757607581849352,-2.8436123747408613,7.482385476851775,1.7897751472473629,5.902386889371582,-12.432842556774489
-1.004196881932344,-2.7845885058471453,7.500283228324248,1.665446721679618,5.7800284513652835,-11.863514295722885
-1.0320427669908154,-2.7267882213334924,7.516937695541044,1.5468115787223893,5.711994443787708,-11.301515436249103
-1.0593106492041504,-2.6696682768956155,7.5324058113282675,1.4337964243598982,5.693826780635861,-10.741926133419588
-1.0860073319731065,-2.612730009089257,7.5467437755718665,1.3263771630257022,5.721166199311526,-10.181374738241741
-1.112134632063999,-2.555518347096142,7.560007547202123,1.2245634156432847,5.789640672788254,-9.617920114295075
-1.1376898155349604,-2.4976219403682594,7.5722531813585565,1.128384214500334,5.894796354188582,-9.050929081373315
-1.162666034938643,-2.4386739768263737,7.58353702350356,1.037874923686601,6.032067509639668,-8.480940426474215
-1.1870527747069068,-2.378353301729977,7.593915772740425,0.9530655194218588,6.19678128601851,-7.909510990228151
-1.2108363077242066,-2.316385488869792,7.603446427934644,0.8739704095195773,6.38419222014587,-7.339043205522767
-1.2340001626129045,-2.2525435666683333,7.61218613202984,0.8005799774643496,6.5895403967984505,-6.772596918238359
-1.2565255982795878,-2.1866481627003487,7.6201919318044835,0.732854008281966,6.808126349005987,-6.213691116921683
-1.2783920799065913,-2.118566899210289,7.627520471887303,0.6707170971127492,7.035395355265221,-5.666103132732115
-1.2995777488986942,-2.0482129456576366,7.634227642858431,0.614056065785428,7.267023838003563,-5.13367381966519
-1.3200598783552706,-1.9755427072776008,7.640368203516285,0.5627193275887762,7.4990011330311965,-4.620127175588703
-1.3398153054280466,-1.900552695947289,7.6459953967921725,0.5165180558328891,7.727700926090541,-4.128911919953106
-1.3588208323875195,-1.8232756866863835,7.651160577350502,0.4752289366333581,7.94993802090402,-3.663070903419312
-1.3770535892543834,-1.7437763064773433,7.655912866716835,0.43859822759916495,8.163007656423444,-3.225142148093849
-1.3944913523191569,-1.662146229913109,7.660298848992826,0.40634680611822643,8.36470616370659,-2.817093082481844
-1.411112814618288,-1.578499168276043,7.6643623170540085,0.378175875293408,8.553333196719068,-2.4402873979835293
-1.4268978063010485,-1.4929658363088523,7.668144075806943,0.3537730013135727,8.72767697394864,-2.0954821158473877
-1.441827464664137,-1.4056890665693658,7.671681805820079,0.33281818015509884,8.886984861558446,-1.782851046882128
-1.4558843553298306,-1.3168192179537812,7.67500998762163,0.31498966968627756,9.030922191572172,-1.502029909760761
-1.4690525475093685,-1.2265099960380594,7.678159884318493,0.29996937058866996,9.15952245645109,-1.2521779415383498
-1.4813176474697491,-1.1349147714735486,7.6811595780243795,0.28744759117328644,9.273131998451362,-1.0320508309591414
-1.4926667951844845,-1.042183451489035,7.684034053936112,0.27712708286369503,9.372352078540455,-0.8400801452476279
-1.5030886296993748,-0.9484599307036303,7.686805324764749,0.26872628141121874,9.457980831023082,-0.6744550049309919
-1.5125732290064111,-0.8538801223933995,7.689492587578862,0.26198173136190883,9.53095714901942,-0.533202490289981
-1.5211120302303451,-0.7585705509032052,7.69211240489248,0.25664970645900903,9.592308056643832,-0.4142640497050994
-1.5286977357393772,-0.662647470336767,7.6946789019570705,0.25250706596195804,9.643100648794338,-0.3155659536214109
-1.535324210442745,-0.5662164638488236,7.69720397261669,0.24935140642574394,9.684399249362562,-0.23508254613194465
-1.5409863750812332,-0.469372471355198,7.6996974866809476,0.24700058096442448,9.717228072542772,-0.17089165557178676
-1.545680099794785,-0.3722001906297703,7.702167492490592,0.24529166440870662,9.742539379258941,-0.12122201825765083
-1.5494021017010828,-0.27477479683718087,7.704620409134678,0.24407944422613012,9.761186903530353,-0.08449294057099796
-1.5521498496694546,-0.17716292780187734,7.70706120357694,0.24323451482042013,9.773904178463702,-0.05934667827792071
-1.5539214789474733,-0.07942388601724032,7.709493548725144,0.24264104803764092,9.781287311627157,-0.044674158790936135
-1.5547157178076458,0.01838898709903125,7.71191995920552,0.24219430644973156,9.783781736063753,-0.03963472600825943
-1.5545318279366556,0.11622680445966879,7.714341902270018,0.24179795918964897,9.781672486652878,-0.043670563882557786
-1.553369559892059,0.21404352932619758,7.716759881861915,0.24136125355082338,9.775077612539418,-0.0565163694767721
-1.551229124598797,0.31179430545159176,7.719173494397423,0.24079608985605566,9.763944426093882,-0.07820471364443943
-1.5481111815442812,0.4094337497125306,7.721581455295984,0.24001404271961127,9.748048399277646,-0.10906736111982544
-1.5440168440471558,0.5069142337053071,7.723981595723179,0.23892336910841303,9.72699464203261,-0.14973263403773726
-1.5389477017101028,0.6041841801256331,7.726370829414264,0.23742604276803564,9.700222027597322,-0.20111870517702374
-1.5329058599088463,0.7011864004016064,7.728745089841944,0.23541485571626541,9.66701015991065,-0.2644225106232533
-1.5258939959048303,0.7978565020007129,7.731099238399106,0.2327706306100329,9.626489501799616,-0.34110378740606545
-1.5179154308848233,0.8941213970187091,7.733426944705206,0.22935959273597223,9.577655092236485,-0.4328635821934007
-1.5089742169146363,0.9898979479410739,7.735720540632566,0.2250309569140382,9.519384368493677,-0.5416164559535291
-1.4990752374352256,1.0850917916260108,7.737970850201706,0.21961479235450293,9.450459665283185,-0.6694555420840519
-1.4882243195189655,1.1795963882788427,7.740166998125251,0.2129202369336624,9.36959597744524,-0.8186096192377168
