th1 (rad),w1 (rad/s),th2 (rad),w2 (rad/s)
2.7598571122317046,1.7878390698793272,4.6059795338266145,-0.29015572609852625
2.777735502930498,1.7597631818888841,4.603077976565629,-0.231102584902801
2.7953331347493866,1.7327813927834623,4.600766950716601,-0.17045149446694866
2.8126609486772214,1.7068900101130982,4.599062435771931,-0.10828345424566081
2.8297298487783524,1.6820940546523542,4.597979601229475,-0.04467707744611141
2.846550789324876,1.6584067617969986,4.597532830455013,0.02029080695128778
2.8631348569428456,1.635849106453915,4.597735738524526,0.08654463752589571
2.8794933480073848,1.6144493474955364,4.598601184899785,0.15400968343621158
2.89563784148234,1.5942425881211464,4.600141281734147,0.22261168085777266
2.9115802673635516,1.5752703488359203,4.602367398542724,0.2922765360974463
2.9273329708519107,1.5575801501771689,4.605290163903699,0.3629300882535917
2.9429087723536824,1.5412251027489199,4.608919464786235,0.4344979239648783
2.9583210233811714,1.5262635025420612,4.613264444025884,0.5069052365127371
2.973583658406592,1.5127584298957022,4.618333496391011,0.5800767213084499
2.988711242705549,1.5007773507796416,4.624134263604096,0.6539364996057073
3.003719016213345,1.4903917193359586,4.630673628600153,0.7284080621359162
3.0186229334067045,1.481676580801924,4.637957709221512,0.8034142242707787
3.033439699214724,1.474710174042408,4.64599185146422,0.8788770842791145
3.048186800955148,1.4695735329466597,4.654780622307011,0.9547179762665541
3.0628825362846146,1.466350085893587,4.664327802069677,1.0308574094708252
3.0775460371435504,1.465125252365834,4.6746363761643845,1.107214985734292
3.0921972896672085,1.4659860356027954,4.6857085260217275,1.1837092871908657
3.1068571500232363,1.4690206099350411,4.697545618893636,1.2602577264876726
3.1215473561225866,1.4743179011482705,4.710148196158513,1.3367763522141771
3.1362905351340693,1.4819671578965192,4.723515959680655,1.413179602634498
3.1511102067130343,1.4920575118363755,4.737647755707,1.4893800013149834
3.166030781831398,1.5046775238027421,4.75254155572015,1.5652877888126375
3.1810775570694254,1.5199147130104362,4.768194433608276,1.640810485246411
3.19627670419953,1.5378550659649706,4.78460253846074,1.715852379320447
3.2116552548591795,1.5585825215227453,4.801761062253944,1.7903139402163313
3.227241080074407,1.5821784283805715,4.819664201656107,1.8640911497329165
3.2430628643582127,1.6087209712244652,4.838305113153437,1.9370747531427361
3.2591500740704573,1.6382845618582027,4.857675860684864,2.009149428471129
3.2755329196890393,1.6709391918960417,4.877767354969576,2.080192875307896
3.2922423116079997,1.7067497440766508,4.898569283722655,2.1500748258530757
3.309309809048766,1.7457752599741363,4.920070031981186,2.2186559827004153
3.3267675616485075,1.7880681628861739,4.9422565918081895,2.2857868898959794
3.344648243277369,1.8336734360083682,4.96511446070715,2.3513067460944983
3.3629849776374527,1.8826277576972275,4.988627528168094,2.4150421711876198
3.381811255214425,1.934958597718493,5.01277794987997,2.476805940604225
3.40116084119161,1.9906832809056287,5.037546009286013,2.53639570458112
3.4210676740006662,2.0498080276408523,5.062909966331824,2.5935927130562293
3.441565754277075,2.11232698403406,5.088845893462386,2.6481605704106483
3.4626890241174153,2.178221258615908,5.115327499166493,2.699844048021613
3.484471236703574,2.247457986765518,5.1423259396467085,2.7483679863974273
3.5069458165712293,2.319989448924763,5.169809619510683,2.7934363224244967
3.530145711060477,2.3957522738484167,5.197743982734927,2.8347312808019822
3.554103233798961,2.474666763611574,5.226091295542947,2.8719127718610773
3.5788499014350768,2.556636382718682,5.254810423261557,2.904618040402307
3.6044162652622638,2.6415474592725325,5.283856603665581,2.932461611619572
3.630831739854989,2.7292691515701804,5.313181219781776,2.9550355802411485
3.6581244313706907,2.8196537384633857,5.342731575584187,2.9719102872765086
3.6863209687553247,2.912537296088671,5.372450678456953,2.9826354247319524
3.7154463417162114,3.0077408268457746,5.402277032704272,2.9867416018212127
3.745523749984669,3.10507190847838,5.432144448722484,2.9837423959911353
3.7765744690694527,3.2043269314857348,5.461981872682395,2.973136897936686
3.80861773838431,3.305293991593506,5.4917132416617624,2.9544127411378547
3.841670678300245,3.4077565004216614,5.521257369073141,2.927049582807598
3.8757482433044617,3.5114975716927272,5.550527864901217,2.8905229740834377
3.910863219021389,3.616305232366623,5.579433094642051,2.844308522561964
3.947026271345055,3.721978498229031,5.607876179867671,2.787886209808477
3.984246056327345,3.8283343422542337,5.635755041965756,2.720744680484135
4.022529399749888,3.935215572443492,5.662962488770598,2.6423852687532166
4.061881555474323,4.042499625201131,5.68938634145813,2.5523254725546884
4.102306551726334,4.150108272584194,5.714909596183677,2.4501015283994354
4.143807634452176,4.2580182394660415,5.7394106114676715,2.335269680162875
4.186387816846836,4.3662727328959345,5.7627633082693,2.2074056766849846
4.230050544175795,4.47499390433091,5.78483736503615,2.066101976758853
4.274800483219105,4.584396299882092,5.805498384803739,1.9109620881359886
4.320644446217925,4.694801408070538,5.824608005685099,1.7415914213017623
4.3675924602986305,4.806653491803171,5.842023919898117,1.5575840010792976
4.4156589952166625,4.9205369921772935,5.85759975990891,1.3585043531842047
4.464864365138435,5.03719591258106,5.871184803440752,1.1438638765929865
4.515236324264246,5.157555719660156,5.882623442206682,0.9130910444151947
4.566811881460848,5.282748402817509,5.891754352650834,0.6654948872881367
4.619639365489023,5.414141351543546,5.898409301523715,0.4002214933364833
4.673780779004459,5.553370508418652,5.9024115164570805,0.1162038930400981
4.729314484088645,5.702377570837464,5.9035735553874815,-0.18789293681051494
4.78633825979702,5.8634493193083514,5.901694626019377,-0.5137273626161615
4.844972752990103,6.03925339702936,5.8965573523932155,-0.8633262481773362
4.905365286960397,6.232856983589808,5.887924089911442,-1.23909776227599
4.967693856796296,6.4476987528533645,5.875533112288682,-1.6437661728957882
5.032170844324829,6.687452612521339,5.859095450559725,-2.0801370298241215
5.0990453704500425,6.955660343997588,5.838294080261483,-2.5505136521618814
5.168601973890018,7.2548986502758614,5.812788943739864,-3.0554281530788083
5.241150960392777,7.585066573263152,5.782234662209076,-3.5910991222414843
5.317001626125409,7.940175080147896,5.746323670986661,-4.1447489625908895
5.396403376926887,8.303098266121767,5.704876181360753,-4.687048294277753
5.4794343595881045,8.639120548860689,5.658005698417975,-5.162950996487657
5.565825565076711,8.893571724268991,5.6063761884530985,-5.488570673684982
5.654761282319401,9.00516133621755,5.5514904817162485,-5.570755277516078
5.7448128956815765,8.94079732789264,5.495782928941088,-5.357660739511317
5.834220868960503,8.725398541023537,5.442206321545974,-4.882453361501888
5.9214748543707385,8.426695035518707,5.393381787930956,-4.242504877468326
6.0057418047259254,8.110749578200794,5.350956739156272,-3.5356537616961803
6.086849300507933,7.817051096575267,5.3156002015393105,-2.8233904632903943
6.165019811473686,7.560897387882237,5.287366296906407,-2.133083045635513
6.2406287853525075,7.343883842842821,5.2660354664500515,-1.4724247678145335
6.314067623780936,7.161659448246733,5.251311218771906,-0.840466589915948
6.385684218263403,7.007899542058388,5.242906552872746,-0.23344293459310195
6.455763213683987,6.8759916508296435,5.240572123526816,0.3526411853340202
6.524523130192284,6.759639310414774,5.2440985353801555,0.9210079124102682
6.592119523296431,6.653018341458021,5.253308614504258,1.4738037922290368
6.658649706711012,6.550773857622048,5.268046652426548,2.0120893045860853
6.724157445287233,6.447979234980525,5.288167545472409,2.535946818123541
6.788637237637038,6.340104014846233,5.313527013653644,3.044636696134034
6.8520382777855,6.223005622413645,5.343973380614984,3.536774571567909
6.914268334009636,6.092945901235718,5.379341126330663,4.010519437495239
6.975197793021993,5.946627326633182,5.419446320705616,4.463767384544987
7.034664066288324,5.781241002933529,5.464083994551065,4.894346367318348
7.0924764763176595,5.594517428695436,5.513027458224249,5.300206392995604
7.148421650604614,5.384770879391954,5.566029522154205,5.679598437715871
7.202269359398533,5.15092888106662,5.622825506531363,6.031234876925324
7.2537786482092,4.892539542961419,5.683137855300616,6.354424542469687
7.302704043638814,4.609751410710021,5.746682100725313,6.649176754881398
7.348801557745914,4.303262883801826,5.813173868274127,6.91627075328638
7.3918341865839325,3.9742409328262465,5.882336575806991,7.157289684697826
7.431576595912195,3.624211597964925,5.95390947265397,7.374621451900864
7.467818711891844,3.254927238931701,6.027655687172978,7.5714318985970985
7.500367984281161,2.868217430641764,6.103370006158949,7.751618606409102
7.529050158587579,2.465831553266247,6.18088619222304,7.919755527085305
7.553708474120242,2.049281534390367,6.260083747493893,8.08103928652647
7.5742012894641455,1.6196932701121332,6.340894140359158,8.241246694160479
7.590398222165267,1.1776759741815144,6.423306607300763,8.406708845426534
7.6021749819070825,0.7232220284069742,6.507373695755028,8.584298340087766
7.609407202191152,0.255659499357286,6.593216679155906,8.781408473750075
7.611963797184725,-0.22629770265000565,6.681030763893406,9.005868075176553
7.609700820158225,-0.7243078498933716,6.771089444645171,9.265665223208895
7.602457741659292,-1.2397741909192526,6.86374609687726,9.568214204231076
7.590059999750099,-1.7724543062045963,6.95942823891957,9.918641281662396
7.5723354566880525,-2.317635346900194,7.058614651736194,10.316149141985752
7.549159103219051,-2.860935460962881,7.161776143156052,10.747115328648409
7.5205497486094215,-3.3703059990440045,7.269247296442536,11.174217615073722
7.486846688618981,-3.7883601148234516,7.380989472593273,11.525668073876194
7.448963087470747,-4.037206687696286,7.496246153332035,11.701045114549572
7.408591020593784,-4.053211895511148,7.613256604477531,11.617532789671102
7.368058901638673,-3.838761810993288,7.729431932374242,11.278994990512555
7.329671283528739,-3.4688371921290213,7.842221882279367,10.783621336070908
7.294982911607449,-3.0356010384428345,7.950058095640077,10.249055102098456
7.2646269012230205,-2.6011836594760394,8.05254864666106,9.750874403619342
7.23861506462826,-2.1934248293320873,8.150057390697254,9.319235046748906
7.216680816334939,-1.8197529283103218,8.243249741164744,8.958558885406127
7.198483287051836,-1.478689657947804,8.332835330018806,8.662971764705757
7.183696390472358,-1.165789477014829,8.419465047665863,8.42390976693337
7.17203849570221,-0.8761325410739351,8.503704145335197,8.233092592016522
7.163277170291471,-0.6052159228304641,8.586035071255363,8.083433468090437
7.157225011063166,-0.34919005975146894,8.666869405936268,7.969154550254439
7.153733110465652,-0.10485342243442916,8.746560951438813,7.885639555335971
7.152684576241307,0.1304274611214643,8.825417346992172,7.829227063609357
7.153988850852522,0.3588089291022333,8.903709617628266,7.797014695505134
7.157576940143544,0.5820500387067609,8.981679764583317,7.786693233413698
7.163397440530612,0.8015754740313208,9.059546696917455,7.79641140780915
7.171413195270925,1.018521460331332,9.137510810995545,7.824666368958553
7.181598409874239,1.2337663878370273,9.21575747468513,7.870213821909848
7.193936073752609,1.447948067530785,9.294459612904229,7.931992301460435
7.208415554427917,1.6614692532489426,9.373779535918834,8.009056937404376
7.225030246960407,1.874492677696106,9.453870105292877,8.100518907103552
7.243775173737368,2.0869265264756245,9.534875294363912,8.205487489362056
7.264644439002124,2.298401083674171,9.616930169257532,8.3230122325844
7.2876284498388655,2.5082372675549407,9.700160291583376,8.452023289267391
7.312710822514415,2.7154079800474924,9.78468052447605,8.59126853034621
7.33986490231489,2.918493678630932,9.870593209779512,8.739246740865553
7.3690498391012,3.115634423708947,9.957985677188168,8.89413714286346
7.400206183338289,3.3044819556417306,10.046927048616801,9.053726850997666
7.433251002894707,3.4821572111100343,10.137464317126778,9.215339821071941
7.468072575005808,3.6452211573578746,10.229617715337497,9.37577356942672
7.5045247865793865,3.7896698470094954,10.323375451031763,9.531253501189157
7.5424214850494815,3.910967870936352,10.418687986043656,9.677418932816567
7.581531163758845,4.004137182342499,10.515462175371821,9.809359220267018
7.62157253558227,4.063919246482537,10.613555767574491,9.921721488196427
7.662211728047095,4.0850256422610345,10.712772982456455,10.008911106267947
7.703061984469705,4.06248325110826,10.812862093519135,10.065399414512864
7.743686816980787,3.992063223255491,10.913516087664263,10.086137630290583
7.783607449213342,3.870758392811432,11.014377463967168,10.067050746395031
7.822315033141456,3.6972460894918693,11.11504797143112,10.005554136181825
7.8592874940363755,3.4722514517324035,11.215103512792938,9.901007584162317
7.8940100085537,3.198722161162348,11.31411358863456,9.755009500372834
7.925997230165323,2.8817480629078385,11.411663683638288,9.571449484424987
7.954814710794401,2.5282080717770494,11.507378178482538,9.35628243140426
7.980096791512171,2.146188995316904,11.600941002796581,9.117050653502272
8.00155868146534,1.7442746089918557,11.692111509331603,8.862240137382887
8.019001427555258,1.3308284691823866,11.780733910705433,8.600591094546338
8.032309712247082,0.9133828220328097,11.866739821650896,8.34048074201886
8.04144354046741,0.4982064116042604,11.950144629071085,8.089463065192486
8.046425604583453,0.09007370723076907,12.03103925972301,7.854002669683281
8.04732634165576,-0.30778530536679716,12.109579286419843,7.6393957228497005
8.044248488602092,-0.6936019046798323,12.18597324364834,7.4498419755860965
8.037312469555294,-1.066907150352978,12.2604716634042,7.288620678514102
8.026643398051764,-1.4283419947543239,12.33335787018934,7.158326147835869
8.01235997810422,-1.7794769698638877,12.4049411316677,7.061129638713642
7.994565208405581,-2.122666575053387,12.475552428054836,6.999047555612262
7.973338542655047,-2.4609529305223914,12.54554290361096,6.974208364464341
7.948729013349824,-2.798026105239419,12.615284987255603,6.989120255713143
7.920748752297429,-3.138244332958699,12.685176189812735,7.046948078294202
7.889366308967842,-3.4867144579155434,12.755645670595676,7.1518106217391155
7.854499164388687,-3.8494281480225085,12.827163776813068,7.309105382380503
7.816004882908462,-4.233435795314477,12.900254830636873,7.5258496598359015
7.7736705249553175,-4.647001614039403,12.975513327235232,7.810973253329264
7.727200508814923,-5.09958174458858,13.053623059768524,8.175356338356597
7.676204691369038,-5.601210405049345,13.13537662315209,8.631048421213569
7.620192587318544,-6.160263470184383,13.221687107364227,9.18824446482152
7.558589952616701,-6.777235197809835,13.313569552012442,9.846724298512646
7.490817600638603,-7.430008102209012,13.412036794997569,10.575417753711518
7.416517519616512,-8.04622165134103,13.517790972534684,11.27384616321086
7.336055303103102,-8.476336050213533,13.630529434166792,11.734192218044093
7.251291942600966,-8.537285013599224,13.747871356347233,11.70133730095415
7.165919092464974,-8.185113237383993,13.864884729356774,11.112131198763235
7.084067960091134,-7.599434385745711,13.976006041344407,10.211361932734777
7.008073616233677,-6.992181850330965,14.078119660671755,9.286216667146544
6.9381517977303675,-6.463214525928583,14.17098182734322,8.468684481210744
6.8735196524710815,-6.030705872075032,14.255668672155329,7.779329696154598
6.813212593750332,-5.684199149809485,14.333461969116875,7.20056718792498
6.756370602252237,-5.408259125733101,14.405467640996125,6.708784537111501
6.702288010994906,-5.1893117368789206,14.47255548636724,6.2833699184404095
6.650394893626117,-5.016788448788618,14.535389185551644,5.9080579398987805
6.60022700913823,-4.882766062362421,14.594469764950631,5.5703213435956105
6.551399348514606,-4.781356500321588,14.650172978386587,5.260495694437705
6.503585783511389,-4.708162362487902,14.702777935330964,4.9710516499066815
6.45650415988651,-4.659845246023953,14.75248845183003,4.696073842593913
6.409905707426271,-4.633786472926145,14.79944919025597,4.4309212963665034
6.363567842697009,-4.62780959177535,14.843758403219635,4.172034390370818
6.317289746779255,-4.6399386286769415,14.885478747123344,3.916859782155633
6.270890360492485,-4.668174264970896,14.9246473449449,3.6638706514632324
6.224208617842776,-4.710279840065796,14.961286051459531,3.4126601267500045
6.177105819442118,-4.763580681130712,14.995412652727031,3.1640792100261272
6.129470012630811,-4.824794001347712,15.027053444827292,2.9203771165219616
6.081222072617334,-4.889921093602533,15.056257215992511,2.6852845020428378
6.032322861681308,-4.954244606786871,15.08311006101294,2.463965446487581
5.98278041561344,-5.012474309707039,15.107749715477816,2.2627635393834247
5.932655672516369,-5.0590673157404,15.13037735087165,2.0886934483353676
5.882064999358965,-5.088710174664702,15.151264285355003,1.9486880198050454
5.831177897612318,-5.096897836603398,15.170751165553053,1.8486926438770013
5.780208919246284,-5.08049744313402,15.189238091991824,1.7927747320546479
5.729403944814944,-5.038166932861833,15.20716583931237,1.7824493748247778
5.679022275486326,-4.97052383640583,15.224990333060619,1.8163879642040526
5.629317037122267,-4.880022462078159,15.24315421270266,1.8905810876224722
5.580516812501486,-4.770573727759378,15.262060023578885,1.9989068933227339
5.532811075223892,-4.6470022017003805,15.282049092512112,2.1339581757547563
5.486341053206888,-4.514460496821236,15.30338867426966,2.2879382569261115
5.441196448238676,-4.377909655756497,15.326268056838922,2.453453068114671
5.397417351681111,-4.241736956586979,15.350802587520068,2.6240866983192577
5.354999982115241,-4.109536931055771,15.37704345450326,2.794721408339983
5.313904612804683,-3.984042586514739,15.40499066858666,2.961625232738497
5.274064186939536,-3.8671703223189495,15.434606920914044,3.122367010691132
5.235392483716346,-3.760134730617476,15.465830591020955,3.275629016417287
5.197791136410172,-3.663594091734522,15.498586881185128,3.420978773986002
5.161155195492826,-3.577797930331966,15.532796668924988,3.558644095670671
5.125377216189507,-3.5027194746533485,15.568383109881694,3.6893169417363003
5.090350021442973,-3.4381653243755017,15.605276279299057,3.8139968807971143
5.055968368199218,-3.383861079615003,15.643416248107028,3.9338751139741066
5.022129757403068,-3.3395153293707147,15.68275499924677,4.050254692936473
4.988734604109361,-3.304865967028183,15.723257546176134,4.164500449549032
4.955685944439079,-3.2797130644724497,15.764902550671625,4.278011983004641
4.922888813794354,-3.2639420987748218,15.807682670501672,4.392213828173706
4.890249392806606,-3.2575405739747105,15.851604808783408,4.508558000228094
4.857673987066859,-3.2606102123431495,15.89669038878569,4.6285350792000814
4.825067884943427,-3.2733759534890434,15.94297573957769,4.753690619834592
4.792334125408536,-3.296191924119887,15.990512645776036,4.885643748204358
4.759372206167337,-3.329543133896959,16.03936908325808,5.026104081119154
4.726076774828368,-3.3740395638560376,16.08963012406927,5.176881149604249
4.692336379189808,-3.4303959544337697,16.141398935565313,5.339876574638898
4.65803241964547,-3.4993850117719507,16.194797701311703,5.517042059393287
4.6230385695277505,-3.5817424532239976,16.249968121905635,5.710273802829934
4.58722114499551,-3.6779872792688364,16.307070859933933,5.921193371396247
4.550441272202822,-3.788097956684806,16.366282793647894,6.150733595460246
4.512560292635974,-3.9109558645039066,16.427790129602496,6.398406864470466
4.473450733990934,-4.043444346806648,16.4917741982472,6.661099795348489
4.433016290522868,-4.179121742087686,16.558385196200685,6.931276848332147
4.3912250731019915,-4.306587134141873,16.627697964684007,7.194748518362882
4.348159201760573,-4.408223028567318,16.699645449867635,7.428938269916571
