th1 (rad),w1 (rad/s),th2 (rad),w2 (rad/s)
6.271547345911793,-2.263287361926346,4.098893181469683,1.2679052211530097
6.24891447229253,-2.2285718490813227,4.111572233681214,1.409912786948427
6.226628753801716,-2.195964263629157,4.125671361550698,1.5501572349284176
6.204669111165424,-2.165778047627604,4.141172933899982,1.6886351473690202
6.1830113306891485,-2.1383083227374406,4.158059285373673,1.8253973331777982
6.161628247461774,-2.113833675006485,4.176313258705451,1.9605479931818772
6.140489910711709,-2.0926185923011524,4.19591873863727,2.094243627792573
6.119563724788698,-2.0749164731687393,4.216861174915196,2.226691908527063
6.0988145600570105,-2.0609731337844424,4.239128094000466,2.358150726541096
6.078204828719166,-2.0510307523712448,4.262709601265877,2.4889276180994586
6.057694521195454,-2.04533220612477,4.287598877446872,2.6193797510482417
6.037241199134206,-2.0441257721267188,4.313792674957354,2.7499146393682103
6.0167999414129385,-2.0476701786283837,4.341291821351036,2.8809917351806678
5.996323239626655,-2.056240003514275,4.370101738702843,3.0131250279702346
5.975760839591512,-2.0701314186868993,4.400232988982546,3.14688675583126
5.955059525404643,-2.0896682664515946,4.431701856540858,3.2829122963418276
5.934162842740127,-2.1152084169748777,4.464530979504277,3.4219062428908793
5.913010758570379,-2.1471502785129464,4.498750041933185,3.5646495647529646
5.89153925578525,-2.1859391877098204,4.534396537580715,3.712007560100574
5.869679863908152,-2.232073151384742,4.571516613181721,3.8649379802183086
5.847359132394304,-2.2861069697275727,4.610165992983904,4.024498129420491
5.824498062697029,-2.3486530205631797,4.650410974278109,4.191848759915796
5.801011532491398,-2.4203757225450264,4.692329461877267,4.368250904805769
5.776807775265947,-2.5019745932171507,4.7360119709253246,4.555048970242869
5.751788029333776,-2.594147359386495,4.781562460627753,4.753628718939259
5.725846555739911,-2.697518996531166,4.829098747817145,4.9653311442344155
5.6988713657745995,-2.8125138687740696,4.878752059259489,5.191291226967105
5.670746227086859,-2.939135390347959,4.93066497152916,5.432152822259224
5.64135487318338,-3.0766012409501777,4.984986499751753,5.687587835333882
5.610588860773878,-3.2227674939440254,5.041862378105092,5.955526545005554
5.578361185834438,-3.3732809333480804,5.1014176435551475,6.231012174228325
5.544628376500957,-3.520473254216927,5.1637277652974305,6.504692616441956
5.509423643958788,-3.652243565215531,5.22877469146185,6.761280172143259
5.472901208306633,-3.751654910055765,5.296387493183283,6.978969796739073
5.435384659206075,-3.7985559903214785,5.3661771911506735,7.131615404438502
5.39739909930286,-3.774434886652739,5.437493345195058,7.19532101961239
5.3596547504363325,-3.6696474427097554,5.509446555391182,7.1582535105695975
5.322958276009235,-3.4886994318267024,5.5810290904968785,7.027719457857497
5.288071281690968,-3.2488518023781143,5.651306285075454,6.828047027728015
5.255582763667187,-2.972706991073976,5.719586755352734,6.590302850865717
5.225855693756447,-2.6805192896667034,5.785489783861391,6.341815139370325
5.19905050085978,-2.386475911981384,5.848907935255094,6.101269209493381
5.175185741739966,-2.0987305640667184,5.909920627350028,5.878948442972897
5.154198436099299,-1.8210501382012942,5.968710111779758,5.679115127063761
5.135987934717286,-1.5545320889675922,6.025501263050395,5.5024153425527995
5.12044261382761,-1.2988523864248847,6.080525416475923,5.3475942022718135
5.107454089963361,-1.0530355613899967,6.134001358498641,5.21253430684982
5.096923734349461,-0.8158863148110943,6.186126701567139,5.094823341565591
5.08876487120135,-0.5862143925028007,6.237074934982795,4.992038428020879
5.082902727276322,-0.3629427083161221,6.286995319263004,4.901873383408405
5.079273300193161,-0.14515279825466815,6.336014053097088,4.822183854771925
5.077821772210614,0.06790195300940324,6.384235891644807,4.75099212964958
5.078500791740708,0.27679886575661017,6.431745812941303,4.6864740354689
5.081268780398274,0.4819557132019454,6.478610553295992,4.62693957382922
5.086088337530293,0.6836433664068986,6.524879949034284,4.570813129682538
5.092924771194362,0.881999328577499,6.57058808033111,4.516616024375813
5.101744764480137,1.077041345302288,6.6157542405748675,4.462952582333726
5.11251517793316,1.2686808757511838,6.660383766398205,4.4085000600551645
5.125201986690672,1.456736485413029,6.704468766998756,4.352002368836108
5.139769351544802,1.640947321454014,6.747988790687118,4.292267309972246
5.156178824759342,1.8209868376289378,6.79091146378684,4.228166928757848
5.174388693135632,1.9964768912258537,6.833193133074419,4.158640528282454
5.19435346204789,2.1670022650480494,6.874779538357243,4.082699840408433
5.216023484698371,2.3321255881695313,6.915606536761328,3.9994358187765537
5.239344740580067,2.4914025500280337,6.955600894949094,3.9080264943062124
5.264258766080347,2.64439723021073,6.994681159892156,3.8077453181544367
5.290702738382454,2.790697305956624,7.0327586130737005,3.697969412521414
5.31860971144202,2.929928854346486,7.069738307198914,3.578187158103251
5.347908999985485,3.061770438450373,7.105520178779947,3.448004569816195
5.378526704369989,3.185966157250115,7.140000224478109,3.3071499502222723
5.4103863659424904,3.302337347874599,7.173071723980331,3.155476362683552
5.443409739421236,3.410792654810444,7.204626487607166,2.992961532941312
5.477517665969341,3.5113362231140415,7.23455610293658,2.8197048675363274
5.512631028200481,3.6040738299226893,7.262753151611943,2.6359213690240173
5.548671766499708,3.689216839336051,7.2891123653021825,2.4419323297141475
5.585563934893068,3.7670839484336667,7.3135316885993245,2.238152795398817
5.623234774377405,3.838100784789808,7.335913216553313,2.0250759047610485
5.661615782225303,3.9027975155382086,7.356163975600923,1.803254323803679
5.700643757380685,3.961804730936453,7.37419651883896,1.5732791008595115
5.740261804690049,4.015847966391766,7.389929309847555,1.3357563582375414
5.7804202843539665,4.065741319890878,7.403286873429931,1.0912823024652587
5.821077697552875,4.112380699922289,7.414199696454583,0.8404170684566759
5.862201504552098,4.156737295323106,7.422603867139149,0.5836579086770594
5.903768877505328,4.1998518862010545,7.42844044622592,0.32141219651063496
5.945767396367339,4.242830607172957,7.431654568191027,0.053970641252133134
5.988195702439069,4.286842721905077,7.432194274603548,-0.21851897110179785
6.0310641296581196,4.3331208573214335,7.4300090848925295,-0.4960772580149514
6.074395338231334,4.382963950656883,7.42504831231238,-0.7789176700254984
6.118224977737903,4.437742832023207,7.417259135612125,-1.0674694065020651
6.162602406058135,4.498907802392553,7.406584441547104,-1.3623978300669943
6.2075914840820605,4.56799659097805,7.3929604632464345,-1.6646202627713034
6.253271449991841,4.646639356269071,7.376314260618721,-1.9753128359481527
6.2997378435545315,4.736554338318864,7.356561132259239,-2.2958999368613227
6.34710338693772,4.839522335010782,7.3336021328906265,-2.628010294843536
6.395498610287827,4.957318595235652,7.307322029942191,-2.9733704187770504
6.445071796240184,5.091564188458657,7.2775883257544205,-3.333583032248191
6.49598743812477,5.243431564404235,7.2442524954319385,-3.709699998234956
6.548421753768812,5.413097568043794,7.207155495449589,-4.101441459512348
6.60255272944925,5.5987861408014385,7.166141080854466,-4.505842033392951
6.658540590857264,5.795217284980211,7.121082660520536,-4.915070198722132
6.716492763707066,5.991397635725426,7.071931958533315,-5.313335913143494
6.776406740064321,6.168228854808061,7.0187985994018804,-5.67356397922458
6.838089028612401,6.297724097636727,6.962062959609635,-5.956358276045316
6.901066269588768,6.347303585044631,6.902499376849182,-6.116137249206892
6.964539305439215,6.291759213812239,6.841338004357113,-6.118057031311991
7.027456897577337,6.1280145859993675,6.780157434043994,-5.958808840925858
7.08873704343733,5.879391965597306,6.720569345634735,-5.672549549667708
7.1475309630933035,5.583240858844616,6.663843850138059,-5.313344204399794
7.20336337168175,5.273699333579636,6.610710408094061,-4.930754496159324
7.256100365017546,4.973039790446386,6.561402863132468,-4.557548418524529
7.305830762922009,4.692206943279439,6.515827378947223,-4.2103971970999705
7.3527528323548035,4.4347382518539,6.473723406976223,-3.8953758810255388
7.397100214873342,4.20027225153288,6.434769648165967,-3.6129114518703815
7.439102937388671,3.986744486896756,6.398640533647264,-3.3608959007936057
7.478970382257638,3.7915457399902195,6.365031574639327,-3.1363408315833707
7.51688583965754,3.6120652314965223,6.333668166323494,-2.936163753958067
7.553006491972505,3.445913626588958,6.304306528783913,-2.7575195645032635
7.5874656282383945,3.2909920984815844,6.276731333138881,-2.597911274819172
7.62037554922321,3.145492726976137,6.250752220390689,-2.455200623103496
7.651830476492972,3.007871652076889,6.226200214159654,-2.3275775748914787
7.68190919301374,2.876814200673426,6.202924438410739,-2.2135163975247174
7.710677335020474,2.751200373551464,6.180789274435492,-2.1117306322286624
7.738189338755989,2.6300739448703467,6.159671968113205,-2.021131947476192
7.764490078204692,2.5126160746963566,6.139460648638443,-1.9407944537255546
7.7896162389516554,2.3981233206560844,6.120052704101187,-1.8699245581746822
7.813597472158216,2.285989549787248,6.101353458519441,-1.8078358402192727
7.836457367656089,2.1756911535450048,6.083275100117248,-1.7539282477986577
7.858214279191539,2.0667749934750552,6.065735817639261,-1.7076709173033446
7.878882029126289,1.958848575024414,6.048659108466228,-1.668587993792195
7.898470514876533,1.8515720271962306,6.031973228528305,-1.6362469224977387
7.916986235148495,1.7446515413692192,6.015610759303328,-1.6102487745858127
7.934432750562187,1.6378339882293516,5.99950827155747,-1.590220251310719
7.95081109044448,1.530902486359399,5.983606069044363,-1.5758070788804739
7.966120115308074,1.4236727403746556,5.967847998255558,-1.5666685620868468
7.980356842711821,1.315990001989985,5.95218131263469,-1.5624731096542366
7.99351674273172,1.2077265355667235,5.936556581538148,-1.5628945801357506
8.005594008087387,1.0987794919148677,5.92092763573679,-1.5676093257285255
8.016581803006536,0.9890691116255877,5.905251542479505,-1.5762938340411254
8.026472494122793,0.8785371929961492,5.8894886041390935,-1.5886228858017843
8.035257866052754,0.7671457705225815,5.8736023752810755,-1.6042681606770015
8.04292932375798,0.6548759586633005,5.857559693674306,-1.6228972344951171
8.049478083344612,0.5417269226815954,5.841330721329355,-1.6441729197908084
8.054895352571428,0.42771494431219886,5.824888992131447,-1.6677529081286182
8.059172502014551,0.3128725551310968,5.808211463050161,-1.6932896774608959
8.062301227565863,0.19724771512065165,5.791278566275552,-1.7204306311036437
8.064273704717069,0.08090301822126636,5.774074259964515,-1.7488184370168398
8.065082734899281,-0.03608508921745693,5.756586075594347,-1.7780915371879902
8.064721884007106,-0.15362708716023318,5.7388051602224674,-1.8078847972793508
8.063185613135504,-0.2716211639503639,5.720726312249674,-1.8378302665677175
8.060469401496,-0.3899540041335065,5.702348009583997,-1.8675580178597793
8.056569861454665,-0.5085015809825626,5.6836724294054,-1.8966970368051188
8.05148484564484,-0.6271299496120624,5.664705459037348,-1.9248761301659754
8.04521354614872,-0.7456960341267693,5.645456697735688,-1.9517248234522415
8.037756585807452,-0.8640484006178539,5.625939449501166,-1.9768742201911378
8.029116101801273,-0.9820280072031824,5.606170707299254,-1.9999577982379444
8.01929582172924,-1.0994689228890389,5.586171129316875,-2.020612123154959
8.00830113250035,-1.2161990089533359,5.565965008085326,-2.038477464920171
7.996139142410816,-1.3320405599022873,5.545580233436124,-2.0531983121062045
7.982818736811793,-1.4468109058469578,5.525048250315062,-2.064423787109013
7.968350627753323,-1.5603229843086088,5.504404012443972,-2.0718079767900224
7.952747397910237,-1.6723858968195662,5.483685932676072,-2.07501020467094
7.936023538942041,-1.7828054739613826,5.4629358306293625,-2.073695283089091
7.918195484202427,-1.8913848812876515,5.442198877798472,-2.067533795839639
7.899281635389551,-1.9979253074196064,5.421523539840075,-2.0562024730150763
7.8793023823153545,-2.102226783878197,5.400961515109925,-2.039384729085298
7.858280114476573,-2.2040891932288944,5.380567667819072,-2.0167714417104974
7.836239222544284,-2.303313527083512,5.360399953401967,-1.988062051220452
7.813206087273449,-2.3997034575836804,5.340519332889762,-1.952966057954173
7.789209052697612,-2.49306728431351,5.320989672310221,-1.9112049855717408
7.764278379854477,-2.583220312310466,5.301877622454503,-1.8625148619651295
7.738446176731372,-2.6699877052207595,5.283252473834852,-1.806649244670834
7.711746299679165,-2.7532078401382467,5.265185981388144,-1.743382784271221
7.684214221277783,-2.832736167063812,5.247752153545432,-1.672515277284629
7.655886859607144,-2.908449546493956,5.231027000772586,-1.5938761103898307
7.626802364142205,-2.980251004294692,5.215088239668687,-1.507328942394253
7.596999854099258,-3.0480748054124542,5.200014950244745,-1.4127764121548803
7.566519106045134,-3.111891709646173,5.185887186123196,-1.3101646038911687
7.535400188948672,-3.171714237031288,5.172785540084284,-1.199486951244945
7.503683046578359,-3.2276017414513656,5.160790670571835,-1.0807872240202763
7.471407029163845,-3.2796650733806,5.149982798331632,-0.9541612228906746
7.438610378430039,-3.328070610577582,5.140441186102725,-0.8197568129191057
7.405329672324263,-3.3730434528087594,5.1322436179735345,-0.6777719602501322
7.371599237796175,-3.4148696156149603,5.125465898371033,-0.5284504988654662
7.337450541640026,-3.4538971190849606,5.120181393382378,-0.37207544337350024
7.302911570449176,-3.4905359484925955,5.1164606389486424,-0.20895977297433388
7.26800621096425,-3.5252569599359544,5.114371041218899,-0.039434730694407644
7.232753641364891,-3.558589909137098,5.113976693911955,0.13616420263271475
7.197167742273519,-3.591120887403846,5.115338335938282,0.3175134032939323
7.161256533399481,-3.6234895474399407,5.118513469971221,0.504318948486363
7.125021637925081,-3.656386586523642,5.123556659456085,0.6963358707889389
7.0884577720598445,-3.690552021403526,5.130520018163974,0.8933885210524828
7.051552251845809,-3.7267748373355944,5.139453903374499,1.0953918309765027
7.014284503472453,-3.765894625922151,5.150407821684264,1.3023734162352443
6.976625557213231,-3.8088058488784813,5.163431555846617,1.514496660510113
6.938537498724447,-3.8564653853817963,5.178576522451718,1.7320851601511698
6.899972844870629,-3.909904046381174,5.19589737405323,1.9556491746301872
6.8608738044068165,-3.970242772524954,5.215453865799532,2.185914999872823
6.821171376681567,-4.03871426375871,5.23731301579826,2.423858427915032
6.78078423404398,-4.116690783971702,5.26155160007741,2.670743616653428
6.739617326204264,-4.205718759067779,5.288259036243944,2.928168644590597
6.697560138613586,-4.3075603562650135,5.3175407226898495,3.1981185105668155
6.654484535050935,-4.4242411061989815,5.349521907795517,3.4830248214766026
6.610242123988946,-4.5580999999090706,5.384352156010284,3.785827778918473
6.564661123989855,-4.711832700769495,5.422210433799468,4.110028031451396
6.51754279698216,-4.88850617223319,5.463310714113982,4.459698798743183
6.4686577352598285,-5.091497330300718,5.507907702101414,4.839392911624585
6.417742761956822,-5.324256050391541,5.55630163121766,5.253806557815765
6.364500201452906,-5.589690210644885,5.608839696795817,5.706918277279875
6.308603299346458,-5.8887828962776085,5.665908879568616,6.200059601198573
6.2497154703836815,-6.217763592244993,5.727909475580602,6.727970028776044
6.1875378344612315,-6.562921115051528,5.795189175868362,7.27155991105265
6.121908623310716,-6.8927841371639005,5.867904774978888,7.7869954935835475
6.052980781939077,-7.151188289250977,5.9457747299147234,8.19603123911427
5.981468899046567,-7.263716687888198,6.027735042305866,8.395075668721967
5.908831732167686,-7.17343137067385,6.1116857989930855,8.305247670854905
5.837097418460948,-6.889169346365061,6.194738275701635,7.939868508427925
5.768205724997297,-6.485826766992556,6.274136960785914,7.404560527465934
5.7033474573273715,-6.0487030687877965,6.348182566060574,6.819223920551537
5.642860426639493,-5.631645332600908,6.41637480526609,6.259635482175922
5.586543973313484,-5.256205471253838,6.478971160087849,5.756428258767202
5.533981918600945,-4.925794036046239,6.536535442675521,5.314914004156643
5.484723978240483,-4.636474314489404,6.589684582717087,4.930148552153795
5.438359235095589,-4.38227876982833,6.6389860682386255,4.594339540302236
5.394536447397306,-4.157315989932681,6.684929463641648,4.299780759050563
5.352963287497979,-3.9564403852767036,6.727927271232153,4.039786832227562
5.313398883645212,-3.7753604847424898,6.768325139554429,3.808847491178234
5.275645278797787,-3.610556222694507,6.806413614466211,3.6025160490189414
5.239539716570842,-3.4591492543375972,6.842438774956401,3.4172318543161113
5.204948224027467,-3.318777530908138,6.876611093499562,3.2501476660277513
5.171760448718385,-3.1874892048921732,6.90911257015984,3.098982774830092
5.139885556669463,-3.063657657145618,6.940102397908141,2.961904325951785
5.109248980098007,-2.945915128015001,6.969721441167659,2.837433353288957
5.079789828817857,-2.8331015012214524,6.998095774700548,2.724370762526085
5.051458813805643,-2.724225022679795,7.025339482325809,2.6217388448416346
5.024216563578845,-2.6184322865629053,7.051556870774226,2.5287346886401285
4.998032240713216,-2.5149853799018436,7.076844217660627,2.4446926601563663
4.972882386914198,-2.413244549381287,7.10129114426219,2.3690538130157153
4.948749941420385,-2.3126551241148974,7.124981682392348,2.3013406395238993
4.9256233901792355,-2.2127377075181247,7.147995088787587,2.2411360066941137
4.903496013104054,-2.1130808581480682,7.1704064488545285,2.1880654503584585
4.882365204522574,-2.0133356312530863,7.1922871033581135,2.1417822522465246
4.862231848210043,-1.9132114648164855,7.213704925880578,2.1019549144772585
4.843099733561878,-1.812472978224645,7.2347244750253505,2.0682567859643095
4.824975003779632,-1.7109373178925018,7.255407042884993,2.0403576946694346
4.807865630600707,-1.6084717396229367,7.275810619831687,2.017917504768833
4.7917809132044775,-1.504991167715525,7.295989794879375,2.0005815533175317
4.776731001527322,-1.4004555198248387,7.315995610412551,1.9879779307971421
4.762726446329074,-1.2948666367829371,7.335875389720522,1.979716557751701
4.749777779961245,-1.1882647091514,7.355672555298039,1.975389979615923
4.737895132869731,-1.0807241469717546,7.375426455094198,1.974575758481232
4.727087891400013,-0.9723488946944321,7.39517221267901,1.976840289261087
4.717364402453069,-0.8632672472820682,7.414940615571621,1.9817438143793646
4.708731729980248,-0.7536262730362575,7.434758053715415,1.98884636179481
4.701195467249885,-0.6435859905410362,7.454646517333363,1.9977142917027113
4.694759607344475,-0.5333134781689267,7.474623660250391,2.007927112600993
4.689426472562785,-0.42297711239335045,7.4947029313764,2.019084221159127
4.685196701438852,-0.31274113425234923,7.514893773587992,2.0308112342263036
4.6820692900963286,-0.20276073157113322,7.535201885930254,2.0427656150003695
4.680041682780617,-0.09317779923718768,7.555629542080258,2.054641346396817
4.679109904788245,0.015882496502265198,7.576175955544226,2.066172468748784
4.679268729753267,0.12431426750835275,7.596837680231714,2.077135370610327
4.680511872428351,0.2320325318174324,7.617609033937818,2.087349794542102
4.682832197746525,0.3389739312687436,7.638482531883239,2.09667858844307
4.686221937059213,0.4450965910997401,7.6594493177676695,2.1050262922458662
4.690672902970211,0.5503792077457177,7.680499580690128,2.1123366959957126
4.696176695047668,0.6548194754454875,7.701622947650085,2.1185895365156573
4.7027248898021226,0.7584319764599353,7.722808843015241,2.123796515723596
4.710309209566722,0.8612456641233641,7.744046808172477,2.1279968253671093
4.718921666207955,0.9633010637866766,7.765326776426148,2.1312523527362446
