th1 (rad),w1 (rad/s),th2 (rad),w2 (rad/s),a1 (rad/s^2),a2 (rad/s^2)
4.082236300333733,0.4539643423563601,6.183802785514052,2.506322708755224,12.418663191642832,7.080914733980168
4.086775943757297,0.5781509742727884,6.208866012601605,2.5771318560950256,12.619912315878643,7.053102029180365
4.092557453500024,0.7043500974315748,6.2346373311625545,2.6476628763868293,12.814483067011173,6.9872002388176675
4.09960095447434,0.8324949281016866,6.261113959926423,2.7175348787750058,12.999857688741281,6.8810304217099265
4.107925903755357,0.9624935049890994,6.288289308714173,2.786345182992105,13.173420142926254,6.732383050949975
4.117550838805248,1.0942277064183619,6.316152760544094,2.8536690135016047,13.332479531858556,6.539054023595408
4.128493115869432,1.2275525017369475,6.34468945067911,2.9190595537375588,13.474297752096422,6.2988833662462245
4.140768640886802,1.3622954792579118,6.3738800462164855,2.982048387400021,13.596120824084489,6.00979571884412
4.154391595679381,1.4982566874987566,6.403700530090486,3.0421463445884624,13.695213135137672,5.669841492155218
4.1693741625543685,1.6352088188501335,6.434121993536371,3.0988447595100146,13.768893655582335,5.277237471365433
4.18572625074287,1.7728977554059568,6.465110441131471,3.151617134223669,13.814573064453533,4.830405607341896
4.20345522829693,1.9110434860504921,6.496626612473707,3.199921190297088,13.829790678277902,4.328008824354891
4.222565663157435,2.0493413928332713,6.528625824376678,3.2432012785406372,13.81225013774361,3.7689828978431823
4.243059077085768,2.1874638942107074,6.5610578371620845,3.280891107519069,13.759852989771153,3.152563826410439
4.264933716027874,2.325062424108419,6.593866748237275,3.3124167457831737,13.670729613590918,2.478310631207581
4.288184340268959,2.461769720244328,6.626990915695107,3.3371998520952495,13.54326737171158,1.7461241361678372
4.3128020374714024,2.5972023939614437,6.660362914216059,3.354661093456928,13.376136395876815,0.9562629652241178
4.338774061411017,2.730963757920212,6.693909525150628,3.3642237231091694,13.168314001457343,0.10935866634091898
4.366083698990218,2.8626468979347854,6.7275517623817205,3.3653173097725784,12.919109300281844,-0.7935675544696432
4.394710167969566,2.991837990937604,6.761204935479446,3.357381634227882,12.62819007524096,-1.7510836394343805
4.424628547878942,3.1181198916900135,6.794778751821725,3.3398707978335382,12.295614303119537,-2.7613181296058227
4.455809746795842,3.2410760347212086,6.82817745980006,3.31225761653748,11.92186877469024,-3.8219217473999434
4.488220507143055,3.3602947224681112,6.861300035965435,3.2740383990634805,11.507916978765554,-4.930017504779113
4.521823454367736,3.475373892255767,6.894040419956069,3.2247382240156894,11.055257722466253,-6.082139218523431
4.556577193290294,3.5859264694804294,6.926287802196226,3.163916831830455,10.565994816367523,-7.27416039166369
4.592436457985098,3.6915864176441047,6.957926970514531,3.0911752279138183,10.042916567837423,-8.501218025328631
4.629352322161539,3.792015583322479,6.988838722793669,3.006163047660532,9.489581865603018,-9.757638906078169
4.667272477994764,3.886911401978509,7.018900353270274,2.9085866585997504,8.910407443454593,-11.036879013204398
4.706141592014549,3.976015476413055,7.047986219856272,2.7982178684677064,8.310748704079488,-12.331489539629994
4.74590174677868,4.05912296345385,7.075968398540949,2.6749029730714065,7.696964572069199,-13.633125148039085
4.786492976413218,4.1360926091745425,7.102717428271664,2.5385717215910155,7.0764556042993165,-14.932610952889034
4.827853902504963,4.206857165217536,7.128103145487573,2.3892456120621253,6.457664425969202,-16.2200837921399
4.869922474157138,4.271433809477228,7.151995601608195,2.2270447741407264,5.850028864265531,-17.48522019745784
4.91263681225191,4.3299340981198835,7.174266049349602,2.052192572166148,5.263881190245825,-18.717557891356453
4.955936153233109,4.382572910022342,7.1947879750712636,1.8650169932525835,4.7102917168886425,-19.906909809680776
4.999761882333333,4.429675827191228,7.213438145003789,1.6659478951557758,4.200861406868933,-21.043860221689048
5.044058640605245,4.471684441259917,7.230097623955348,1.4555092929388853,3.7474755462854685,-22.120322658357512
5.088775485017845,4.509159196722772,7.244652716884737,1.2343060663553103,3.3620380533451377,-23.13013063977292
5.133867076985072,4.542779577256223,7.25699577754829,1.003004759957581,3.056212527999458,-24.069626381059432
5.179294872757635,4.573341702536217,7.267025825147865,0.7623084961469868,2.8412006292373677,-24.938211366681244
5.225028289782997,4.601753708828591,7.274648910109335,0.5129263824801744,2.7275899711537623,-25.738826990357637
5.2710458268712825,4.629029608540129,7.279778173934137,0.25553811257659803,2.7253021372082733,-26.47834357805074
5.317336122956684,4.656282629912211,7.282333555059902,-0.009245323203909361,2.843666950789599,-27.16785125357992
5.363898949255806,4.684719299420108,7.282241101827863,-0.2809238357397085,3.091642770981372,-27.822864564527883
5.410746142250007,4.715635727129921,7.2794318634704664,-0.5591524813849873,3.4781957073304794,-28.463472252432844
5.457902499521306,4.750417684203226,7.273840338656616,-0.8437872039093157,4.012844747494131,-29.114481530680155
5.5054066763633385,4.790546131678168,7.265402466617523,-1.1349320192161172,4.70637593522218,-29.80562034809197
5.55331213768012,4.8376098910303895,7.254053146425362,-1.432988222697037,5.571726954114964,-30.57186900941132
5.601688236590424,4.893327160571539,7.239723264198392,-1.73870691279115,6.62504186192438,-31.45399096562257
5.6506215081961395,4.959577579190783,7.22233619507048,-2.0532468224473757,7.886888840786439,-32.499315117886574
5.700217283988048,5.038446467598647,7.2018037268460064,-2.3782399736262416,9.383609362625004,-33.76277375034931
5.750601748664034,5.132282561224898,7.178021327109744,-2.715867711129735,11.148698573706573,-35.308087045148646
5.801924574276283,5.243769546961963,7.150862649998446,-3.068948581581221,13.223946950155929,-37.20873016831117
5.854362269745903,5.376009016463523,7.120173164182634,-3.441035883264333,15.65967911659612,-39.547752154353915
5.908122359910538,5.532605807629484,7.085762805349991,-3.836513404807872,18.512540397390566,-42.414265804770594
5.963448417986833,5.7177312116033905,7.047397671301912,-4.2606560628555785,21.83733393861256,-45.89169624650483
6.020625730102867,5.9361045509895165,7.004791110673356,-4.719573025320627,25.665220483139763,-50.02701043411547
6.079986775612762,6.1927567558209144,6.957595380420149,-5.219843129661782,29.951940563160914,-54.75804351406254
6.1419143431709715,6.492276161452524,6.905396949123531,-5.7674235648024075,34.46349938051955,-59.75333896401438
6.206837104785497,6.836911155257719,6.847722713475507,-6.364956954442551,38.5437586739322,-64.08674455791352
6.275206216338074,7.222348741997042,6.7840731439310815,-7.0058244000216865,40.70875032161729,-65.6696968606512
6.347429703758045,7.629436245213214,6.714014899930865,-7.662521368628198,38.17970357439435,-60.599220081406045
6.423724066210177,8.011233280957157,6.637389686244583,-8.26851356944226,27.15198346750652,-43.542553745681055
6.5038363990197485,8.282753115632222,6.55470455055016,-8.70393910689907,5.65631521073545,-11.765566800281483
6.586663930176071,8.339316267739576,6.46766515948117,-8.821594774901884,-21.209888389868457,27.518382757957067
6.670057092853467,8.127217383840891,6.379449211732151,-8.546410947322313,-42.09755174085229,58.31655748081431
6.751329266691876,7.706241866432369,6.293985102258928,-7.963245372514169,-50.44291889577501,71.37593977678478
6.828391685356199,7.201812677474619,6.214352648533786,-7.249485974746322,-49.11581980990383,70.70160682627717
6.900409812130945,6.710654479375581,6.141857788786322,-6.54246990648355,-43.629469596775046,64.02492610436158
6.967516356924701,6.274359783407831,6.076433089721487,-5.902220645439934,-37.382057437540766,56.12726887317791
7.03025995475878,5.900539209032423,6.017410883267088,-5.340947956708155,-31.70250257425336,48.89503659776496
7.089265346849104,5.583514183289889,5.964001403700006,-4.851997590730505,-26.916940776791016,42.807009933593726
7.1451004886820035,5.314344775521979,5.9154814277927015,-4.423927491394568,-22.989434870369706,37.829448820834756
7.1982439364372235,5.084450426818282,5.8712421528787555,-4.04563300318622,-19.786944179034162,33.78731134480072
7.249088440705406,4.8865809850279405,5.830785822846893,-3.7077598897382127,-17.171141765935833,30.493748294986037
7.297954250555685,4.7148695673685825,5.793708223949511,-3.4028224067883523,-15.024450677076553,27.78754080005407
7.345102946229371,4.564625060597817,5.7596799998816275,-3.1249469987878116,-13.253612442249882,25.53893127244573
7.390749196835349,4.432088936175318,5.72843052989375,-2.869557686063354,-11.78659727079737,23.645969914248187
7.435070086197102,4.314222963467344,5.699734953033116,-2.6330979869208724,-10.56825433555285,22.028972985153636
7.478212315831776,4.208540420111816,5.673403973163907,-2.412808257069336,-9.556358530150808,20.625454332160285
7.520297720032894,4.112976834810308,5.649275890593214,-2.2065537137477333,-8.718422734997253,19.38608048277084
7.561427488380997,4.025792607460335,5.6272103534557365,-2.012692908920025,-8.02923759538139,18.27161863015378
7.6016854144556,3.9455002315065215,5.607083424366536,-1.829976722618487,-7.469000326517566,17.250695826893065
7.641140416770665,3.870810228241346,5.588783657140351,-1.6574697643495564,-7.02189345764521,16.298177907075598
7.6798485190530785,3.800591293664894,5.572208959496856,-1.4944879852788004,-6.675000767196764,15.394005960623604
7.7178544319897275,3.733841285992926,5.557264079644068,-1.3405479256725643,-6.417476486406571,14.522362385892873
7.755192844849657,3.6696665211288604,5.543858600387343,-1.1953243018136357,-6.239908009140188,13.671067833264434
7.791889510060946,3.6072674410374583,5.531905357369206,-1.0586136234809913,-6.133830600144359,12.83113330158213
7.82796218447132,3.545929135036015,5.521319221134396,-0.93030229046517,-6.091365510118736,11.99640937914302
7.8634214758216805,3.4850154799348276,5.512016198229745,-0.8103381966737397,-6.104961458314287,11.163288696526964
7.8982716306210285,3.423965865351685,5.503912816263007,-0.6987053097084701,-6.1672245936943115,10.330429386104047
7.9325112892745455,3.362293619414742,5.4969257631659225,-0.5954010158474297,-6.27082466116764,9.498477577495402
7.966134225468693,3.2995853728030653,5.490971753007448,-0.5004162400724756,-6.408465962098201,8.669776106032597
7.999130079196724,3.235500713182083,5.485967590606724,-0.4137184790121497,-6.572911518464555,7.848054716335881
8.031485086328544,3.1697715979974377,5.481830405816602,-0.3352379318487909,-6.75704825731949,7.038103913020265
8.06318280230852,3.1022011154242426,5.478478026498114,-0.26485689271858825,-6.953980546898581,6.245439957159908
8.094204813462762,3.0326613099552566,5.475829457570928,-0.20240249314698916,-7.157139413980763,5.475972079216254
8.124531426562314,2.961089915815449,5.473805432639458,-0.14764277235482662,-7.3603954609383155,4.735684663648355
8.154142325720468,2.887485961206066,5.47232900491591,-0.10028592571834308,-7.558164915305373,4.030347036667977
8.183017185332528,2.8119043120530125,5.471326145658726,-0.05998245535166331,-7.745500270839143,3.365261829186567
8.211136228453057,2.734449309344621,5.47072632110521,-0.02632983705979764,-7.9181593995225565,2.745060112915814
8.238480721546503,2.6552677153493955,5.470463022734612,0.0011207640693604998,-8.07264956418142,2.1735481144454476
8.265033398699998,2.5745412197075814,5.470474230375306,0.022856245213814977,-8.206245184583976,1.6536067891973167
8.290778810897073,2.4924787678617415,5.470702792827444,0.03939231310578814,-8.316980299635196,1.1871422986555318
8.315703598575691,2.4093089648653896,5.4710967159585016,0.051263736092343457,-8.403618292553853,0.7750827755828158
8.339796688224345,2.325272781939851,5.471609353319425,0.059014563848171615,-8.465602552038767,0.41741484469321843
8.363049416043744,2.2406167564194632,5.472199498957907,0.0631887122951038,-8.502992346706835,0.11325222858628198
8.385455583607937,2.155586832952395,5.472831386080858,0.06432123458096661,-8.516388358462782,-0.1390716477212028
8.40701145193746,2.0704229493677673,5.473474598426668,0.06293051810375458,-8.506852146464551,-0.3418949563391994
8.427715681431138,1.9853544279031217,5.4741039036077055,0.05951156854036258,-8.475823398323193,-0.4981099383427634
8.44756922571017,1.9005961939198897,5.4746990192931095,0.05453046915693495,-8.425038263656988,-0.6110428837476635
8.466575187649369,1.8163458112833197,5.475244323984679,0.04842004031945831,-8.356451436148479,-0.6843368621724544
8.484738645762201,1.732781296921835,5.475728524387874,0.04157667169773377,-8.272164013980438,-0.7218413043221079
8.50206645873142,1.6500596567820307,5.476144291104851,0.03435825865451269,-8.174358566653048,-0.7275114265602424
8.51856705529924,1.5683160711155002,5.476487873691396,0.027083144388910265,-8.06524229464269,-0.7053194746349752
8.534250216010395,1.4876636481690733,5.4767587051352855,0.020029949642560513,-7.94699870087864,-0.6591788726704358
8.549126852492087,1.4081936611602868,5.476959004631711,0.013438160915856156,-7.8217478045965825,-0.5928816167056413
8.56320878910369,1.3299761831143209,5.4770933862408695,0.007509344748799742,-7.691514617983036,-0.5100486521536539
8.576508550934834,1.2530610369344906,5.477168479688357,0.002408858227263203,-7.558205369731171,-0.4140925162365185
8.589039161304179,1.1774789832371788,5.47719256827063,-0.001732066935101982,-7.423590790615005,-0.3081911983745499
8.60081395113655,1.1032430753310287,5.477175247601279,-0.004813978918847481,-7.289295666693024,-0.1952719586545267
8.61184638188986,1.0303501186640984,5.47712710781209,-0.006766698505392748,-7.1567938074224156,-0.07800372992796376
8.622149883076501,0.9587821805898743,5.477059440827036,-0.007546735804672386,-7.027407560260488,0.04120330477953373
8.6317377048824,0.8885081049872694,5.47698397346899,-0.007134702756877049,-6.902311021825091,0.1601923382798251
8.640622785932273,0.8194849947690185,5.476912626441421,-0.005532779374078797,-6.782536140319824,0.27705007054438363
8.648817635879963,0.7516596333658202,5.47685729864768,-0.0027622786686349607,-6.668980967225031,0.39009353777042816
8.656334232213622,0.6849698236935698,5.476829675860993,0.001138656709069321,-6.562419391507452,0.497854702291399
8.663183930450558,0.6193456297784954,5.476841062428084,0.006117203731983311,-6.463511771008649,0.5990637278777201
8.669377386748343,0.5547105120684089,5.476902234465404,0.012107841010760512,-6.372815958431335,0.6926317257175474
8.674924491869026,0.4909823524840956,5.477023312875512,0.019034158267935985,-6.290798299661888,0.7776336228744762
8.679834315393867,0.42807436948747674,5.4772136544581915,0.02681049449668075,-6.21784425724692,0.85329168185574
8.684115059088741,0.36589592691500755,5.477481759403158,0.035343411315238146,-6.154268379796763,0.9189600899826037
8.687774018357892,0.30435324311703993,5.47783519351631,0.044533012215064186,-6.100323397843189,0.974110942013062
8.690817550789063,0.24335000913860805,5.478280523638461,0.05427412163519481,-6.056208277846694,1.0183218592498493
8.69325105088045,0.1827879263601411,5.478823264854813,0.0644573402276933,-6.022075108801368,1.0512654226052796
8.695078930144051,0.12256717527212742,5.47946783825709,0.0749699944537461,-5.998034730834878,1.0727005445457225
8.696304601896772,0.06258682796377864,5.480217538201628,0.08569699989920332,-5.984161043282486,1.082465863789046
8.69693047017641,0.002745217530953775,5.48107450820062,0.09652165853709378,-5.980493952100781,1.0804752150381254
8.69695792235172,-0.05705972199005404,5.482039724785991,0.10732641068747503,-5.987040934505399,1.066715201667555
8.69638732513182,-0.11693013133510803,5.483112988892866,0.11799356270415058,-6.003777213795909,1.041244879785119
8.69521802381847,-0.17696790347306712,5.484292924519907,0.12840601150200176,-6.030644550948941,1.0041975450604481
8.69344834478374,-0.23727434898255653,5.4855769846349265,0.13844798695260624,-6.067548673211416,0.9557845967394644
8.691075601293914,-0.2979498357146707,5.486961464504453,0.14800583292000088,-6.114355375087576,0.8963014339600643
8.688096102936766,-0.3590933894655465,5.488441522833653,0.15696884725960153,-6.170885345211616,0.8261353155361011
8.684505169042112,-0.42080224291766266,5.490011211306249,0.16523020041496253,-6.236907794965684,0.7457750835811221
8.680297146612935,-0.4831713208673195,5.491663513310399,0.17268795125077374,-6.312132992529931,0.6558226116827665
8.675465433404261,-0.5462926507926188,5.493390392822906,0.1792461773676014,-6.396203840310993,0.5570057880745902
8.670002506896335,-0.6102546891957288,5.495182854596583,0.1848162352483473,-6.488686675065013,0.45019278205091057
8.663899960004377,-0.6751415559463789,5.497031016949066,0.1893181630688564,-6.589061518778287,0.3364072669723229
8.657148544444913,-0.7410321711341618,5.498924198579754,0.19268223573857962,-6.696712064239675,0.21684418561732527
8.649738222733571,-0.8079992917765585,5.50085102093714,0.19485067759475289,-6.810915741324837,0.09288554434290207
8.641658229815805,-0.8761084491898069,5.502799527713088,0.1957795330381819,-6.930834276625338,-0.033884386261440066
8.632897145323907,-0.9454167919560603,5.50475732304347,0.1954406891755675,-7.055505227627756,-0.16166520115001046
8.623442977404347,-1.0159718442323378,5.506711729935225,0.1938240371640674,-7.183835039660183,-0.2884286731096307
8.613283258962023,-1.0878101946289396,5.508649970306866,0.1909397504329711,-7.314594234813542,-0.41191020835031006
8.602405157015733,-1.1609561369770751,5.5105593678111955,0.186820648349468,-7.4464153916899125,-0.5296044997422223
8.590795595645963,-1.2354202908939742,5.51242757429469,0.18152460335204576,-7.577794607143098,-0.6387665002182235
8.578441392737023,-1.3111982369654052,5.51424282032821,0.17513693834986352,-7.70709713982142,-0.7364188702764513
8.565329410367369,-1.3882692083636194,5.515994189711709,0.167772749647099,-7.832567914038172,-0.8193670362123626
8.551446718283733,-1.4665948875040011,5.51767191720818,0.1595790792849754,-7.952347505611367,-0.8842229179092327
8.536780769408693,-1.5461183625601147,5.5192677080010295,0.15073685010588306,-8.064494134313122,-0.9274382360546437
8.521319585783091,-1.6267633039032459,5.520775076502089,0.1414624677453366,-8.1670120476272,-0.9453480799822997
8.50505195274406,-1.7084334243795178,5.522189701179542,0.1320089869455136,-8.257886496953168,-0.9342251035418591
8.487967618500264,-1.7910122893490494,5.523509791048997,0.12266673591009501,-8.335125281973207,-0.8903443160802343
8.470057495606774,-1.8743635421687814,5.524736458408098,0.11376329274929267,-8.396806575888782,-0.8100579521320352
8.451313860185087,-1.9583316079276694,5.525874091335591,0.10566271322797231,-8.44113245030835,-0.6898793453608939
8.43173054410581,-2.0427429324307527,5.52693071846787,0.09876391977436337,-8.466487202510127,-0.5265741137882033
8.411303114781502,-2.1274078044558538,5.527918357665614,0.09349817863648134,-8.471499260213779,-0.31725630419196127
8.390029036736943,-2.2121227970579915,5.528853339451979,0.09032561559456173,-8.455105112100277,-0.05948646937975596
8.367907808766363,-2.2966738481789943,5.529756595607925,0.08973075090076417,-8.416613400094406,0.24863200545979178
8.344941070284573,-2.380839982179938,5.530653903116932,0.0922170709553621,-8.355767028103715,0.6083626137739618
8.321132670462774,-2.4643976524609754,5.531576073826486,0.09830069709310171,-8.272800910857644,1.020256265268998
8.296488693938164,-2.547125661569552,5.532559080797417,0.1085032597457917,-8.168492829232543,1.4840877904911605
8.271017437322469,-2.628810589861877,5.533644113394875,0.1233441376507033,-8.044204803359865,1.998813694641214
8.24472933142385,-2.7092526378954758,5.5348775547713815,0.14333227459711545,-7.901912474893595,2.5625563154501516
8.217636805044895,-2.7882717626444116,5.536310877517352,0.16895783775161696,-7.744220240797985,3.1726190860544237
8.189754087418452,-2.8657139650523913,5.538000455894869,0.2006840286121612,-7.574360337331881,3.825536778543772
