th1 (rad),w1 (rad/s),th2 (rad),w2 (rad/s),a1 (rad/s^2),a2 (rad/s^2)
5.627317054251495,-2.907648763420122,1.579431150025646,-2.7395044529966266,4.762344090620267,-13.518366985720473
5.598240566617294,-2.860025322513919,1.5520361054956797,-2.8746881228538315,5.479950589881972,-12.842511646014684
5.569640313392155,-2.805225816615099,1.5232892242671414,-3.0031132393139783,6.209451136148283,-12.139709933220804
5.541588055226003,-2.743131305253616,1.4932580918740017,-3.1245103386461865,6.945784766627254,-11.415474127596626
5.514156742173467,-2.6736734575873435,1.46201298848754,-3.238665079922153,7.6838331932581605,-10.675703429165335
5.487420007597594,-2.5968351256547617,1.4296263376883185,-3.3454221142138065,8.418467517342888,-9.926647517600028
5.461451656341046,-2.512650450481333,1.3961721165461805,-3.444688589389807,9.144600723312761,-9.174866980724794
5.4363251518362325,-2.421204443248205,1.3617252306522825,-3.5364372591970548,9.857248062070491,-8.427187327827534
5.4121131074037505,-2.3226319626275003,1.326360858060312,-3.62070913247533,10.551596762703236,-7.690643783838006
5.3888867877774755,-2.217115995000468,1.2901537667355587,-3.69761557031371,11.223085511488502,-6.972415054842803
5.366715627827471,-2.104885139885583,1.2531776110324215,-3.7673397208621378,11.867492919812973,-6.27974566804319
5.345666776428615,-1.9862102106874533,1.2155042138238001,-3.8301371775425697,12.481032916051209,-5.619858166897701
5.32580467432174,-1.8613998815269412,1.1772028420483744,-3.886335759211547,13.06045380949871,-4.999858191754785
5.307190675506471,-1.730795343431954,1.1383394844562589,-3.9363343411290947,13.603136855337386,-4.426637088879453
5.289882722072151,-1.5947639748785802,1.0989761410449679,-3.9806007120178895,14.107189642396525,-3.9067779700743634
5.273935082323365,-1.453692078454615,1.059170133924789,-4.019668491718633,14.571529628315117,-3.446471935878297
5.259398161538819,-1.3079767821714638,1.0189734490076026,-4.054133211077416,14.995953695900932,-3.0514513874260603
5.246318393717104,-1.1580172452124544,0.9784321168968284,-4.084647724951677,15.381190667747516,-2.72694697502867
5.234738221264979,-1.0042053385349792,0.9375856396473117,-4.111917194701964,15.728935197076765,-2.4776738369655313
5.224696167879629,-0.8469159865642115,0.896466467700292,-4.136693933071619,16.04186320577218,-2.3078515126354358
5.216227008013987,-0.6864973545064897,0.8550995283695758,-4.159772448197973,16.323630893864554,-2.221260461854627
5.2093620344689215,-0.5232610455678441,0.8135018038875961,-4.181985052816519,16.5788611263543,-2.221336698017477
5.204129424013243,-0.3574724343043011,0.7716819533594309,-4.204198419796694,16.813122564787186,-2.311304846144364
5.2005546996702,-0.18934120865642923,0.729639969161464,-4.227311468258137,17.032908143763773,-2.4943491249446184
5.198661287583636,-0.019012127218791502,0.6873668544788827,-4.252254959507583,17.245620331973356,-2.773821415737134
5.198471166311449,0.15344407610094207,0.6448443048838068,-4.279993173664955,17.4595710322186,-3.153485722951407
5.200005607072458,0.3280397864231281,0.6020443731471573,-4.311528030894468,17.684003938484054,-3.6377988403677666
5.20328600493669,0.5048798258079686,0.5589290928382127,-4.347906019298146,17.92914660526765,-4.2322276487043275
5.208334803194769,0.6841712918606452,0.5154500326452313,-4.39022829578519,18.20629818294352,-4.943603679923614
5.215176516113376,0.8662342736900803,0.47154774968737934,-4.439664332584426,18.527956233419417,-5.780514481757165
5.223838858850276,1.0515138360242746,0.4271511063615351,-4.497469477401998,18.907981212693592,-6.753727254988354
5.234353997210519,1.2405936481512105,0.3821764115875151,-4.565006749951881,19.361788013055033,-7.876630192442176
5.246759933692031,1.434211528281761,0.33652634408799625,-4.643773051876303,19.906536408787534,-9.165655307049944
5.261102048974849,1.6332768923696364,0.2900886135692332,-4.735429604946802,20.561258798224454,-10.640602792763625
5.277434817898546,1.838889480351881,0.2427343175197652,-4.841835632874438,21.34680010585786,-12.324701418809331
5.295823712702065,2.0523574814104597,0.19431596119102082,-4.965082647062531,22.285324647132594,-14.244075274667681
5.3163472875161695,2.2752107278817855,0.1446651347203955,-5.107523399809208,23.398919369204094,-16.425976160975456
5.339099394794987,2.5091999215738263,0.09358990072230342,-5.271783161418963,24.706404327421083,-18.89455978524494
5.364191394010725,2.756263964848037,0.040872069108113786,-5.460728759271412,26.21669948914612,-21.66192102145971
5.391754033659206,3.0184309597394985,-0.01373521848460034,-5.67734796948601,27.915764656989168,-24.710235734990903
5.421938343256601,3.29758860630939,-0.07050869817946044,-5.9244503268359185,29.74198688427162,-27.957836216538876
5.454914229319694,3.595008475152106,-0.12975320144781963,-6.204028689001308,31.542089928172295,-31.198059901526143
5.4908643140712154,3.910429374433829,-0.19179348833783272,-6.516009288016569,32.998234691950216,-33.997574704400776
5.529968607815554,4.240411721353331,-0.2569535812179984,-6.855985035060577,33.525171301513076,-35.552002978669165
5.572372725029087,4.575663434368462,-0.32551343156860413,-7.211505064847269,32.17633803319548,-34.552141257429724
5.618129359372772,4.897426814700417,-0.3976284822170768,-7.557026477421566,27.704417445329945,-29.262760116700374
5.667103627519777,5.174470989153717,-0.4731987469912925,-7.84965407858857,19.06634639668138,-18.218548916442703
5.7188483374113135,5.365134453120531,-0.5516952877771781,-8.031839567752996,6.525395092205329,-1.752259438557657
5.772499681942519,5.430388404042584,-0.6320136834547081,-8.049362162138573,-7.442661200349866,16.74658706971237
5.826803565982945,5.355961792039086,-0.7125073050760938,-7.88189629144145,-19.10225194505193,32.15293171037339
5.880363183903336,5.164939272588566,-0.7913262679905083,-7.560366974337716,-26.035928047181752,41.17146390561856
5.932012576629222,4.904579992116749,-0.8669299377338855,-7.148652335281531,-28.378311746865894,44.02156259864869
5.981058376550389,4.620796874648089,-0.9384164610867008,-6.708436709295044,-27.69373512661872,42.86668927453652
6.02726634529687,4.343859523381902,-1.0055008281796514,-6.2797698165496785,-25.525647333960386,39.815669552634354
6.070704940530689,4.088603050042298,-1.068298526345148,-5.881613121023335,-22.86007658724634,36.19852169743753
6.111590971031112,3.860002284169835,-1.1271146575553814,-5.51962790404896,-20.1960172804663,32.67519382172889
6.15019099387281,3.6580421113651718,-1.182310936595871,-5.192875965831671,-17.741967060418297,29.51081917226789
6.186771414986461,3.480622440760989,-1.2342396962541877,-4.897767774108993,-15.56108475789958,26.77597065051052
6.221577639394071,3.3250115931819932,-1.2832173739952777,-4.630008067603888,-13.652026055689015,24.45686916403885
6.254827755325891,3.188491332625103,-1.3295174546713167,-4.385439375963499,-11.988685547309885,22.50882337979317
6.286712668652142,3.0686044771520042,-1.3733718484309516,-4.160351142165568,-10.53828774434258,20.88007771653387
6.317398713423662,2.9632215997085782,-1.4149753598526074,-3.951550365000229,-9.269001004534369,19.521508240639687
6.347030929420748,2.8705315896632344,-1.4544908635026097,-3.756335282593832,-8.15272835073463,18.389903155124163
6.37573624531738,2.789004306155888,-1.492054216328548,-3.5724362510425904,-7.165779142550345,17.44848967286921
6.4036262883789385,2.7173465147303846,-1.527778578838974,-3.397951354313898,-6.288674344606525,16.666382654444547
6.430799753526243,2.654459771284319,-1.5617580923821128,-3.2312875277694526,-5.505649505107178,16.017697112160114
6.457344351239086,2.5994032762332475,-1.5940709676598073,-3.0711105566478514,-4.804098848723137,15.480637332936277
6.483338384001418,2.551362287746016,-1.6247820732262859,-2.9163041833184886,-4.174056828866258,15.036681769629237
6.508852006878878,2.5096217194573534,-1.6539451150594708,-2.765937365622196,-3.607747582049838,14.669898243413636
6.533948224073452,2.473544243636855,-1.681604488715693,-2.6192383831880597,-3.09920448483836,14.36638921963252
6.55868366650982,2.4425521987884715,-1.7077968725475734,-2.4755744909917343,-2.643951065664255,14.113854467277179
6.583109188497705,2.416112688131829,-1.7325526174574908,-2.3344359463189623,-2.238731365864632,13.90125554695853
6.607270315379023,2.3937253744731826,-1.7558969769206805,-2.195423390849377,-1.881278075567885,13.718567429028331
6.631207569123755,2.3749125937175037,-1.7778512108291742,-2.058237716559094,-1.5701083859416567,13.556604466076028
6.65495669506093,2.359211509858087,-1.798433587994765,-1.9226716718983337,-1.3043396129694023,13.406909776808872
6.678548810159511,2.346168113728393,-1.8176603047137483,-1.788602574130245,-1.0835188810742549,13.261698392992036
6.702010491296795,2.33533292491765,-1.8355463304550508,-1.6559855902003247,-0.9074633453688578,13.11384517093296
6.725363820545971,2.3262582914639616,-1.852106186357054,-1.524847138490995,-0.7761094928759905,12.95690854237347
6.748626403460611,2.3184971965352017,-1.867354657741964,-1.3952780530672602,-0.6893719211930117,12.785180843733487
6.771811375425964,2.3116034773232714,-1.8813074382726365,-1.2674262446299254,-0.6470135607644286,12.593755443259502
6.794927410199197,2.305133341715627,-1.8939817007189357,-1.1414886901973302,-0.6485304839820163,12.378600437666229
6.8179787436163535,2.298648036875807,-1.905396587620909,-1.017702685820668,-0.6930551310115385,12.136628566369875
6.840965223985112,2.2917174855656914,-1.9155736144791156,-0.8963364001569691,-0.779281900937312,11.86575340857248
6.863882398840769,2.2839246665563184,-1.9245369784806852,-0.7776788660712444,-0.9054185755315279,11.564923029542845
6.886721645506332,2.274870480801003,-1.9323137671413977,-0.662029635775816,-1.0691659942753073,11.234124067591205
6.909470350314342,2.26417882085825,-1.9389340634991559,-0.5496883950999039,-1.2677268888590492,10.874351723022228
6.932112138522924,2.2515015519696595,-1.9444309474501549,-0.44094487786968156,-1.4978429862692448,10.487544029501471
6.954627154042621,2.2365231221069672,-1.9488403962288516,-0.33606943757466684,-1.755857621356196,10.076481871787449
6.97699238526369,2.2189645458934053,-1.9522010906045983,-0.23530461885679235,-2.0377993964396963,9.644659132060502
6.999182030722625,2.1985865519290084,-1.9545541367931663,-0.1388580275361873,-2.339481098119871,9.19612978134862
7.021167896241915,2.1751917409478096,-1.9559427170685282,-0.046896729722701105,-2.656607284315841,8.73534042875664
7.042919813651393,2.148625668104651,-1.9564116843657553,0.04045667456486529,-2.98488376227463,8.266957650595888
7.064406070332439,2.118776830481905,-1.9560071176201066,0.12312625107082417,-3.3201225786072643,7.795699319608582
7.085593838637259,2.0855756046958325,-1.9547758551093983,0.20108324426691,-3.658337045299949,7.32617823579706
7.106449594684217,2.048992234242833,-1.9527650226667292,0.2743450266248806,-3.99582258546883,6.862764812218176
7.126939517026646,2.0090340083881446,-1.9500215724004804,0.34297267474706233,-4.3292206271753075,6.409473632334577
7.147029857110527,1.9657418021163915,-1.9465918456530098,0.4070674110704081,-4.65556423335499,5.969876621900816
7.166687275131691,1.9191861597828417,-1.9425211715423056,0.4667661772894163,-4.9723054876506945,5.54704359342425
7.18587913672952,1.8694631049063348,-1.9378535097694114,0.5222366132236588,-5.277325757607969,5.143509198474014
7.204573767778584,1.816689847330255,-1.9326311436371748,0.5736717052083989,-5.568930772429914,4.761263971815776
7.2227406662518865,1.761000539605956,-1.926894426585091,0.6212843449265567,-5.845832969460243,4.401766217012629
7.240350671647946,1.7025422099113536,-1.9206815831358253,0.665302007096683,-6.107123803189177,4.065970957080537
7.25737609374706,1.6414709718794618,-1.9140285630648584,0.7059617166674883,-6.352238717182969,3.7543720079767597
7.273790803465855,1.577948584707632,-1.9069689458981836,0.7435054367472559,-6.580917308822159,3.4670533557898096
7.289570289312931,1.5121394116194105,-1.899533891530711,0.778175970305154,-6.793160927012547,3.203746350317157
7.304691683429126,1.444207802349285,-1.8917521318276593,0.8102134338083256,-6.989189587157478,2.963889690468394
7.319133761452619,1.3743159064777102,-1.8836499974895762,0.8398523307130095,-7.16939970973587,2.746689702598762
7.332876920517396,1.3026219093803515,-1.875251474182446,0.8673192277389971,-7.3343238222609335,2.5511789470588484
7.3459031396112,1.2292786711577421,-1.866578281905056,0.8928310172095856,-7.484593032110921,2.376271691172668
7.358195926322777,1.1544327408366328,-1.8576499717329602,0.9165937341213123,-7.620902793352342,2.220815232455099
7.369740253731143,1.0782237129031094,-1.848484034391747,0.9388018864458633,-7.743982260355011,2.0836364297211567
7.380522490860174,1.0007838902995592,-1.8390960155272884,0.9596382507430748,-7.854567345291124,1.9635830965431667
7.39053032976317,0.9222382168466479,-1.8294996330198576,0.9792740817085065,-7.953377472258261,1.8595601326738103
7.399752711931636,0.8427044421240653,-1.8197068922027726,0.9978696830352446,-8.041095942130305,1.7705604204879413
7.408179756352877,0.7622934827027622,-1.8097281953724202,1.015575287240124,-8.118353782379996,1.6956906039186954
7.415802691179905,0.6811099448789623,-1.799572442500019,1.032532193279311,-8.185716947527387,1.6341919070400863
7.422613790628694,0.5992527754036884,-1.789247120567226,1.0488741123497118,-8.243676750922658,1.5854561493705883
7.428606318382731,0.5168160078944618,-1.778758379443729,1.0647286738434176,-8.292643439741866,1.5490370863776024
7.433774478461676,0.43388957349704316,-1.7681110927052948,1.0802190447071935,-8.332942865008325,1.524657157796841
7.4381133741966465,0.3505601448469599,-1.757308902258223,1.095465616285162,-8.364816239970345,1.5122096744083393
7.441618975645116,0.26691198244725645,-1.7463542460953714,1.1105877130292454,-8.388423016253858,1.511756426866521
7.444288095469588,0.18302775228471785,-1.7352483689650788,1.1257052772979106,-8.403846931054508,1.523520668875968
7.446118372992435,0.09898928297417277,-1.7239913161920997,1.1409404839866704,-8.4111052837741,1.5478754217989266
7.447108265822177,0.014878230136431761,-1.712581911352233,1.1564192382046596,-8.410161481096011,1.585327078175128
7.447257048123541,-0.06922338467452835,-1.7010177189701863,1.172272508986411,-8.40094084074597,1.6364943556204397
7.446564814276796,-0.15323279308198806,-1.6892949938803221,1.1886374525426153,-8.38334956295085,1.702082775754825
7.445032486345976,-0.23706628871149654,-1.677408619354896,1.2056582803001636,-8.357296664086272,1.7828550173491926
7.442661823458861,-0.32063925535235926,-1.6653520365518943,1.2234868304736555,-8.322718521482004,1.8795977163344826
7.439455430905338,-0.4038664405671793,-1.6531171682471577,1.2422828076370003,-8.279605507893372,1.9930855495769626
7.435416766499666,-0.486662495646113,-1.6406943401707876,1.2622136631327698,-8.228030009045328,2.124043729855954
7.430550141543205,-0.5689427957365663,-1.62807220353946,1.2834541004313293,-8.168174932534512,2.273110335117154
7.424860713585839,-0.6506245450619114,-1.6152376625351466,1.3061852037825008,-8.100361649714172,2.4408001686459064
7.41835446813522,-0.7316281615590531,-1.6021758104973216,1.3305932054689598,-8.025076185196731,2.6274720667926847
7.4110381865196295,-0.8118789234110204,-1.588869878442632,1.3568679261368866,-7.942992403379887,2.8333017041938007
7.402919397285519,-0.8913088474448193,-1.575301199181263,1.3852009431788246,-7.854990958422293,3.05826196220537
7.394006308811071,-0.9698587570290422,-1.5614491897494749,1.4157835628008784,-7.762172889347652,3.3021128003835876
7.384307721240781,-1.0474804859225189,-1.5472913541214661,1.4488046908047143,-7.665866963972557,3.5644022905780215
7.373832916381556,-1.1241391555622444,-1.532803307213419,1.4844487137104945,-7.567630202703466,3.8444800413049967
7.362591524825933,-1.199815457589279,-1.517958820076314,1.5228935141235445,-7.469241432996766,4.14152367740796
7.35059337025004,-1.2745078719192466,-1.5027298849350788,1.5643087508976241,-7.372688212886933,4.454578386071535
7.337848291530848,-1.3482347540481159,-1.4870867974261026,1.6088545347583394,-7.280147982963898,4.78260885095232
7.324365943990366,-1.421036233877755,-1.4709982520785192,1.6566806232678626,-7.193964819484573,5.12456223896135
7.310155581651588,-1.4929758820726007,-1.4544314458458405,1.7079262456574762,-7.116623624243913,5.479440350861698
7.295225822830862,-1.56414211831504,-1.4373521833892657,1.7627206491660932,-7.050723960800532,5.846378664955078
7.279584401647712,-1.6346493579230452,-1.4197249768976048,1.821184435815644,-6.998956002850819,6.224729847757417
7.263237908068482,-1.7046389179515533,-1.4015131325394483,1.883431734293218,-6.964081184760796,6.614149412256728
7.246191518888966,-1.7742797297991613,-1.3826788151965161,1.9495732284157854,-6.948920139885674,7.0146815851752855
7.228448721590975,-1.843768931198018,-1.3631830829123583,2.019720044267538,-6.956350401057068,7.42684408795846
7.210011032278994,-1.9133324352085888,-1.342985882469683,2.0939884851471224,-6.989316157918087,7.851711410289176
7.190877707926909,-1.9832255967877697,-1.3220459976182117,2.172505599250014,-7.0508521690927335,8.290997215155251
7.1710454519590305,-2.053734118478697,-1.3003209416257115,2.2554155714015667,-7.1441237730142415,8.747137712643788
7.150508110774243,-2.1251753562088394,-1.277766785911696,2.3428869485280046,-7.272484891802231,9.22337913378311
7.129256357212155,-2.1979002051268615,-1.254337916426416,2.4351207398658357,-7.439556037672757,9.723873799040847
7.107277355160886,-2.272295765503589,-1.2299867090277576,2.532359477856244,-7.649324664020399,10.253790702476625
7.08455439750585,-2.348789012143793,-1.2046631142491953,2.63489738488101,-7.906270795657935,10.819448037690465
7.061066507384412,-2.4278517201003726,-1.1783141404003852,2.743091865257915,-8.215521750341365,11.428476706352633
7.0367879901834085,-2.5100069376037863,-1.150883221747806,2.8573766323214413,-8.583040924735222,12.090025601590078
7.011687920807371,-2.5958373468511384,-1.1223094554245916,2.978276888337342,-9.015857008898145,12.815021331295844
6.98572954733886,-2.68599591694012,-1.0925266865412182,3.1064271016503007,-9.522341457112308,13.616496903040863
6.958869588169459,-2.781219331511243,-1.0614624155247152,3.2425920706807094,-10.112543209662237,14.51000531622898
6.931057394854347,-2.882344763607865,-1.029036494817908,3.3876921238429993,-10.798589723551343,15.514133989517932
6.902233947218268,-2.9903306608433784,-0.995159573579478,3.5428334637381784,-11.59516063210206,16.6511322610442
6.872330640609834,-3.106282267164399,-0.9597312389420962,3.7093447863486206,-12.520031302533221,17.94765210834914
6.84126781793819,-3.231482580189731,-0.92263779107861,3.888821307432112,-13.594661001217473,19.43557193150871
6.808952992136293,-3.367429190201906,-0.8837495780042889,4.083177026747199,-14.84474961902126,21.1528045424102
6.775278700234273,-3.5158766863921183,-0.8429178077368169,4.294705072171301,-16.300578004891147,23.143842038932455
6.7401199333703525,-3.6788824664410296,-0.7999707570151039,4.526143492560626,-17.996718930754092,25.459477455145223
6.703331108705942,-3.8588496557485703,-0.7547093220894976,4.780738267112079,-19.970235085666904,28.154494125716685
6.664742612148457,-4.05855200660524,-0.7069019394183768,5.062283208369245,-22.255521057640905,31.280784809343825
6.624157092082404,-4.281107217181649,-0.6562791073346843,5.375091056462684,-24.872025521162403,34.870691809323745
6.581346019910588,-4.529827472393273,-0.6025281967700574,5.7237979745559215,-27.79738173322004,38.90018420801917
6.536047745186655,-4.807801289725473,-0.5452902170244982,6.112799816636113,-30.91187478182758,43.212241440282504
6.4879697322894,-5.116920037543749,-0.48416221885813704,6.544922231038939,-33.89067705055652,47.36742633789956
6.4368005319139625,-5.455826808049314,-0.41871299654774763,7.018596494417935,-36.01562040551109,50.381801327878996
6.3822422638334695,-5.815983012104425,-0.3485270316035683,7.522414507696725,-35.915687769227866,50.364025938633695
