th1 (rad),w1 (rad/s),th2 (rad),w2 (rad/s),a1 (rad/s^2),a2 (rad/s^2)
2.372854327787956,3.1160444110815657,1.0330088220473868,-2.2869053424767554,-9.732237399847168,3.2629995798195264
2.4040147718987717,3.018722037083094,1.0101397686226192,-2.25427534667856,-9.294671298892315,2.306615338642966
2.4342019922696028,2.925775324094171,0.9875970151558336,-2.23120919329213,-8.926474050377418,1.4198658849291015
2.4634597455105443,2.8365105835903965,0.9652849232229124,-2.217010534442839,-8.620515128050243,0.5924009745408975
2.4918248513464483,2.750305432309894,0.943114817878484,-2.21108652469743,-8.370829744949615,-0.18483367316582644
2.519327905669547,2.666597134860398,0.9210039526315097,-2.2129348614290882,-8.172463915167905,-0.9197462750901757
2.545993877018151,2.584872495708719,0.8988746040172189,-2.22213232417999,-8.021325726849845,-1.6192456409500366
2.5718426019752383,2.50465923844022,0.8766532807754189,-2.2383247805894904,-7.914048466003872,-2.289371882273728
2.5968891943596404,2.4255187537801817,0.854270032969524,-2.2612184994122275,-7.847866402090571,-2.9354056094968355
2.6211443818974423,2.347040089759276,0.8316578479754017,-2.290572555507196,-7.820501588722698,-3.5619535617644815
2.644614782795035,2.2688350738720486,0.8087521224203297,-2.326192091124841,-7.830058816772827,-4.173010136814188
2.667303133533755,2.1905344857043203,0.7854902015090812,-2.3679221924929825,-7.874925267967578,-4.771994736354801
2.6892084783907984,2.1117852330246447,0.7618109795841514,-2.4156421398565304,-7.953671126438547,-5.361764723555124
2.710326330721045,2.032248521760259,0.7376545581855861,-2.469259787092082,-8.064947248026522,-5.944603393360881
2.7306488159386477,1.9515990492799937,0.7129619603146653,-2.5287058210256905,-8.207375893416312,-6.5221818609985425
2.7501648064314477,1.8695252903458306,0.6876749021044084,-2.593927639635676,-8.37943049628954,-7.095493307830338
2.768860059334906,1.7857309853829353,0.6617356257080517,-2.6648825727139793,-8.579300506812563,-7.664757706841673
2.7867173691887355,1.6999379803148096,0.6350867999809119,-2.741530149782396,-8.804737617585301,-8.229295123188702
2.8037167489918837,1.6118906041389565,0.6076714984830879,-2.8238231010142827,-9.052880291032725,-8.787366132981107
2.8198356550332733,1.5213618012286292,0.5794332674729451,-2.9116967623440937,-9.320054673853091,-9.33597907352716
2.8350492730455596,1.4281612544900983,0.5503162998495041,-3.005056553079365,-9.601551985307236,-9.870666054914622
2.8493308855904607,1.332145734637026,0.5202657343187105,-3.103763213628511,-9.891385651626,-10.385233328396602
2.862652342936831,1.233231878120766,0.48922810218242535,-3.207615546912477,-10.182036230047142,-10.87149717976181
2.8749846617180386,1.1314115158202946,0.45715194671330056,-3.316330518710095,-10.464198923069295,-11.319024444938089
2.8862987768762416,1.0267695265896017,0.42398864152619964,-3.429520763159476,-10.726557515561048,-11.714907337630308
2.896566472142138,0.9195039514339912,0.38969343389460487,-3.5466698365357794,-10.955619860641903,-12.043615468272302
2.9057615116564777,0.8099477528275721,0.35422673552924705,-3.6671059912185022,-11.135662983509938,-12.286982926605697
2.9138609891847533,0.6985911229924727,0.31755567561706205,-3.789975820484559,-11.248848863214045,-12.424403108651301
2.920846900414678,0.5861026343603323,0.27965591741221646,-3.914219851571072,-11.275581965000402,-12.433314903464563
2.926707926758281,0.47334681471032825,0.24051371889650575,-4.0385530006057175,-11.195181872323126,-12.290065180122458
2.9314413949053844,0.361394995987097,0.20012818889044856,-4.1614536524069425,-10.986932534021497,-11.971216631663921
2.935055344865255,0.251525670646882,0.15851365236637913,-4.281165818723582,-10.631536682642471,-11.455328708558705
2.937570601571724,0.1452103038204573,0.11570199417914331,-4.395719105809169,-10.11294450111699,-10.72516653234914
2.9390227046099286,0.04408085880928739,0.07174480312105162,-4.50297077113266,-9.420439514779646,-9.770188839414878
2.9394635131980213,-0.05012353633850908,0.02671509540972502,-4.6006726595268095,-8.550761521818421,-8.589043467865803
2.9389622778346363,-0.1356311515566933,-0.019291631185543077,-4.686563094205468,-7.509948475667915,-7.1916852554189745
2.9376059663190692,-0.21073063631337247,-0.06615726212759776,-4.758479946759658,-6.31452048192478,-5.600667439043073
2.9354986599559356,-0.27387584113262026,-0.11374206159519434,-4.814486621150088,-4.991646546391442,-3.851187515625155
2.9327599015446095,-0.3237923065965347,-0.16188692780669522,-4.8529984963063395,-3.5780531443310384,-1.9896196179138512
2.929521978478644,-0.3595728380398451,-0.21041691276975863,-4.872894692485478,-2.1176479623986264,-0.07052842152079483
2.9259262500982457,-0.38074931766383135,-0.2591458596946134,-4.873599976700686,-0.658097861590208,1.8475221131906259
2.9221187569216074,-0.3873302962797334,-0.3078818594616203,-4.85512475556878,0.7531583393939836,3.7067704303663755
2.91824545395881,-0.3797987128857936,-0.35643310701730807,-4.818057051265116,2.0728437719486172,5.454924065929451
2.914447466829952,-0.3590702751663074,-0.40461367752995925,-4.763507810605821,3.2651201275189794,7.048979875533129
2.910856764078289,-0.32641907389111763,-0.45224875563601746,-4.69301801185049,4.303764618189022,8.457693006545696
2.907592573339378,-0.2833814277092274,-0.4991789357545224,-4.608441081785033,5.173056955868704,9.66249686390983
2.9047587590622856,-0.23165085815054037,-0.5452633465723727,-4.511816113145935,5.867446827240271,10.656985047177363
2.9024422504807803,-0.17297638987813765,-0.5903815077038321,-4.4052462626741615,6.390270407351283,11.445293437893906
2.900712486581999,-0.10907368580462483,-0.6344339703305737,-4.290793328295223,6.751882678920236,12.03982617597518
2.899621749723953,-0.04155485901542247,-0.677341903613526,-4.170395066535471,6.967572537903179,12.458759390229888
2.899206201133799,0.02812086636360933,-0.7190458542788807,-4.0458074726331725,7.0555586231555765,12.723667939815762
2.899487409797435,0.0986764525951651,-0.7595039290052124,-3.918570793235015,7.0352631608605645,12.857498407412688
2.9004741743233864,0.16902908420377075,-0.7986896369375625,-3.789995809160888,6.925960897690226,12.882993367792725
2.902164465165424,0.23828869318067303,-0.8365895950291713,-3.661165875482961,6.7458199937572205,12.821579351073389
2.9045473520972305,0.3057468931182452,-0.8732012537840009,-3.532950081972227,6.511298682424319,12.692671044349844
2.907604821028413,0.37085987994248837,-0.9085307546037232,-3.4060233715287285,6.236833924992552,12.513314269443455
2.9113134198278376,0.4332282191924139,-0.9425909883190106,-3.280890228834294,5.93475015740352,12.29808256700605
2.915645702019762,0.49257572076644907,-0.9753998906073535,-3.1579094031642336,5.61532053628887,12.059148450025923
2.9205714592274266,0.5487289261293378,-1.0069789846389958,-3.0373179186639745,5.286923817742362,11.80646356803032
2.9260587484887197,0.6015981643067614,-1.0373521638256356,-2.9192532829836715,4.956252830142009,11.547997246459792
2.9320747301317875,0.6511606926081814,-1.0665446966554724,-2.8037733105190736,4.628542803272503,11.289997215748686
2.9385863370578695,0.6974461206409065,-1.094582429760663,-2.6908733383615866,4.307798279694936,11.03724841734593
2.9455607982642786,0.7405241034378558,-1.1214911631442788,-2.580500854188127,3.9970055330320284,10.793315156856195
2.952966039298657,0.7804941587681761,-1.14729617168616,-2.4725677026195654,3.6983234333923636,10.560758714662636
2.960770980886339,0.8174773931020997,-1.1720218487123557,-2.366960115472939,3.4132498564618032,10.341327224797327
2.96894575481736,0.8516098916667176,-1.1956914498670852,-2.2635468432249657,3.1427634281215333,10.13611766602545
2.977461853734027,0.8830375259479329,-1.2183269182993348,-2.162185666564711,2.887442011751792,9.94571161781316
2.986292228993506,0.9119119460654509,-1.239948774964982,-2.0627285503865793,2.647560203109543,9.77028738812376
2.9954113484541605,0.9383875480965463,-1.2605760604688478,-1.9650256765053418,2.4231684505298126,9.609711507284148
3.004795223935126,0.9626192326018445,-1.2802263172339012,-1.8689285614325002,2.2141564533289215,9.463612613901772
3.0144214162611447,0.9847607971351336,-1.2989156028482263,-1.7742924352934826,2.0203033409275024,9.331440583561431
3.024269024232496,1.0049638305444086,-1.316658527201161,-1.6809780294578682,1.8413168888594864,9.21251346885459
3.03431866253794,1.0233769994330035,-1.3334683074957396,-1.5888528947693223,1.6768637433909013,9.106054494650603
3.04455243253227,1.0401456368669126,-1.349356836443433,-1.4977923498228163,1.5265923394434555,9.01122102478061
3.054953888900939,1.0554115602613472,-1.364334759941661,-1.4076801395750103,1.3901499271149982,8.927127107808962
3.0655080045035525,1.0693130595324971,-1.3784115613374113,-1.3184088684969206,1.2671948804605664,8.852860931505061
3.0762011350988776,1.0819850083371028,-1.3915956500223805,-1.22988025918187,1.1574052521356755,8.787498272199581
3.0870209851822485,1.0935590608584596,-1.4038944526141992,-1.1420052764598743,1.0604843589836677,8.730112816452797
3.097956575790833,1.1041639044482963,-1.4153145053787979,-1.0547041482953463,0.9761640345204511,8.679784056133652
3.108998214835316,1.1139255447935008,-1.4258615468617513,-0.9679063077340098,0.9042060613438556,8.635603310775258
3.1201374702832507,1.1229676054069393,-1.4355406099390913,-0.8815502746262571,0.8444021962144052,8.596678309250906
3.13136714633732,1.1314116273690833,-1.444356112685354,-0.7955834915337481,0.796573119395906,8.562136662793893
3.1426812626110108,1.1393773585630425,-1.4523119476006914,-0.7099621249058091,0.7605665745320406,8.531128479849487
3.154075036196641,1.146983024308363,-1.4594115688497495,-0.6246508401073143,0.7362549129480135,8.502828307277339
3.1655448664397245,1.1543455734378432,-1.4656580772508228,-0.5396225570345409,0.7235322142743267,8.476436529511728
3.177088322174103,1.1615808955805864,-1.4710543028211682,-0.4548581917394236,0.7223111215512034,8.451180315321746
3.1887041311299087,1.1688040067960985,-1.4756028847385625,-0.37034638858620617,0.7325195017100263,8.426314169027783
3.2003921711978696,1.1761292018131988,-1.4793063486244244,-0.28608324689592834,0.7540970200953284,8.401120117955148
3.2121534632160014,1.183670172014152,-1.4821671810933836,-0.20207204571637685,0.7869916993343248,8.374907549312434
3.223990164936143,1.1915400890074952,-1.4841879015505475,-0.11832297022325251,0.8311565174805836,8.347012696539029
3.235905565826218,1.199851654182301,-1.48537113125278,-0.034852843257862226,0.8865460872745615,8.316797766594956
3.247904082368041,1.2087171150550466,-1.4857196596853586,0.04831513440808734,0.9531134470793583,8.283649694910169
3.2599912535185913,1.2182482495258402,-1.4852365083412777,0.13115163135718905,1.0308069842215701,8.246978513111339
3.27217373601385,1.228556319368056,-1.4839249920277058,0.21362141648830243,1.1195675028750411,8.206215315623904
3.2844592992075303,1.2397519943968065,-1.4817887778628227,0.29568356964454146,1.2193254411466985,8.160809814298961
3.296856819151498,1.2519452488082734,-1.4788319421663774,0.3772916677875311,1.329998235611395,8.11022747489562
3.309376271639581,1.2652452311643874,-1.475059025488502,0.4583939425364873,1.4514878262026274,8.05394623518003
3.3220287239512247,1.2797601094264137,-1.4704750860631373,0.5389334048882876,1.5836782901422526,7.99145281126363
3.334826325045489,1.2955968923278363,-1.4650857520142544,0.6188479330009239,1.7264335905519403,7.922238606337688
3.347782293968767,1.3128612282333556,-1.458897272684245,0.6980703190643007,1.8795954236128347,7.845795243971273
3.360910906251101,1.331657182469484,-1.451916569493602,0.7765282715040135,2.0429811477140243,7.761609756484039
3.3742274780757957,1.3520869939466242,-1.444151286778562,0.8541443690688539,2.2163817790429663,7.669159467494397
3.387748348015262,1.374250811737054,-1.4356098430878734,0.930835963743798,2.3995600406088613,7.567906616532197
3.4014908561326327,1.3982464121431426,-1.4263014834504355,1.00651502990912,2.59224845583785,7.457292782581338
3.415473320254064,1.4241688967015211,-1.4162363331513443,1.0810879577349333,2.794147483720496,7.336733172591855
3.4297150092210793,1.452110371538726,-1.405425453573995,1.1544552894608517,3.0049237001076152,7.205610850389994
3.4442361129364665,1.482159608539802,-1.3938809006793864,1.2265113979647517,3.224208039218453,7.063270991026633
3.4590577090218644,1.5144016889319867,-1.381615786699739,1.297144107875018,3.451594120817255,6.909015255420345
3.4742017259111844,1.5489176301401593,-1.3686443456209887,1.3662342604292215,3.6866367018920774,6.7420963901068065
3.489690902212586,1.5857839971590801,-1.3549820030166966,1.4336552243302896,3.928850307076642,6.561713166870045
3.505548742184177,1.6250725002298465,-1.3406454507733936,1.49927235599899,4.1777081095080115,6.367005786784183
3.5217994671864754,1.6668495813249267,-1.3256527272134038,1.5629424138668317,4.432641153284266,6.157051882407092
3.5384679629997247,1.7111759928577692,-1.3100233030747355,1.6245129326909027,4.693038030096149,5.930863260074767
3.5555797229283024,1.7581063731587308,-1.2937781737478264,1.6838215652916504,4.958245145799453,5.6873835308224905
3.57316078665989,1.8076888246167253,-1.27693995809491,1.7406954005998754,5.227567737424333,5.425486782596698
3.591237674906057,1.8599645019909687,-1.2595330040889112,1.7949502684258423,5.500271827027117,5.143977447101466
3.6098373199259663,1.91496722026124,-1.2415835014046528,1.846390042896857,5.775587325395979,4.841591510596495
3.6289869921285787,1.9727230935151998,-1.2231196009756842,1.8948059580028218,6.052712525302356,4.516999207734142
3.6487142230637306,2.0332502187682233,-1.204171541395656,1.9399759500801632,6.330820249977579,4.16880931933858
3.669046725251413,2.096558421267999,-1.1847717818948544,1.981664043273549,6.609065946879881,3.795575166886398
3.690012309464093,2.1626490807367977,-1.1649551414621189,2.019619794942413,6.886598038567254,3.39580235610486
3.711638800271461,2.23151506112247,-1.1447589435126948,2.053577818503461,7.16257086048295,2.9679582671298896
3.7339539508826856,2.3031407697272996,-1.1242231653276602,2.08325740117476,7.436160528536925,2.5104832165010937
3.7569853585799584,2.3775023750126687,-1.1033905913159126,2.108362233339771,7.7065840864240585,2.0218031243335606
3.7807603823300853,2.4545682158769093,-1.0823069689825149,2.128580264583107,7.9731222827227874,1.500343405827481
3.8053060644888546,2.5342994387041373,-1.0610211663366838,2.1435836986413817,8.235146320347752,0.9445436676931502
3.830649058875896,2.6166509019076147,-1.03958532935027,2.153029135318313,8.492148905772497,0.3528726254545829
3.856815567894972,2.7015723909653397,-1.0180550379970867,2.156557861572859,8.74377990319435,-0.2761575338362118
3.8838312918046256,2.7890101899972835,-0.9964894593813581,2.153796286234497,8.98988687103088,-0.9439783367807009
3.9117213937045983,2.8789090587075923,-0.9749514965190131,2.1443565028666898,9.230560727529765,-1.6519549922101364
3.940510484291674,2.97121466598289,-0.9535079314903463,2.1278369529445884,9.46618676288253,-2.4013806409616665
3.9702226309515027,3.065876533611715,-0.9322295619609005,2.103823146534972,9.697501192454906,-3.193476659940486
4.00088139628762,3.162851545536264,-0.9111913304955508,2.071888379935567,9.925653436094745,-4.029401070805288
4.032509911742983,3.2621080798972115,-0.8904724466961951,2.031594369227514,10.152274318863592,-4.910267366516647
4.065130992541954,3.3636308230858476,-0.8701565030039199,1.9824916955623475,10.379550424732919,-5.83717629361911
4.0987673007728125,3.4674263273331767,-0.8503315860482964,1.9241199326261564,10.610304898496139,-6.8112632790976955
4.133441564046144,3.573529376318138,-0.8310903867220348,1.8560072998351795,10.848085074758385,-7.833764214426111
4.169176857809326,3.6820102270657222,-0.812530313723683,1.7776696576909183,11.09725739026223,-8.906102122573039
4.205996960079983,3.7929828009683444,-0.7947536171467738,1.688608636465188,11.36311004654735,-10.029996702143478
4.2439267880896665,3.906613901433818,-0.777867530782122,1.5883086694437532,11.651963712053101,-11.207597645008105
4.282992927104004,4.023133538554349,-0.7619844440876845,1.4762326929936722,11.971289955879413,-12.44164058609966
4.323224262489548,4.142846438113144,-0.7472221171577478,1.3518162871326755,12.329835669625087,-13.735620926949208
4.36465272687068,4.266144794809394,-0.733703954286421,1.2144600778631836,12.737748708448704,-15.093974472565009
4.407314174818773,4.3935222818938815,-0.7215593535077891,1.0635203331375336,13.206694039926887,-16.52224291299429
4.451249397637712,4.52558922229315,-0.7109241501764137,0.8982979040075907,13.749938493100238,-18.02718331744747
4.496505289860643,4.663088607224153,-0.7019411711363378,0.718026070833116,14.382361653811072,-19.616748152798873
4.543136175932885,4.8069122237622635,-0.6947609104280067,0.5218585893051273,15.120313403695079,-21.299805746470785
4.591205298170507,4.9581153577992145,-0.6895423245349555,0.30886053184041945,15.981172660919261,-23.085373104765257
4.640786451748499,5.117927084408407,-0.6864537192165513,0.07800680079276687,16.982345937368077,-24.980963949407876
4.691965722592584,5.287750543782088,-0.6856736512086237,-0.1718028387013119,18.1392435225213,-26.9893662025455
4.744843228030405,5.469142979007301,-0.6873916795956367,-0.4416965007267669,19.461431476815964,-29.102680580780557
4.799534657820478,5.66375729377546,-0.6918086446029044,-0.7327233065345725,20.94560690891016,-31.29167790390142
4.856172230758232,5.873213362864562,-0.6991358776682501,-1.0456400855735868,22.563221889902255,-33.48739211646715
4.914904364386878,6.098845581763585,-0.709592278523986,-1.3805140067382582,24.239568100205126,-35.55049370293334
4.975892820204514,6.341241262765636,-0.7233974185913685,-1.7360189437675917,25.820552316399095,-37.223305512179486
5.03930523283217,6.599446785929627,-0.7407576080290444,-2.1082519988893864,27.025419129432777,-38.06247949488133
5.105299700691466,6.869700977223954,-0.7618401280179383,-2.4888767938382,27.393912454694984,-37.36536442434212
5.1739967104637055,7.143640101770904,-0.7867288959563203,-2.862530438081621,26.264843482266162,-34.14419496339026
5.245433111481415,7.406288536593566,-0.8153542003371366,-3.203972387715524,22.87468437110851,-27.276126214134734
5.31949599684735,7.635035380304651,-0.8473939242142918,-3.4767336498568713,16.697565984509936,-16.003136815595944
5.395846350650396,7.80201104014975,-0.8821612607128605,-3.636765018012831,8.0145406334681,-0.7628868173456493
5.473866461051894,7.882156446484432,-0.9185289108929888,-3.6443938861862875,-1.7134093256580267,16.262921437459262
5.552688025516738,7.865022353227851,-0.9549728497548517,-3.481764671811695,-10.33159988884492,31.841528292857245
5.6313382490490165,7.761706354339402,-0.9897904964729687,-3.1633493888831223,-16.21722398226206,43.46566074818729
5.70895531259241,7.599534114516781,-1.0214239903617999,-2.7286927814012496,-19.06316685303916,50.521034957989876
5.784950653737578,7.4089024459863895,-1.0487109181758123,-2.223482431821351,-19.574979717786892,53.8912758198431
5.859039678197442,7.213152648808521,-1.0709457424940259,-1.6845696736229199,-18.727945172263592,54.901104743040136
5.931171204685527,7.025873197085884,-1.087791439230255,-1.1355586261925183,-17.305783626362295,54.63842822624335
6.001429936656386,6.8528153608222615,-1.0991470254921802,-0.5891743439300848,-15.802176038085198,53.792430358913265
6.069958090264609,6.694793600441409,-1.1050387689314811,-0.05125004034095215,-14.485298344269367,52.7325409714233
6.136906026269023,6.5499406169987155,-1.1055512693348906,0.4760753693732809,-13.484215991264486,51.62668817678853
6.2024054324390105,6.415098457086071,-1.1007905156411577,0.9923422511411661,-12.851583609628632,50.5307548090632
6.2665564170098715,6.286582620989784,-1.090867093129746,1.497649799231798,-12.600672247489513,49.44391394566348
6.32942224321977,6.160575898514889,-1.075890595137428,1.9920889386884328,-12.724946443121933,48.340127253292664
6.391028002204918,6.033326434083669,-1.0559697057505437,2.4754902112213593,-13.207562724322928,47.185557050757104
