th1 (rad),w1 (rad/s),th2 (rad),w2 (rad/s),a1 (rad/s^2),a2 (rad/s^2)
5.991989620684807,2.675574033744164,4.415694343569319,2.035241825326722,0.78794653868124,16.534740121690096
6.0187453610222486,2.6834534991309766,4.4360467618225865,2.200589226543623,0.23926218902701274,16.63144691206143
6.0455798960135585,2.685846121021247,4.458052654088022,2.366903695664237,-0.35441369043693727,16.691569182623095
6.072438357223771,2.6823019841168776,4.4817216910446644,2.533819387490468,-0.9929546817638433,16.713975488697972
6.0992613770649395,2.6723724372992392,4.5070598849195695,2.7009591423774477,-1.6757447508512051,16.698212181502235
6.125985101437932,2.655614989790727,4.534069476343344,2.86794126419247,-2.401653507723651,16.644603804455635
6.1525412513358395,2.6315984547134907,4.5627488889852685,3.0343873022370267,-3.169025680437496,16.55434868342049
6.178857235882974,2.599908197909116,4.593092762007639,3.1999307890712316,-3.9756878242998934,16.42960685761405
6.204856317862065,2.560151319666117,4.625092069898351,3.364226857647372,-4.818975129357856,16.273577638737436
6.230457831058726,2.5119615683725383,4.658734338474824,3.5269626340347466,-5.695780862925919,16.090564439297264
6.255577446742452,2.455003759743279,4.694003964815171,3.6878682784277195,-6.602630476603272,15.886025106252132
6.280127484339884,2.3889774549772462,4.730882647599448,3.8467285294902407,-7.535781716106622,15.666606849930627
6.304017258889656,2.31361963781618,4.76934993289435,4.003394597989547,-8.491351208217592,15.440165968004342
6.327153455267818,2.228706125734004,4.809383878874246,4.15779625766959,-9.465466986916239,15.21577389900171
6.349440516525158,2.1340514558648414,4.850961841450942,4.309953996659607,-10.454445294639221,15.003712629042802
6.370781031083807,2.029507002918449,4.894061381417537,4.4599911229500355,-11.454988787020763,14.81546399606561
6.391076101112991,1.9149571150482416,4.938661292647038,4.6081457629106914,-12.464401988664896,14.663698792699266
6.410225672263473,1.7903130951615926,4.984742750276145,4.754782750837684,-13.480818438604082,14.56227246337025
6.428128803215089,1.6555049107755517,5.032290577784522,4.900405475471387,-14.503432245282326,14.526234163806308
6.444683852322845,1.5104705883227285,5.081294632539236,5.04566781710945,-15.532724329323761,14.571854275362325
6.459788558206072,1.355143345029491,5.131751310710331,5.191386359863073,-16.570669652916756,14.716670950168242
6.473339991656367,1.1894366485003234,5.1836651743089615,5.338553069364756,-17.62090471189055,14.979546880754267
6.48523435814137,1.0132276013814179,5.237050705002609,5.488348538172298,-18.688821810207838,15.380709714116076
6.495366634155184,0.8263393832793395,5.291934190384332,5.6421556353134585,-19.781533413653673,15.941717143820174
6.5036300279879775,0.6285240491428028,5.348355746737466,5.80157280675166,-20.907607928685753,16.6852296912005
6.509915268479405,0.41944796985594524,5.406371474804983,5.968425103663665,-22.076403261030414,17.634371085433806
6.514109748177964,0.1986839372456411,5.46605572584162,6.144768814518003,-23.296692024904928,18.811274183079632
6.516096587550421,-0.03428298300340818,5.5275034139868,6.3328815563487995,-24.574041753369638,20.234092586006472
6.515753757720387,-0.28002340053710456,5.590832229550288,6.535222482208864,-25.90602183262999,21.911214339079493
6.512953523715016,-0.5390836188634045,5.656184454372377,6.754334625599659,-27.273671672538693,23.830520076084102
6.507562687526382,-0.8118203355887914,5.723727800628374,6.9926398263605005,-28.62671414941145,25.940173847539516
6.4994444841704935,-1.0980874770829059,5.7936541988919785,7.252041564835896,-29.85884903054788,28.115746521537663
6.488463609399664,-1.3966759673883846,5.866174614540338,7.533199030051272,-30.76893490607183,30.107529498264565
6.474496849725781,-1.704365316449103,5.941506604840851,7.834274325033918,-31.00684120305088,31.46560076933618
6.45745319656129,-2.0144337284796117,6.019849348091189,8.14893033272728,-30.016641693737967,31.45876880939663
6.437308859276494,-2.3146001454169913,6.101338651418462,8.463518020821247,-27.027614944226706,29.055064069979004
6.414162857822324,-2.5848762948592583,6.185973831626675,8.754068661521037,-21.208920541961113,23.121775660302855
6.388314094873732,-2.7969655002788696,6.273514518241885,8.985286418124065,-12.12997132612928,13.041008829195716
6.360344439870944,-2.9182652135401623,6.363367382423126,9.115696506416022,-0.448937844295026,-0.3617509867714177
6.331161787735542,-2.9227545919831126,6.454524347487286,9.112078996548307,11.799578012209416,-14.431978999888258
6.301934241815712,-2.8047588118610185,6.5456451374527695,8.967759206549426,22.063496691869794,-25.852451920933955
6.273886653697102,-2.5841238449423205,6.635322729518264,8.709234687340086,28.776528169638176,-32.65869610629369
6.248045415247678,-2.296358563245939,6.722415076391665,8.382647726277149,31.966168042657216,-35.01257561313486
6.225081829615219,-1.9766968828193667,6.806241553654437,8.032521970145801,32.614766996747704,-34.30078197328671
6.205314860787025,-1.6505492128518897,6.886566773355895,7.689514150412934,31.80153447888222,-31.97944657825853
6.188809368658506,-1.3325338680630674,6.963461914860025,7.369719684630349,30.30378104688468,-29.063311484654815
6.175484029977876,-1.0294960575942205,7.037159111706329,7.079086569783801,28.573834291430874,-26.119208173985516
6.165189069401934,-0.7437577146799117,7.107949977404167,6.817894488043946,26.839154008348643,-23.414134578566195
6.157751492255135,-0.4753661745964253,7.176128922284606,6.583753142258284,25.197772052897122,-21.04826540934274
6.152997830509171,-0.22338845406745406,7.241966453707189,6.373270488164857,23.680642756479973,-19.039041435751553
6.150763945968496,0.013417973497345664,7.305699158588838,6.1828800738073415,22.28678613049384,-17.367057261871775
6.15089812570347,0.23628583480228407,7.367527959326911,6.009209501188624,21.00166133582463,-15.999088700001643
6.153260984051492,0.44630244816053033,7.427620054338798,5.849218614188608,19.806312815078382,-14.898883067971935
6.157724008533098,0.6443655763113142,7.486112240480684,5.700229783508888,18.681711631620846,-14.03178214611091
6.164167664296211,0.8311826926275226,7.5431145383157725,5.559911962047779,17.61067386304694,-13.366373475505196
6.172479491222486,1.007289431257992,7.59871365793625,5.426248227292727,16.578587547297182,-12.874783541043358
6.1825523855350655,1.1730753067309638,7.652976140209177,5.297500391882293,15.573570254189292,-12.532405462320378
6.194283138602375,1.3288110092728567,7.705951144128,5.172176337259089,14.586365721022243,-12.31743990269478
6.207571248695104,1.4746746664830792,7.757672907500591,5.049001938232141,13.610129128834519,-12.210422519443494
6.222317995359935,1.6107759577714245,7.808162926882912,4.9268977130377065,12.640171216933835,-12.193810608886283
6.23842575493765,1.7371776699407628,7.857431904013289,4.804959606948843,11.673692554858308,-12.25165298986082
6.255797531637057,1.853914595489346,7.905481500082778,4.682443077050235,10.709520942134679,-12.369344279699398
6.2743366775919505,1.9610098049106928,7.95230593085328,4.558749634253241,9.74785686009009,-12.533454478377683
6.293946775641057,2.0584883735115937,7.997893427195812,4.433415089469464,8.790028894612737,-12.731620744598711
6.314531659376173,2.146388662457721,8.042227578090507,4.306098882023477,7.838260361773007,-12.95248726892668
6.33599554600075,2.224771266075451,8.085288566910743,4.17657400933421,6.895448591530878,-13.18567969107063
6.3582432586615045,2.2937257519907597,8.127054307004085,4.044717212423504,5.964958744087737,-13.421801823513782
6.381180516181412,2.3533753394316372,8.16750147912832,3.910499194188366,5.050434310652736,-13.652444153776809
6.404714269575728,2.4038796825381645,8.206606471070204,3.773974752650598,4.155626456727115,-13.870195491308397
6.42875306640111,2.4454359471054357,8.24434621859671,3.635272797737514,3.2842440902835293,-14.068651063660724
6.453207425872164,2.478278388008271,8.280698946574086,3.4945862871009066,2.4398260316215725,-14.24241224526677
6.477990209752247,2.5026766483244867,8.315644809445095,3.352162164648239,1.6256360073244343,-14.387074837040004
6.503016976235491,2.518933008397731,8.349166431091577,3.208291416277839,0.8445804748001325,-14.499204342365303
6.528206306319468,2.527378813145732,8.381249345254355,3.063299372854186,0.09914858475718664,-14.57629796279159
6.553480094450926,2.528370298993304,8.411882338982897,2.91753639322627,-0.6086270323239847,-14.616734045422612
6.578763797440859,2.522284028670064,8.44105770291516,2.7713690527720436,-1.2771904729132944,-14.619710455278298
6.60398663772756,2.5095121239409313,8.46877139344288,2.625171948219261,-1.9054659429684135,-14.585173838711986
6.629081758966969,2.490457464511247,8.495023112925074,2.479320209832141,-2.4928467240708456,-14.513742019348358
6.653986333612081,2.4655289972705385,8.519816315023395,2.3341827896386573,-3.03917222623077,-14.406621863500835
6.678641623584786,2.435137275008231,8.543158142919781,2.190116571003649,-3.544695614294485,-14.265524906728727
6.702992996334869,2.3996903188652863,8.565059308629817,2.0474613219363618,-4.010044389547758,-14.092582883973629
6.726989899523522,2.3595898749698088,8.58553392184918,1.9065354930966254,-4.436176136222398,-13.890265084876606
6.75058579827322,2.315228113607585,8.604599276780146,1.7676328422478593,-4.824331425073137,-13.661299190156768
6.773738079409296,2.2669847993568535,8.622275605202624,1.6310198503462916,-5.175985620952995,-13.408596955512685
6.796407927402864,2.2152249431473234,8.638585803706087,1.4969338807911647,-5.492801083030588,-13.135185812691734
6.818560176834337,2.1602969323170176,8.653555142514,1.3655820226642474,-5.776580986482134,-12.844147165511407
6.840163146157507,2.1025311224521963,8.667210962740642,1.2371405510091333,-6.029225741970994,-12.538561881044231
6.8611884573820285,2.0422388650324863,8.679582368250733,1.111754932198691,-6.2526927506187135,-12.221463219954531
6.881610846032354,1.9797119375262993,8.69069991757272,0.9895402999991457,-6.448960012344191,-11.8957972203957
6.901407965407617,1.9152223374028574,8.700595320572711,0.8705823277951887,-6.619993907863032,-11.564390350749484
6.9205601887816455,1.849022398324227,8.709301143850663,0.7549384242876939,-6.7677213015763575,-11.229924080261304
6.939050412764888,1.7813451853084636,8.71685052809354,0.6426391834850809,-6.894005965276839,-10.894915884424648
6.956863864617973,1.7124051256556951,8.72327691992839,0.5336900246408344,-7.000629201357911,-10.561706103636363
6.97398791587453,1.642398833642116,8.728613820174798,0.4280729636044707,-7.089274448471107,-10.232450007820304
6.990411904210951,1.5715060891574049,8.732894549810844,0.3257484635262677,-7.161515581022273,-9.909114383969728
7.006126965102525,1.4998909333471822,8.736152034446107,0.2266573196865704,-7.218808564584605,-9.593477954598416
7.021125874435997,1.427702847701336,8.738418607642974,0.13072254014058624,-7.262486099805587,-9.287134949013902
7.0354029029130105,1.35507798670328,8.73972583304438,0.03785119065044722,-7.293754874947405,-8.99150118188765
7.048953682780043,1.282140437953806,8.740104344950884,-0.05206382116842928,-7.313695048922922,-8.707822040470566
7.061775087159582,1.2090034874645768,8.7395837067392,-0.13914204157313492,-7.323261599667418,-8.437181838813439
7.073865122034228,1.1357708714679027,8.73819228632347,-0.22351385996126932,-7.323287194148445,-8.180514060663098
7.085222830748907,1.0625379995264181,8.735957147723857,-0.3053190005679003,-7.314486263726235,-7.938612078949636
7.095848210744171,0.9893931368891558,8.732903957718179,-0.38470512135739665,-7.2974599997058585,-7.712140006137562
7.105742142113062,0.9164185368920972,8.729056906504605,-0.4618265214187723,-7.272702016889443,-7.501643393940974
7.114906327481983,0.8436915167232028,8.724438641290417,-0.536842955358182,-7.240604466222194,-7.3075595613193896
7.123343242649216,0.7712854720609809,8.719070211736836,-0.6099185509713759,-7.201464410059731,-7.130227385117403
7.131056097369825,0.6992708279603835,8.712971026227123,-0.68122082482255,-7.155490304320901,-6.969896437485738
7.138048805649429,0.6277159249171745,8.706158817978897,-0.7509197891974073,-7.102808460266904,-6.82673539800529
7.144325964898601,0.5566878403145055,8.698649620086924,-0.8191871431774602,-7.043469384542955,-6.700839706217873
7.149892843301746,0.4862531464690759,8.690457748655149,-0.886195540239639,-6.977453919302716,-6.592238452268304
7.154755374766437,0.41647860727604874,8.681595793252752,-0.952117924762322,-6.904679124726247,-6.500900529969716
7.158920160839197,0.34743181602878626,8.67207461400513,-1.0171269300620192,-6.825003864161886,-6.426740098310493
7.162394478999485,0.27918177738716743,8.661903344704509,-1.0813943310451242,-6.738234067663072,-6.369621414780072
7.165186296773357,0.2117994367105367,8.651089401394058,-1.145090545192925,-6.644127663080949,-6.329363117474634
7.1673042911404625,0.14535816007972718,8.63963849594213,-1.2083841763676713,-6.542399175354094,-6.305742043313809
7.16875787274126,0.07993416832618624,8.627554654178454,-1.2714415968008093,-6.432724004442437,-6.298496677386491
7.169557214424522,0.01560692828176187,8.614840238210446,-1.3344265635746742,-6.314742400697299,-6.3073303339268
7.169713283707339,-0.04754049572521113,8.6014959725747,-1.3974998669139422,-6.188063163528743,-6.331914173119281
7.169237878750087,-0.10942112736049855,8.58752097390556,-1.4608190086451351,-6.052267095177386,-6.371890160193836
7.168143667476482,-0.1699437983122724,8.57291278381911,-1.5245379102470735,-5.906910246339705,-6.426874074366364
7.166444229493359,-0.22901290077566946,8.55766740471664,-1.5888066509907373,-5.751526994424893,-6.496458675297577
7.164154100485602,-0.2865281707199184,8.541779338206732,-1.653771237743713,-5.585632998408253,-6.580217133975791
7.161288818778403,-0.3423845007040009,8.525241625829295,-1.719573409083471,-5.40872807665408,-6.6777068332766465
7.157864973771363,-0.3964717814705417,8.50804589173846,-1.7863504774162373,-5.220299055783509,-6.788473640799036
7.153900255956658,-0.4486747720283768,8.490182386964298,-1.8542352138242277,-5.019822639766406,-6.912056752683245
7.149413508236374,-0.4988729984260409,8.471640034826056,-1.9233557813510602,-4.806768349091539,-7.047994201597114
7.144424778252113,-0.5469406819169562,8.452406477012545,-1.9938357233670314,-4.580601580392265,-7.1958291143653925
7.138955371432944,-0.5927466977208788,8.432468119778875,-2.0657940145106855,-4.34078683770818,-7.3551167940334645
7.133027904455735,-0.6361545660979606,8.411810179633768,-2.13934518245102,-4.086791188308715,-7.52543268643601
7.126666358794756,-0.6770224779810478,8.390416727809258,-2.2145995093153803,-3.818087999674569,-7.7063812711544655
7.119896134014946,-0.7152033579777934,8.368270732716104,-2.291663322026925,-3.534161021254905,-7.89760588917522
7.112744100435168,-0.7505449681903424,8.345354099495834,-2.370639380918677,-3.234508887032485,-8.0987994820152
7.1052386507532646,-0.7828900570606673,8.321647705686647,-2.451627375738829,-2.9186501356124084,-8.309716166054029
7.097409750182658,-0.8120765584167914,8.297131431929259,-2.5347245373993696,-2.586128877522899,-8.530183496505275
7.0892889845984906,-0.8379378471920204,8.271784186555266,-2.6200263723644226,-2.2365212902575933,-8.760115181271654
7.08090960612657,-0.8603030600945963,8.24558392283162,-2.707627524177139,-1.8694431980051909,-8.999523876711358
7.072306575525625,-0.8789974920746483,8.218507647589849,-2.7976227629442527,-1.4845591056185234,-9.248533522354291
7.063516600604879,-0.8938430831308335,8.190531419960406,-2.890108098167796,-1.081593219757362,-9.507390432042094
7.0545781697735706,-0.9046590153284071,8.161630338978728,-2.9851820024882167,-0.6603432243101135,-9.776472029895757
7.045531579620286,-0.9112624475715082,8.131778518953846,-3.0829467227871743,-0.22069790955715005,-10.05629166605274
7.036418955144572,-0.9134694266670798,8.100949051725975,-3.183509639447702,0.23733977751467045,-10.347497320551112
7.0272842608779005,-0.9110960288919331,8.069113955331497,-3.286984612653213,0.7136220399946,-10.650861136406862
7.018173300588981,-0.9039598084919871,8.036244109204965,-3.3934932240172815,1.2078147639747414,-10.967255521612868
7.009133702504061,-0.8918816608522396,8.002309176964792,-3.5031657792334103,1.7193408915458208,-11.297609897716294
7.000214885895539,-0.8746882519367815,7.967277519172457,-3.6161418782105734,2.247302528131299,-11.64283988078643
6.991468003376171,-0.8522152266554684,7.931116100390351,-3.732570277018438,2.7903733449709818,-12.003737540478795
6.982945851109616,-0.8243114932057586,7.893790397620167,-3.852607652423226,3.346649713307573,-12.380807126069259
6.974702736177558,-0.7908449960726829,7.855264321095935,-3.9764157236839184,3.9134449048828475,-12.774024973979333
6.966794286216831,-0.7517105470238544,7.815500163859095,-4.104155973423712,4.487005467244208,-13.182494945280904
6.959277180746592,-0.7068404923514123,7.774458604124858,-4.235980922876521,5.062122542212479,-13.603961581475524
6.952208775823078,-0.6562192669292876,7.732098794896093,-4.372020538691276,5.631603850677756,-14.034132594809572
6.945646583153786,-0.59990322842251,7.68837858950918,-4.512361864639371,6.185565595632022,-14.465751815308039
6.9396475508695605,-0.5380475724661897,7.643254970862786,-4.657019382792451,6.710500646215213,-14.887357053476087
6.9342670751448985,-0.4709425660040376,7.596684777034862,-4.805892953327212,7.188086253240623,-15.281662510835556
6.929557649484858,-0.3990617034716314,7.54862584750159,-4.958709578435568,7.59372281974169,-15.62353772888836
6.925567032450141,-0.3231244752742145,7.499038751717235,-5.114944955724451,7.894864749725537,-15.87764130898585
6.922335787697399,-0.24417582777695912,7.44788930215999,-5.27372136881431,8.049345255140928,-15.995948976244433
6.91989402941963,-0.16368237522554985,7.395152088471847,-5.433680858576754,8.004146674983499,-15.915744360926249
6.918257205667374,-0.08364090847571486,7.34081527988608,-5.592838302186017,7.69545336055997,-15.559157383651762
6.9174207965826175,-0.006686374870115155,7.2848868968642195,-5.748429876022534,7.051312735234646,-14.836001295324209
6.917353932833916,0.06382675248223131,7.227402598103994,-5.896789888975777,5.998633065544851,-13.652228083084148
6.917992200358738,0.12381308313767983,7.168434699214236,-6.033312169806618,4.476099138089249,-11.926171225462927
6.919230331190115,0.16857407451857231,7.10810157751617,-6.1525738820612474,2.453143752677035,-9.612865761749587
6.9209160719353005,0.19310551204534265,7.046575838695558,-6.248702539678743,-0.04823479007525713,-6.732294616907445
6.9228471270557534,0.19262316414459008,6.98408881329877,-6.316025485847818,-2.936654390758098,-3.3912247314163104
6.924773358697199,0.1632566202370091,6.920928558440292,-6.349937733161981,-6.050305280968691,0.21560185883779856
6.926405924899569,0.1027535674273222,6.857429181108673,-6.347781714573602,-9.179190115038605,3.834729154968063
6.927433460573843,0.01096166627693615,6.793951363962937,-6.309434423023922,-12.107230347861282,7.208858667040299
6.927543077236612,-0.11011063720167667,6.730857019732698,-6.237345836353519,-14.658374159245593,10.136018800173925
6.9264419708645955,-0.2566943787941326,6.668483561369162,-6.13598564835178,-16.727350587612953,12.507510884546358
6.9238750270766545,-0.42396788467026214,6.607123704885645,-6.010910539506316,-18.285008652458508,14.31199521232617
6.919635348229952,-0.6068179711948473,6.5470145994905815,-5.8677905873830545,-19.362353196003692,15.612059209786398
6.913567168518004,-0.8004415031548842,6.488336693616751,-5.711669995285191,-20.02552507092344,16.510025988239143
6.905562753486454,-1.0006967538641185,6.431219993663899,-5.546569735402799,-20.35288631213715,17.117730948488177
6.895555785947813,-1.20422561698549,6.3757542963098714,-5.3753924259179175,-20.41958970731527,17.53694983290816
6.883513529777958,-1.4084215140586427,6.3220003720506925,-5.200022927588836,-20.289878495943366,17.85031310384852
6.8694293146373715,-1.6113202990180764,6.270000142774804,-5.021519796550351,-20.014937550139784,18.119487851193746
