th1 (rad),w1 (rad/s),th2 (rad),w2 (rad/s),a1 (rad/s^2),a2 (rad/s^2)
3.0781546730331524,1.5690199478436466,4.806755413504469,-2.5406388495600916,3.1808996832184353,7.825042334800859
3.093844872511589,1.600828944675831,4.7813490250088675,-2.4623884262120828,2.984566612645234,7.579018904419399
3.1098531619583474,1.6306746108022834,4.756725140746747,-2.3865982371678887,2.8080925201600935,7.352382518299574
3.12615990806637,1.6587555360038844,4.732859158375068,-2.3130744119848927,2.6504044240377946,7.143386890008995
3.1427474634264088,1.6852595802442623,4.70972841425522,-2.2416405430848028,2.510516022823078,6.950307594534178
3.1596000592288513,1.710364740472493,4.687312008824372,-2.172137467139461,2.387537643471009,6.771452165919317
3.1767037066335764,1.7342401169072033,4.665590634152977,-2.104422945480268,2.280681557248824,6.605164862104041
3.1940461078026483,1.7570469324796916,4.644546404698175,-2.0383712968592276,2.1892639725067276,6.449827693785712
3.211616577127445,1.778939572204759,4.624162691729582,-1.9738730199213705,2.1127046712653175,6.3038589330712
3.229405972849493,1.8000666189174122,4.604423961530369,-1.9108344305906586,2.0505249943447175,6.165710027510704
3.247406639038667,1.8205718688608594,4.585315617224462,-1.8491773303155516,2.0023446800769507,6.0338616259726585
3.2656123577272758,1.8405953156616288,4.5668238439213065,-1.788838714055825,1.9678779104083546,5.9068192587635595
3.284018310883892,1.8602740947657124,4.5489354567807485,-1.7297705214681895,1.9469288041516724,5.783109092853985
3.302621051831549,1.8797433828072292,4.531637751566066,-1.6719394305396498,1.939386511338033,5.66127409436106
3.3214184856596214,1.8991372479206095,4.51491835726067,-1.6153266895960392,1.9452199979123683,5.539870867301242
3.3404098581388273,1.9185894478997332,4.498765090364709,-1.5599279809230269,1.9644725606445996,5.417467394851742
3.3595957526178246,1.9382341735061792,4.483165810555479,-1.5057533069745095,1.9972560733024394,5.292641883481606
3.3789780943528864,1.9582067342392036,4.468108277485734,-1.4528268881396935,2.043744932696615,5.163982899407398
3.3985601616952783,1.9786441835661697,4.453580008604337,-1.4011870591456195,2.1041696433621433,5.030090990363815
3.41834660353094,1.9996858799997912,4.4395681380128815,-1.3508861492419812,2.1788099486762174,4.889582004434897
3.438343462330938,2.0214739794865535,4.426059276520462,-1.3019903291976322,2.267987380323992,4.741092353708775
3.4585582021258037,2.0441538532897936,4.413039373228486,-1.2545794056605444,2.3720570531182066,4.583286527074159
3.4789997406587014,2.067874423820976,4.40049357917188,-1.2087465403898028,2.4913984737631187,4.414867238043728
3.4996784848969114,2.092788408558607,4.388406113767982,-1.1645978680093656,2.6264050552614657,4.234588705656398
3.5206063689824973,2.119052459111222,4.376760135087888,-1.1222519809528015,2.777471927878929,4.041273715793846
3.5417968935736095,2.1468271783900112,4.3655376152783605,-1.0818392437948632,2.9449815072011902,3.8338353037140918
3.56326516535751,2.176276993462023,4.354719222840412,-1.0435008907577223,3.1292861142469057,3.611304143167327
3.58502793529213,2.207569854604492,4.344284213932835,-1.007387849326049,3.33068673711022,3.3728630286166075
3.6071036338381752,2.240876721975594,4.3342103354395745,-0.973659219039883,3.5494067757024603,3.1178901967965236
3.6295124010579314,2.276370789732619,4.324473743249175,-0.9424803170719177,3.785559322866955,2.846013647025603
3.652276108955258,2.3142263829612886,4.315048940078456,-0.9140201806016617,4.0391062166928675,2.5571790686595017
3.6754183727848706,2.354617445128217,4.305908738272439,-0.8884483899150667,4.3098067744686155,2.2517344299853432
3.698964547236153,2.397715512872903,4.297024254373288,-0.8659310456152133,4.597153835208228,1.9305346529984933
3.722941702364882,2.4436870512249853,4.288364943917136,-0.8466256990852283,4.900294576797491,1.5950699682717318
3.747378572877132,2.49268999699296,4.279898686926284,-0.830674999402511,5.2179336687770235,1.2476213130092568
3.7723054728470613,2.5448693336807304,4.271591936932259,-0.8181987862724184,5.548216877634947,0.8914451977541712
3.7977541661838687,2.60035150245708,4.263409949069534,-0.8092843342948767,5.888594556087905,0.5309883825077688
3.8237576812084395,2.659237448017959,4.2553171057265855,-0.803974450469799,6.235666925746837,0.17212887685419065
3.850350055688619,2.721594117275427,4.2472773612218875,-0.802253161701257,6.585017205164622,-0.17756652068978807
3.8775659968613736,2.787444289327073,4.239254829604875,-0.8040288269081549,6.931044977442703,-0.5085874759094597
3.9054404397546443,2.8567547391015005,4.2312145413357936,-0.8091147016672495,7.266821139353593,-0.8092608692444178
3.9340079871456592,2.929422950495036,4.223123394319121,-0.8172073103596937,7.583997285428588,-1.0656168615535073
3.9633022166506096,3.005262923349322,4.214951321215524,-0.8278634789752288,7.872815443838945,-1.2614094413995167
3.993354845884103,3.0839910777877115,4.2066726864257715,-0.840477573389224,8.122276011924376,-1.378378253377501
4.02419475666198,3.1652138379069554,4.19826791069188,-0.854261355922999,8.320527494361093,-1.3968470419935137
4.055846895041049,3.2484191128505664,4.189725297132649,-0.8682298263429341,8.455533652028702,-1.2967424159200573
4.088331086169555,3.3329744493708535,4.18104299886922,-0.8811972505021347,8.516043021211162,-1.0590718330542694
4.121660830663264,3.4181348795829654,4.172231026364199,-0.8917879688326774,8.492825768327757,-0.6678118925901895
4.155842179459094,3.503063137266243,4.163313146675872,-0.8984660877585793,8.38005515554576,-0.11202940972939819
4.190872810831756,3.5868636888217003,4.1543284857982865,-0.8995863818558733,8.176612402542816,0.6120873755484096
4.226741447719973,3.6686298128471284,4.145332621979728,-0.8934655081003892,7.887019366675561,1.4997212368344965
4.263427745848444,3.747500006513884,4.136397966898724,-0.8784682957320442,7.5216983110005,2.536887407182406
4.300902745913583,3.8227169896238893,4.127613283941404,-0.8530994216602201,7.096355897866851,3.70117155284692
4.339129915809822,3.893680548602558,4.119082289724802,-0.816087706131751,6.630484733673869,4.9637697630478295
4.378066721295848,3.9599853959392965,4.110921412663485,-0.7664500085012727,6.145213191781364,6.292510753408618
4.417666575255241,4.021437527857111,4.103256912578472,-0.7035249009671865,5.660920952162896,7.655264115854988
4.457880950533813,4.07804673737874,4.096221663568801,-0.6269722598086366,5.195093678077343,9.023047872570912
4.4986614179076,4.1299976741595135,4.089951940970714,-0.5367417810829275,4.76079395993481,10.372277885668703
4.539961394649195,4.177605613758861,4.084584523159885,-0.43301900222624046,4.365926007881254,11.685883592411507
4.581737450786783,4.221264873837674,4.080254333137622,-0.3161601663021254,4.013256371853247,12.953324392534453
4.62395009952516,4.261397437556206,4.077092731474601,-0.18662692237678086,3.700999016508304,14.169767768310995
4.666564073900722,4.298407427721289,4.075226462250834,-0.044929244693670906,3.423713051403302,15.33478467797268
4.709548148177935,4.332644558235322,4.074777169803897,0.10841860208605589,3.1732830017464355,16.450895066617893
4.752874593760288,4.3643773882527865,4.075861355824758,0.2729275527522348,2.939818688395616,17.52220643295147
4.7965183676428165,4.393775575136742,4.07859063135228,0.4481496170817495,2.712388415153746,18.553282557480145
4.840456123394184,4.42089945928828,4.0830721275230974,0.6336824426565509,2.4795621048545655,19.548291216869515
4.884665117987067,4.445695080336826,4.089408951949663,0.8291653548252461,2.2297818096974815,20.51042181611602
4.929122068790435,4.467992898433801,4.0977006054979155,1.0342695729864064,1.9515971559086251,21.44153485245032
4.973801997774773,4.487508869992888,4.10804330122778,1.2486849215109097,1.6338085907626623,22.34199704074621
5.0186770864747015,4.5038469559005145,4.120530150442889,1.472104891918372,1.2655579643286994,23.210660034075616
5.063715556033706,4.516502535543801,4.135251199362073,1.704211492259128,0.8363987160077156,24.04495008759952
5.108880581389144,4.524866522703879,4.152293314284664,1.9446609931351233,0.33636964497384786,24.84104632110522
5.154129246616183,4.528230219153617,4.171739924216015,2.1930714563461757,-0.2439116515214084,25.594134064005356
5.199411548807719,4.525791102638403,4.193670638779477,2.449012796986229,-0.9131266136747034,26.298726115317944
5.244669459834103,4.516659836501655,4.21816076674934,2.7120000581394086,-1.679101948819972,26.94904840206004
5.2898360581991195,4.499868817013455,4.245280767330734,2.981490542160009,-2.5486269073812693,27.539487643538987
5.334834746369254,4.474382547939642,4.275095672752334,3.256885418595399,-3.5272493236052274,28.065097566713785
5.379578571848651,4.43911005470359,4.3076645269382885,3.5375363942625366,-4.619062792963776,28.522157379415535
5.423969672395686,4.392919426773953,4.343039890880914,3.822757968056692,-5.82650146305686,28.908772037642745
5.467898866663425,4.334654412143385,4.381267470561481,4.111845688433119,-7.150162118380401,29.225498799471335
5.511245410784859,4.26315279095958,4.422385927445812,4.4041006764278325,-8.588674953979424,29.475979078115827
5.553876938694455,4.177266041419786,4.46642693421009,4.69886046720899,-10.138643819151733,29.667549014432634
5.595649599108653,4.075879603228269,4.51341553888218,4.995535957353317,-11.794672640244023,29.81179651478342
5.636408395140936,3.9579328768258284,4.563370898455713,5.293653922501151,-13.549485686960113,29.925026155378124
5.675987723909195,3.8224380199562273,4.6163074376807245,5.592904184054932,-15.394133213011747,30.02858458285113
5.714212104108757,3.66849668782611,4.672236479521274,5.893190029883443,-17.318247600292462,30.148984006919733
5.750897070987018,3.4953142118231852,4.731168379820108,6.19467986995264,-19.31027332063201,30.317732657646637
5.78585021310525,3.302211478616865,4.793115178519635,6.4978571965291065,-21.35752802396503,30.570725139666628
5.818872327891419,3.088636198377215,4.858093750484926,6.803564447925773,-23.44584657715938,30.946938697317243
5.849758689875191,2.854177732605621,4.926129394964184,7.113033834898945,-25.558388508294804,31.485982956941445
5.878300467201248,2.598593847522673,4.997259733313173,7.4278936644683595,-27.67290817076929,32.22369404437092
5.904286405676475,2.32186476581498,5.071538669957857,7.750130604912068,-29.756328931776444,33.184346685182696
5.927505053334625,2.0243014764972154,5.149039976006978,8.081974071763895,-31.754743575527428,34.36704610245067
5.947748068099597,1.706754040741941,5.229859716724617,8.425644532788402,-33.575937725823195,35.72235848544753
5.964815608507016,1.3709946634837091,5.314116162052501,8.782868117642877,-35.06041374511032,37.1134698819414
5.978525555141853,1.0203905260326058,5.40194484322893,9.154002816462292,-35.9368078960257,38.255562234920816
5.988729460402179,0.6610224470723489,5.4934848713935525,9.5365584388115,-35.76219699637607,38.63251318748804
5.995339684872902,0.3034004771085882,5.588850455781667,9.92288357068638,-33.865977652629155,37.41356022033702
5.998373689643988,-0.03525929941770334,5.688079291488531,10.297019172889751,-29.361900349074652,33.453910986464116
5.998021096649811,-0.3288783029084499,5.791049483217429,10.631558282754392,-21.36486646826739,25.561709740069293
5.994732313620727,-0.5425269675911237,5.897365066044973,10.887175380155085,-9.555800241774026,13.22708132398625
5.989307043944815,-0.638084970008864,6.0062368198465235,11.019446193394948,5.05940821013068,-2.386043243303036
5.982926194244726,-0.5874908879075572,6.116431281780473,10.995585760961918,19.96985078186403,-18.211463139653052
5.977051285365651,-0.3877923800889169,6.226387139390092,10.813471129565388,32.29151230085729,-30.773732117735168
5.973173361564761,-0.06487725708034398,6.334521850685746,10.505733808388037,40.41918632703647,-38.31331829098078
5.9725245889939576,0.33931460619002074,6.439579188769627,10.12260062547823,44.51309131851179,-41.32392580010316
5.975917735055858,0.7844455193751387,6.540805195024409,9.709361367477198,45.688139804736224,-41.41668811867977
5.983762190249609,1.241326917422501,6.63789880869918,9.2951944862904,45.10092879478273,-40.132251381941835
5.996175459423834,1.6923362053703284,6.730850753562084,8.893871972470983,43.568041360369406,-38.49152041836694
6.013098821477538,2.1280166189740224,6.819789473286794,8.508956768287312,41.5652858889214,-37.03818161176116
6.034378987667278,2.5436694778632365,6.904879040969667,8.138574952169702,39.33941210976971,-36.007192394461754
6.05981568244591,2.9370635989609335,6.986264790491364,7.778503028225084,37.008507357519925,-35.46322486043829
6.0891863184355195,3.3071486725361328,7.064049820773615,7.423870779620701,34.62666961771833,-35.3853814709816
6.1222578051608805,3.653415368713316,7.138288528569822,7.070016964910885,32.22037898824108,-35.71299906814055
6.158791958848013,3.975619158595727,7.20898869821893,6.712886974229479,29.807396791802088,-36.369076017734024
6.198548150433971,4.273693126513748,7.276117567961225,6.349196214052139,27.405813398412846,-37.27214011422984
6.241285081699108,4.5477512604978765,7.339609530101746,5.97647481290984,25.037716061841248,-38.34252352748266
6.286762594304087,4.798128421116289,7.3993742782308445,5.593049577635014,22.729945090099626,-39.50604729593372
6.33474387851525,5.025427872017285,7.455304774007194,5.197989104675677,20.51329859120836,-40.69650310830312
6.384998157235423,5.230560857929368,7.507284665053951,4.791024073592646,18.420965787988415,-41.85748873779404
6.437303765814717,5.414770515809252,7.555194905789877,4.3724491862147055,16.486664751549387,-42.943746903467854
6.49145147097281,5.579637163324746,7.598919397652024,3.9430117171800267,14.742788046284748,-43.921976152562934
6.547247842606057,5.727065043787593,7.638349514823824,3.5037919556543975,13.218742810436213,-44.77101775765761
6.604518493043933,5.8592524718919545,7.673387434380368,3.0560817780778216,11.939571788764596,-45.48131120047958
6.663111017762853,5.978648189779601,7.703948252161147,2.6012686660730258,10.924839692462099,-46.05350993067222
6.722897499660649,6.087896586704222,7.729960938821877,2.1407335667663037,10.18765369466805,-46.49612427934781
6.7837764655276915,6.189773123650903,7.751368274489541,1.6757723239728255,9.733546818230309,-46.82197697699299
6.8456741967642,6.2871085918332055,7.768125997729269,1.2075525542028955,9.55877284031339,-47.04308485323239
6.908545282682533,6.38269632023634,7.780201523271298,0.7371217056705717,9.647320518206215,-47.16328505724938
6.9723722458848965,6.479169525418402,7.787572740328004,0.26548885509807785,9.965638249015576,-47.16748949762939
7.03716394113908,6.578825907908557,7.790227628878985,-0.20618603987821604,10.453697658613583,-47.00593408684835
7.102952200218166,6.683362884494693,7.788165768480203,-0.6762453807466995,11.010803232737883,-46.571477088039565
7.1697858290631125,6.793470916822072,7.781403314672736,-1.1419601516270952,11.475085746562351,-45.668785125305554
7.237720538231333,6.9082217742876955,7.769983713156465,-1.5986480028801506,11.598440889009225,-43.97833060496273
7.30680275597421,7.024206183177788,7.753997233127664,-2.038431308929778,11.026806447928793,-41.02977208637795
7.377044817805988,7.134474247657076,7.733612920038366,-2.4487290297935576,9.312626761204196,-36.223376214155266
7.448389560282559,7.227600515269118,7.709125629740431,-2.8109627919351103,6.0088032018359225,-28.969652884736156
7.52066556543525,7.287688547287477,7.68101600182108,-3.100659320782472,0.8919896364337915,-19.01414587041046
7.593542450908124,7.296608443651815,7.650009408613255,-3.2908007794865766,-5.728117830459846,-6.882586192230019
7.666508535344643,7.2393272653472165,7.617101400818389,-3.3596266414088767,-12.853063521499838,5.899314691804186
7.738901807998115,7.110796630132218,7.5835051344043,-3.300633494490835,-19.100521953339307,17.252459857035138
7.810009774299437,6.919791410598825,7.550498799459391,-3.1281088959204837,-23.388740529754656,25.540717249383317
7.879207688405425,6.685904005301278,7.519217710500186,-2.8727017234266503,-25.42096585384529,30.282210802793514
7.946066728458438,6.431694346762826,7.49049069326592,-2.5698796153987153,-25.58804758129989,32.01908693626513
8.010383671926066,6.175813870949827,7.464791897111932,-2.249688746036064,-24.54539353436499,31.706891546532496
8.072141810635564,5.930359935606177,7.442295009651572,-1.932619830570739,-22.87994484749539,30.223884705317698
8.131445409991626,5.701560487131223,7.422968811345864,-1.630380983517562,-20.992832440546742,28.189365381397376
8.188461014862938,5.491632162725756,7.406665001510689,-1.3484873297035882,-19.114755677844126,25.976974055706496
8.243377336490195,5.3004846059473145,7.393180128213653,-1.0887175891465233,-17.359650000304462,23.787661900436174
8.296382182549667,5.1268881059442695,7.382292952322188,-0.8508409701421615,-15.772556035609956,21.717361698727565
8.34765106360911,4.96916254558817,7.373784542620767,-0.6336673531548859,-14.361773985785888,19.803552117264015
8.397342689064992,4.825544805730311,7.367447869089218,-0.43563183198224575,-13.117832938648242,18.053396299491585
8.445598137122294,4.694366476343828,7.363091550769395,-0.2550978689873299,-12.02385653897426,16.45957810553741
8.492541801885732,4.574127910954085,7.360540572079522,-0.09050208793195577,-11.060900247820081,15.008795382257015
8.538283080995273,4.463518908475884,7.359635551200202,0.059585865890614376,-10.210521972145969,13.686115894645377
8.58291827008003,4.361413688754425,7.360231409859108,0.19644702483706816,-9.455891846908136,12.477081820479583
8.626532406967575,4.266854770285343,7.362195880107479,0.321217843041864,-8.782159640837012,11.3686217074805
8.669200954670428,4.179033173876974,7.365408058537898,0.43490406011666904,-8.17646343115017,10.34934927662613
8.710991286409199,4.097268539565472,7.369757099139064,0.5383975528829303,-7.627779463097587,9.409560702090188
8.751963971804853,4.020990744934496,7.375141074667893,0.6324931599038323,-7.126714499735761,8.541095373340982
8.792173879254198,3.9497235999371383,7.3814660062669315,0.717904113637242,-6.66528988221241,7.737145740294231
8.83167111525357,3.883070701115014,7.388645047403304,0.7952755710401843,-6.236739456019852,6.992059198042224
8.870501822264721,3.8207033065548157,7.396597803113706,0.8651961630206065,-5.835329771319318,6.301152282406156
8.90870885533027,3.7623500088416226,7.405249764743912,0.9282076858446681,-5.4562042413578515,5.66054555464577
8.946332355418686,3.707787966428044,7.414531841602359,0.9848131413911257,-5.095249877930137,5.067021473291891
8.983410235082967,3.6568354676487425,7.42437997301627,1.0354833561240446,-4.7489840266892065,4.517904581746793
9.019978589759456,3.6093456273818503,7.43473480657751,1.0806624019415125,-4.414458250811567,4.010962017686143
9.056072046033274,3.5652010448737346,7.445541430596926,1.120772022118374,-4.08917666288394,3.5443218822152964
9.091724056482011,3.5243092782448953,7.456749150818109,1.1562152409405269,-3.771026326496145,3.1164069666516725
9.12696714926446,3.4865990149799337,7.468311303227515,1.1873793106070436,-3.4582177136249763,2.725881495207459
9.16183313941426,3.452016837843684,7.480185096333585,1.214638125559118,-3.1492335518472037,2.37160878337623
9.196353307792696,3.420524502325212,7.492331477589176,1.2383542133928804,-2.842784702266408,2.052617973638059
9.230558552815948,3.392096655302548,7.504715019723105,1.258880393129261,-2.5377719680800053,1.768078262694154
9.264479519368974,3.3667189356217477,7.517303823654397,1.2765611757562025,-2.233252946749004,1.5172792648472575
9.298146708725191,3.344386406154258,7.530069435411959,1.2917339684046751,-1.9284132111914722,1.2996163598448627
9.331590572786734,3.3251022740423433,7.542986775096006,1.3047301320031237,-1.6225412438528029,1.11458005011581
9.364841595527157,3.308876861603815,7.556034076416037,1.315875932504282,-1.3150066583729587,0.9617485033235483
9.397930364143194,3.2957267950200855,7.56919283574108,1.3254934175375175,-1.0052413326889713,0.84078258367119
9.430887632093395,3.285674381693196,7.582447769916455,1.3339012433742294,-0.6927231497684071,0.7514227816719546
