th1 (rad),w1 (rad/s),th2 (rad),w2 (rad/s),a1 (rad/s^2),a2 (rad/s^2)
1.2370189814572936,-3.0647881598476947,3.461562626111072,1.7217153209909115,-11.548223513500831,-11.39695879359507
1.2063710998588166,-3.180270394982703,3.4787797793209814,1.6077457330549607,-12.146119482323495,-12.322730738120597
1.1745683959089896,-3.301731589805938,3.494857236651531,1.4845184256737547,-12.758252793251048,-13.281573348709813
1.1415510800109303,-3.4293141177384485,3.5097024209082686,1.3517026921866566,-13.373663784057975,-14.258138762909491
1.1072579388335457,-3.5630507555790283,3.5232194478301353,1.2091213045575617,-13.97799832662732,-15.231569690618985
1.0716274312777554,-3.7028307388453015,3.535310660875711,1.0568056076513719,-14.553127493010884,-16.174745920767446
1.0345991238893024,-3.8483620137754104,3.545878716952225,0.8950581484436975,-15.076932613792525,-17.053757716892157
0.9961155037515483,-3.999131339913336,3.554829298436662,0.7245205712747759,-15.523355078212974,-17.827771692873068
0.956124190352415,-4.154364890695466,3.5620745041494097,0.5462428543460451,-15.862816987292778,-18.44947531664719
0.9145805414454604,-4.3129930605683935,3.56753693269287,0.36174810117957323,-16.063107106172303,-18.866279691339166
0.8714506108397765,-4.473624131630117,3.571154413704666,0.17308530426618157,-16.090789209524733,-19.02241314627983
0.8267143695234753,-4.634532023725364,3.5728852667473276,-0.017138827196616746,-15.913123924869673,-18.86194210247992
0.7803690492862216,-4.793663262974061,3.5727138784753616,-0.20575824822141595,-15.50040591592614,-18.332614219143025
0.7324324166564811,-4.948667322133322,3.5706562959931474,-0.3890843904128462,-14.828521901680924,-17.390252652925543
0.6829457434351478,-5.096952541150132,3.566765452089019,-0.5629869169421017,-13.881457074450273,-16.003276908580634
0.6319762180236465,-5.235767111894634,3.5611355829195976,-0.723019686027908,-12.653445596679733,-14.156830751103534
0.5796185469047002,-5.362301567861431,3.5539053860593186,-0.8645879935389433,-11.150493204935044,-11.85599768750689
0.5259955312260859,-5.473806499910782,3.545259506123929,-0.9831479704140123,-9.391094174390215,-9.127689181998434
0.47125746622697806,-5.567717441654684,3.535428026419789,-1.0744248622339967,-7.406094322686545,-6.020972903940356
0.4155802918104312,-5.64177838488155,3.524683777797449,-1.1346345912734002,-5.23777336436744,-2.605811359237311
0.3591625079616157,-5.694156118525225,3.513337431884715,-1.1606927048657734,-2.9382924253203684,1.0296570872650435
0.30222094677636346,-5.7235390427784285,3.501730504836057,-1.150396133993123,-0.5676558640353314,4.783081237183132
0.2449855563485792,-5.729215601418781,3.490226543496126,-1.1025653216212916,1.8087169200538196,8.542884749842063
0.18769340033439136,-5.711128432218243,3.4792008902799134,-1.017136474122871,4.122783285736059,12.194083174683442
0.13058211601220893,-5.669900599360882,3.4690295255386845,-0.8951956423760365,6.307039293987587,15.624724847922318
0.0738831100186001,-5.606830206421006,3.460077569114924,-0.7389483938968133,8.298015767424523,18.732658482472704
0.017814807954390034,-5.523850048746761,3.452688085175956,-0.5516218090720862,10.039949202626303,21.432157566251988
-0.03742369253307758,-5.423450556720498,3.447171867085235,-0.3373002334095664,11.488302119775328,23.659738025616356
-0.09165819810028256,-5.308567535522744,3.4437988647511393,-0.10070285315340283,12.612669532989043,25.378393127797708
-0.14474387345550999,-5.182440840192854,3.4427918362196053,0.15308107812457428,13.398575244618508,26.57953757227551
-0.19656828185743852,-5.048455087746668,3.4443226470008512,0.41887645384732936,13.847778812072347,27.28224294880591
-0.2470528327349052,-4.909977299625945,3.4485114115393247,0.6916988833353884,13.976967152325145,27.529808436428958
-0.29615260573116464,-4.7702076281026935,3.4554284003726785,0.966996967699678,13.815019478446322,27.38421012975284
-0.3438546820121916,-4.632057433318231,3.465098370049675,1.2408390689972064,13.399306827010834,26.919348981947557
-0.3901752563453739,-4.498064365048123,3.4775067607396473,1.510032558816682,12.771631692029299,26.214156225288374
-0.43515589999585513,-4.37034804812783,3.4926070863278142,1.7721741210695658,11.974397309519343,25.346495631419124
-0.47885938047713345,-4.250604075032636,3.51032882753851,2.025639077383757,11.047448856558667,24.38849579969451
-0.5213654212274598,-4.140129586467049,3.5305852183123476,2.2695240353807025,10.025817301882213,23.403572405784086
-0.5627667170921302,-4.0398714134482265,3.553280458666155,2.5035597594385433,8.938391628110766,22.445071553499353
-0.6031654312266125,-3.950487497167119,3.5783160562605403,2.7280104749735368,7.80739471300306,21.556247218414942
-0.6426703061982837,-3.872413550037088,3.6055961610102756,2.943572947157686,6.648458997949441,20.77119167305369
-0.6813944416986546,-3.8059289600575936,3.6350318904818524,3.151284863888223,5.471081838662139,20.116343433653213
-0.7194537312992305,-3.7512181416709725,3.6665447391207344,3.3524482982247554,4.279266459265616,19.612262854337178
-0.7569659127159403,-3.7084254770783165,3.700069222102982,3.5485709267681274,3.0722011202463975,19.2754532877
-0.7940501674867234,-3.6777034658758527,3.7355549313706633,3.7413254596451275,1.8448805366286003,19.120088652244174
-0.8308272021454819,-3.659254660509567,3.7729681859671147,3.9325263461675695,0.5886215642688093,19.15957065133134
-0.8674197487505776,-3.653368444866879,3.8122934494287906,4.124122052680883,-0.7085311903179808,19.407872849824688
-0.9039534331992464,-3.6604537567700586,3.8535346699555992,4.318200781179129,-2.06146940039459,19.88062858602447
-0.9405579707669469,-3.6810684507740046,3.8967166777673907,4.5170070670393745,-3.487656149269221,20.5958753527051
-0.977368655274687,-3.7159450122666966,3.9418867484377844,4.722965820566426,-5.0065404939148195,21.57425784301791
-1.0145281053973538,-3.7660104172058446,3.989116406643449,4.938708398996605,-6.638393595754217,22.838269667207733
-1.0521882095694122,-3.832394353163387,4.038503490633415,5.167091095668682,-8.401902058942387,24.40969167385617
-1.090512153101046,-3.916413373752811,4.090174401590102,5.411188012407243,-10.309290675252555,26.303603410539544
-1.1296762868385741,-4.019506280505336,4.144286281714174,5.674224046512639,-12.356737708880843,28.515940076284757
-1.1698713496436275,-4.143073657594145,4.201028522179301,5.959383447275487,-14.50614128929581,30.999184817519073
-1.211302086219569,-4.288135070487103,4.260622356652055,6.269375295450677,-16.651774340061557,33.61723572299026
-1.25418343692444,-4.454652813887718,4.323316109606562,6.60554765268058,-18.56288096562875,36.06691138938023
-1.2987299650633173,-4.640281623544006,4.389371586133368,6.966216766574383,-19.795383104263813,37.75623799478927
-1.3451327812987572,-4.838235454586644,4.459033753799112,7.343779146522276,-19.58736236773469,37.65910066734816
-1.3935151358446236,-5.034109078263991,4.532471545264334,7.720370153195757,-16.825665278123015,34.266388317778656
-1.4438562266272634,-5.202365731045221,4.609675246796292,8.063034036373544,-10.314345441027212,25.952894891571933
-1.4958798839377156,-5.305509185455493,4.690305587160028,8.322562985289263,0.3685466032850822,12.156909534526653
-1.5489349757922706,-5.301823719422643,4.773531217012921,8.44413208063453,13.703204713389157,-5.014822089382531
-1.601953212986497,-5.164791672288751,4.857972537819266,8.393983859740704,26.239277913814792,-20.824250725607357
-1.6536011297093847,-4.902398893150603,4.941912376416672,8.18574135248463,34.78427681049924,-30.94334426546503
-1.7026251186408907,-4.554556125045611,5.023769789941519,7.87630790982998,38.552582384474405,-34.39476938373424
-1.7481706798913468,-4.169030301200867,5.102532869039819,7.532360215992638,38.81157378709363,-33.00670627513233
-1.7898609829033554,-3.780914563329931,5.177856471199745,7.202293153241315,37.2546432781176,-29.143413076064974
-1.8276701285366548,-3.4083681305487548,5.249879402732159,6.910859022480665,35.08255000134109,-24.45329025478303
-1.8617538098421422,-3.0575426305353437,5.3189879929569654,6.666326119932834,32.929330773249546,-19.789332921476838
-1.8923292361474957,-2.7282493228028484,5.3856512541562935,6.468432790718066,31.063901712741966,-15.50050361638784
-1.9196117293755242,-2.417610305675429,5.450335582063474,6.313427754554188,29.568359204747175,-11.682615881899011
-1.9437878324322784,-2.121926713627957,5.513469859609016,6.196601595735197,28.44188658802425,-8.32265427465128
-1.965007099568558,-1.8375078477477145,5.5754358755663675,6.113375052988685,27.652011261539226,-5.369217478791655
-1.9833821780460352,-1.5609877351323223,5.636569626096255,6.059682878200769,27.157483607235932,-2.7636719020475717
-1.9989920553973584,-1.289412899059963,5.697166454878262,6.032046159180293,26.91747688532698,-0.4526335070194689
-2.011886184387958,-1.0202381302066932,5.757486916470065,6.027519824110098,26.894590613852525,1.607848385473166
-2.0220885656900247,-0.7512922240681679,5.817762114711166,6.04359830796483,27.05519664697563,3.4515633381232167
-2.0296014879307065,-0.48074025759841155,5.878198097790814,6.078113941346062,27.368739516984444,5.102710640005425
-2.0344088905066906,-0.20705286242856707,5.938979237204275,6.129141047746116,27.806706802000562,6.57685560721026
-2.036479419130976,0.07101420559143856,6.000270647681736,6.1949096038182185,28.341582526525016,7.881922057289247
-2.0357692770750617,0.3544300308566887,6.062219743719918,6.273728824391111,28.945922721392748,9.01912338738458
-2.032224976766495,0.6438892580706161,6.124957031963829,6.363920058264957,29.59162279954153,9.98384481401031
-2.025786084185789,0.9398054860660314,6.1885962325464785,6.46375850640506,30.24942299647359,10.76653467699593
-2.0163880293251286,1.2422997160307674,6.253233817610529,6.571423853175019,30.888692648007037,11.353676522392984
-2.003965032164821,1.5511866425108378,6.31894805614228,6.684960618398948,31.47753190740378,11.728909088350226
-1.9884531657397126,1.8659619615848757,6.3857976623262696,6.80224970928245,31.98322207418627,11.874342398873326
-1.9697935461238638,2.185794182326738,6.453820159419094,6.920993133271184,32.37303759656582,11.77208560079044
-1.9479356043005964,2.509524558292396,6.523030090751806,7.038713989279088,32.61540115840532,11.405956653192458
-1.9228403587176726,2.8356785698764493,6.593417230644597,7.152773555811013,32.681318397566386,10.763288632131324
-1.894483573018908,3.1624917538521133,6.664944966202707,7.260406442132326,32.545975260634705,9.836689463150604
-1.862858655480387,3.4879515064584603,6.737549030624031,7.358773336763832,32.19032810016016,8.625563074694398
-1.8279791404158023,3.809854787460062,6.811136763991669,7.445028967510776,31.60247773800995,7.137175128318948
-1.7898805925412018,4.125879564840162,6.885587053666777,7.516400718793966,30.778608615252235,5.387060011944208
-1.7486217968928002,4.433665650992684,6.960751060854717,7.570271318913408,29.723304476539678,3.3986263360257007
-1.7042851403828734,4.730898695758081,7.036453774043851,7.604257582273664,28.449126162571254,1.2019234077663694
-1.6569761534252925,5.0153899573837935,7.112496349866587,7.616276816351328,26.975446378405227,-1.1683350219241093
-1.6068222538514545,5.285144421167845,7.188659118030101,7.604593466132087,25.326660152090618,-3.675258892537583
-1.553970809639776,5.538411022688751,7.264705052691421,7.567840877206711,23.53000030334367,-6.282448079654537
-1.4985866994128885,5.773711025722188,7.340383461463488,7.5050163964101655,21.613258084455026,-8.956458231825124
-1.4408495891556665,5.989843606566739,7.41543362542759,7.415451814091914,19.60272379860875,-11.668712671217463
-1.3809511530899992,6.185870844552826,7.489588143568509,7.298764687379739,17.521619578849418,-14.396594396858804
-1.319092444644471,6.361087040341321,7.562575790442307,7.154798743411151,15.38921032447354,-17.12357986671699
-1.2554815742410577,6.514979143586056,7.634123777876418,6.983562944743981,13.220671511814938,-19.838414970847946
-1.1903317828051971,6.647185858704206,7.7039594073238575,6.785178795035502,11.027687090632586,-22.53345807444456
-1.123859924218155,6.757462729610531,7.771811195274212,6.559844214291056,8.819663206620588,-25.20241037867131
-1.0562852969220498,6.845659361676737,7.837409637417123,6.307820110504343,6.605380639792249,-27.8377172932443
-0.9878287033052824,6.91171316807466,7.900487838522166,6.0294429375719,4.3948688286675885,-30.427961572821353
-0.9187115716245358,6.955661856361336,7.960782267897885,5.725163321843686,2.201261327123943,-32.955587059980424
-0.8491549530609224,6.977674469632575,8.018033901116322,5.395607451243882,0.04238186881477321,-35.395293834518036
-0.7793782083645966,6.978098288320723,8.07198997562876,5.041654512898702,-2.058187433802209,-37.71342559590786
-0.7095972254813894,6.957516413982701,8.122406520757748,4.664520256939623,-4.070781346933504,-39.8686138661
-0.6400220613415624,6.916808600513366,8.169051723327144,4.265834118278623,-5.960240128413537,-41.81383334956605
-0.5708539753364287,6.85720619922923,8.21171006450993,3.847695784782963,-7.687481680347867,-43.49984728318761
-0.5022819133441364,6.780331382425752,8.250187022357759,3.412697311951087,-9.211982071104345,-44.87978843172778
-0.4344785995198789,6.688211561714708,8.28431399547727,2.963899427633809,-10.494914387284915,-45.91436651605742
-0.3675964839027318,6.583262417841859,8.313952989753608,2.5047557624732346,-11.502528290514565,-46.57698038217625
-0.3017638597243132,6.468237134936714,8.33900054737834,2.0389859586514723,-12.209242916994121,-46.85791960261719
-0.23708148837494605,6.346144705766773,8.359390406964856,1.5704067626253004,-12.599920644744174,-46.76692457521396
-0.17362004131727832,6.220145499319331,8.375094474591108,1.1027375168731608,-12.670909452515554,-46.3336461229469
-0.111418586324085,6.093436404794176,8.38612184975984,0.6394010556436918,-12.429666253624328,-45.60594868164962
-0.050484222276143235,5.969139742257933,8.392515860316278,0.18334156882719554,-11.893042547266237,-44.64642621697096
0.00920717514643609,5.8502093167852705,8.39434927600455,-0.26312269334251404,-11.084549341002342,-43.52782604889395
0.0677092683142888,5.739363823375247,8.391718049071125,-0.6984009538314535,-10.03105663423553,-42.32821874289055
0.1251029065480413,5.6390532570328915,8.38473403953281,-1.121683141260359,-8.759397705180806,-41.12669570728168
0.1814934391183702,5.551459279981083,8.373517208120207,-1.5329500983331759,-7.293256873294327,-40.00016898020167
0.23700803191818104,5.47852671124814,8.358187707136874,-1.9329517881351925,-5.650567539471868,-39.02157400935128
0.2917932990306624,5.4220210358534215,8.338858189255523,-2.3231675282287054,-3.8414888758872268,-38.25951661668752
0.3460135093891966,5.383606147094549,8.315626513973235,-2.7057626943955806,-1.8669084346008524,-37.77920793160242
0.3998495708601421,5.364937062748541,8.28856888702928,-3.083554773711605,0.2826368951735375,-37.644399440365014
0.45349894148762754,5.3677634317002765,8.257733339292164,-3.459998768115255,2.627695072533498,-37.91992200250666
0.5071765758046303,5.394040382425612,8.223133351611011,-3.8391979881403215,5.2002004580391,-38.67425354451896
0.5611169796288864,5.446042387006003,8.184741371729608,-4.225940523585511,8.042873405999185,-39.98111343363349
0.6155774034989464,5.5264711210659945,8.142481966493753,-4.625751657921846,11.206426103977288,-41.918061634756846
0.6708421147096063,5.6385353821057675,8.096224449914533,-5.0449322742694145,14.741529283944228,-44.55775989483517
0.727227468530664,5.78595067494521,8.04577512717184,-5.490509873217766,18.678784743928293,-47.94248699881068
0.7850869752801161,5.972738522384493,7.990870028439662,-5.969934743205873,22.982343120276898,-52.02196991897181
0.844814360503961,6.202561953587262,7.931170681007604,-6.490154442395591,27.448515156188353,-56.51466726945556
0.9068399800398336,6.477047105149145,7.866269136583648,-7.055301115090146,31.499902379348043,-60.62344762730749
0.971610451091325,6.7920461289426255,7.7957161254327465,-7.661535591363221,33.822046421893866,-62.53128812469716
1.0395309123807512,7.130266593161564,7.719100769519114,-8.286848472610194,31.921415369579247,-58.786181974454884
1.1108335783123668,7.449480746857357,7.636232284793012,-8.874710292354742,22.258649481176786,-44.48802178563875
1.1853283857809405,7.672067241669125,7.547485181869464,-9.319590510211128,2.6170079504828876,-16.595617955213893
1.2620490581976318,7.698237321173954,7.454289276767353,-9.485546689763268,-23.024597346569035,19.28411252709254
1.3390314314093714,7.467991347708264,7.359433809869721,-9.292705564492342,-44.18692162964528,48.53176909295135
1.413711344886454,7.02612213141181,7.266506754224797,-8.80738787356283,-53.683303195829545,61.227495816229016
1.483972566200572,6.489289099453515,7.178432875489169,-8.19511291540054,-53.431421007419516,60.17285591961113
1.5488654571951073,5.9549748893793195,7.096481746335163,-7.593384356204428,-48.71487899439365,52.79449408365907
1.6084152060889005,5.467826099435383,7.020547902773119,-7.0654394153678375,-43.06107871807358,44.01487096209556
1.6630934670832545,5.037215312254648,6.94989350861944,-6.625290705746882,-37.921359133238354,35.84526583491767
1.713465620205801,4.658001720922265,6.8836406015619716,-6.266838047397705,-33.68205297595782,28.811959845433073
1.7600456374150235,4.321181191162687,6.820972221087994,-5.978718448943375,-30.331495168041332,22.88888848552357
1.8032574493266504,4.017866239482274,6.761185036598561,-5.749829564088139,-27.74587588721081,17.89545237876147
1.8434361117214733,3.7404074806101657,6.7036867409576795,-5.570875040300524,-25.790551674528277,13.637001536994042
1.880840186527575,3.482501963864883,6.647977990554674,-5.4345050249305835,-24.349661343852326,9.945892578280219
1.9156652061662238,3.2390053504263596,6.593632940305368,-5.335046099147782,-23.330815791703717,6.688271976673526
1.9480552596704874,3.0056971925093223,6.54028247931389,-5.268163379381046,-22.662156576765703,3.7606087336116194
1.9781122315955806,2.7790756267416654,6.48760084552008,-5.23055729204493,-22.287741988620123,1.0842520504174724
2.005902987862997,2.556198206855464,6.435295272599631,-5.219714771540755,-22.16310594322839,-1.399397129832553
2.0314649699315517,2.33456714742318,6.383098124884223,-5.23370874283908,-22.251406664125525,-3.7324766464758454
2.0548106414057834,2.112053080781925,6.330761037455833,-5.271033509303838,-22.520125490838407,-5.943022936934834
2.0759311722136027,1.886851825873541,6.278050702362795,-5.330463738673187,-22.938165704462318,-8.046280297079127
2.094799690472338,1.6574701688289177,6.224746064976063,-5.410926541643978,-23.47321416713559,-10.045173360020751
2.111374392160627,1.4227380271575618,6.170636799559624,-5.511378275244185,-24.089290210476584,-11.930168198229678
2.1256017724322027,1.181845125052796,6.115523016807182,-5.630679957226482,-24.744496139192687,-13.678781356401046
2.1374202236827307,0.9344001636608691,6.059216217234917,-5.767467770790493,-25.389099480910392,-15.255068439419295
2.1467642253193393,0.6805091688517652,6.001541539527012,-5.920018455184685,-25.96421749255083,-16.609534972193753
2.153569317007857,0.42086699392625687,5.942341354975165,-6.086113804906623,-26.401527763311737,-17.680044674913415
2.1577779869471194,0.1568517162931395,5.881480216926098,-6.262914251655757,-26.624561651489852,-18.39441010459173
2.159346504110051,-0.10939390022175904,5.81885107440954,-6.446858352701675,-26.55218526298638,-18.675358787893895
2.158252565107833,-0.3749157528516229,5.754382490882524,-6.6336119405806135,-26.104740376690156,-18.4483632667463
2.154503407579317,-0.6359631566185244,5.688046371476718,-6.818095573248076,-25.212902445569547,-17.65229308387527
2.1481437760131317,-0.8880921810742199,5.619865415744237,-6.994618504086829,-23.828564109011996,-16.25194866460647
2.1392628542023893,-1.12637782216434,5.5499192307033685,-7.157137990732894,-21.936062986458897,-14.250404899549041
2.1279990759807457,-1.3457384520289288,5.478347850796039,-7.299642039728384,-19.56115273513131,-11.69811345835254
2.1145416914604565,-1.5413499793802419,5.405351430398755,-7.416623174311909,-16.774765703561464,-8.695472969547614
