th1 (rad),w1 (rad/s),th2 (rad),w2 (rad/s),a1 (rad/s^2),a2 (rad/s^2)
5.486499209620967,0.9069091097048336,2.3022611444352408,-1.2787342110336308,6.75076054112196,-0.5835699003042089
5.495568300718015,0.9744167151160532,2.2894738023249044,-1.284569910036673,6.547199803493774,-0.9038523260264268
5.505312467869176,1.0398887131509909,2.2766281032245375,-1.2936084332969373,6.328341285227017,-1.2482111376701992
5.515711355000686,1.103172126003261,2.263692018891568,-1.3060905446736393,6.095143013354325,-1.61621232865229
5.526743076260719,1.1641235561368042,2.2506311134448316,-1.3222526679601623,5.849018365921007,-2.006801858614383
5.538384311822087,1.2226137397960142,2.23740858676523,-1.3423206865463062,5.591861293127667,-2.418274175974205
5.550610449220047,1.278532352727291,2.223985379899767,-1.3665034283060482,5.326054676479775,-2.84826677218186
5.563395772747319,1.3317928994920887,2.2103203456167066,-1.3949860960278668,5.0544586580641155,-3.2937854850574038
5.57671370174224,1.3823374860727298,2.196370484656428,-1.427923950878441,4.780376703631783,-3.7512638125785096
5.590537076602968,1.4301412531090476,2.1820912451476433,-1.465436589004226,4.507498495955959,-4.216657446387684
5.604838489134059,1.4752162380686071,2.167436879257601,-1.5076031634681029,4.2398204247383795,-4.685572697755403
5.619590651514745,1.517614442315991,2.1523608476229197,-1.5544588904456569,3.981546320306941,-5.153424673710843
5.634766795937905,1.5574299055190604,2.136816258718463,-1.6059931371827654,3.7369729881353786,-5.615618257043499
5.650341094993095,1.5947996354004141,2.1207563273466357,-1.6621493197532005,3.5103668185582744,-6.0677424940603855
5.6662890913471,1.6299033035859969,2.1041348341491037,-1.7228267446938044,3.3058390403213536,-6.505767247539193
5.68258812438296,1.6629616939892105,2.0869065667021656,-1.7878844171691963,3.127227855645615,-6.926230225608208
5.699217741322852,1.6942339725456665,2.0690277225304734,-1.8571467194252784,2.9779956038297835,-7.32640293505039
5.716160081048309,1.7240139285839644,2.0504562553362207,-1.9304107487757822,2.861148214993083,-7.704425757933759
5.733400220334149,1.7526254107338952,2.031152147848463,-2.0074550063551198,2.779182615281652,-8.059405066619586
5.750926474441488,1.7804172368867117,2.0110775977849116,-2.0880490570213155,2.734065618530091,-8.391468767643541
5.768730646810355,1.8077578930720126,1.9901971072146984,-2.171963744697751,2.7272454564292468,-8.701780482421508
5.786808225741075,1.835030347636305,1.968477469767721,-2.258981549521966,2.7596947648093453,-8.992516276407148
5.805158529217438,1.8626272952843985,1.9458876542725012,-2.3489067122860376,2.8319818468275435,-9.26681102362073
5.823784802170282,1.8909471137526739,1.9223985871496407,-2.441574822522245,2.944365601352275,-9.528683835870382
5.842694273307809,1.9203907697661966,1.8979828389244182,-2.536861660880949,3.0969087698768996,-9.78295334441776
5.861898181005471,1.9513598574649655,1.8726142223156088,-2.6346911943251268,3.289604147542893,-10.035154009061129
5.88141177958012,1.9842558989403944,1.8462673103723575,-2.735042734415738,3.5225090602145293,-10.291464201301272
5.901254338569524,2.0194809895425396,1.8189168830282,-2.8379573764287507,3.795884600523172,-10.55865581965457
5.92144914846495,2.0574398355477714,1.7905373092639125,-2.9435439346252963,4.1103376791382225,-10.844073947905564
5.942023546820427,2.0985432123391536,1.7611018699176595,-3.051984674104352,4.466965720450793,-11.155653858295041
5.963008978943819,2.1432128695436616,1.730582023176616,-3.1635412126873024,4.867505674705333,-11.501981743586944
5.984441107639255,2.191887926290715,1.698946611049743,-3.278561030123172,5.314490824962889,-11.892405114280638
6.006359986902162,2.245032834540344,1.6661610007485115,-3.397485081265978,5.811420557355789,-12.337198907361975
6.028810315247566,2.303147040113902,1.6321861499358516,-3.5208570703395976,6.362949756561007,-12.84779399318221
6.051841785648705,2.3667765376795122,1.5969775792324556,-3.64933501027142,6.975105648217133,-13.437075747531772
6.0755095510255,2.4365275941616837,1.5604842291297414,-3.7837057677467376,7.655540438103444,-14.119761218788215
6.099874826967117,2.513082998542718,1.522647171452274,-3.92490337993462,8.41382734162938,-14.912863210049212
6.125005656952544,2.597221271959012,1.4833981376529277,-4.074032012035112,9.261804181218281,-15.836246387921012
6.150977869672134,2.689839313771195,1.4426578175325766,-4.232394475914322,10.213959841578559,-16.913270471155084
6.177876262809845,2.7919789121869805,1.4003338727734334,-4.401527180625873,11.287838861333174,-18.171490948994887
6.205796051931715,2.904857300800312,1.3563186009671746,-4.583242090115822,12.504397029609999,-19.643333259570277
6.2348446249397185,3.029901271096412,1.3104861800660164,-4.779675422711525,13.888153624967254,-21.366541211265574
6.265143637650683,3.168782807346085,1.2626894258389012,-4.99334083482418,15.466809380321902,-23.383963371825253
6.296831465724144,3.323450901149304,1.2127560174906593,-5.227180468542433,17.269645558171547,-25.741760578909588
6.3300659747356365,3.4961473567310195,1.160484212805235,-5.484598074331529,19.32331799129174,-28.48415604186108
6.365027448302946,3.6893805366439367,1.1056382320619198,-5.76943963475014,21.642290867602593,-31.640959140976683
6.401921253669386,3.905803445319963,1.0479438357144184,-6.085849226159906,24.208569664400457,-35.20050134562246
6.440979288122585,4.147889141963967,0.9870853434528193,-6.437854239616131,26.9308517906023,-39.05427092199208
6.482458179542225,4.41719765986999,0.9227068010566579,-6.828396948836052,29.566561098808215,-42.890139161282406
6.526630156140925,4.7128632708580716,0.8544228315682973,-7.257298340448876,31.58558435411974,-46.00423873108783
6.5737587888495055,5.028719114399269,0.7818498481638085,-7.717340727759754,31.972504237583543,-47.025840917311896
6.6240459799934985,5.348444156775105,0.704676440886211,-8.187599136932873,29.06738692912771,-43.69230930478458
6.67753042156125,5.639118026066382,0.6228004495168822,-8.624522229980718,20.829463795629618,-33.206489428282495
6.733921601821914,5.847412664022678,0.536555227217075,-8.956587124263542,6.2031623649672305,-14.12062184212602
6.79239572846214,5.9094442876723505,0.4469893559744396,-9.097793342684803,-12.592155540846646,10.503165661036144
6.851490171338864,5.783522732263884,0.3560114225475916,-8.992761686074441,-29.815189373844994,32.77798144385981
6.909325398661503,5.485370838525434,0.2660838056868472,-8.664981871635844,-40.43036980440144,45.862160836509474
6.964179107046757,5.081067140481419,0.17943398697048876,-8.20636026327075,-43.91666124825712,49.17134649370157
7.014989778451571,4.641900527998848,0.09737038433778127,-7.7146467983337335,-42.84126496273275,46.32346253661835
7.061408783731559,4.21348787837152,0.020223916354443927,-7.25141217296755,-39.81231732181649,40.91901612916788
7.103543662515274,3.8153647051533555,-0.052290205375231574,-6.842222011675871,-36.35922601751013,35.035082593835156
7.1416973095668075,3.4517724449782543,-0.1207124254919903,-6.49187118573752,-33.15004304895943,29.556783201075454
7.17621503401659,3.12027201448866,-0.18563113734936548,-6.1963033537267656,-30.40114758932664,24.754245488828033
7.207417754161477,2.8162605385953934,-0.24759417088663313,-5.9487608988384855,-28.13513941074894,20.63975294451289
7.235580359547431,2.534909144487904,-0.307081779875018,-5.742363369393357,-26.30453707336833,17.13667932746177
7.260929450992309,2.271863773754221,-0.36450541356895155,-5.570996576118739,-24.843883116482544,14.149415176598502
7.283648088729851,2.0234249425893953,-0.42021537933013897,-5.429502424352754,-23.689442032598784,11.589055598105654
7.303882338155745,1.7865305222634076,-0.47451040357366653,-5.313611868371698,-22.785364382605643,9.380907664223416
7.321747643378379,1.558676878437351,-0.5276465222573835,-5.219802791729464,-22.08457058171633,7.465073149302076
7.337334412162753,1.3378311726201877,-0.5798445501746782,-5.145152060236443,-21.547794015640907,5.794722812855444
7.350712723888955,1.1223532324637786,-0.6312960707770426,-5.087204832107888,-21.142159099436373,4.33386191911526
7.361936256213593,0.9109316414694149,-0.6821681190981215,-5.043866212916735,-20.839809600503106,3.0552278020227726
7.371045572628287,0.7025335454643837,-0.7326067812272888,-5.013313934896508,-20.616753404701434,1.9384984466899342
7.378070908082931,0.49636601141736936,-0.782739920576254,-4.993928950429608,-20.45195447491911,0.9688176019629289
7.383034568197105,0.29184646666817826,-0.83267921008055,-4.984240774409979,-20.326655081871106,0.13558570817195428
7.385953032863787,0.0885799158494672,-0.8825216178246498,-4.982884917328259,-20.223898394951068,-0.5685441453148233
7.386838832022281,-0.11365906810004348,-0.9323504669979323,-4.988570358781407,-20.128220965512355,-1.148519061800835
7.3857022413412805,-0.314941277755167,-0.9822361705857464,-5.000055549399415,-20.02548736142629,-1.607629472816747
7.382552828563729,-0.5151961513694299,-1.0322367260797405,-5.016131844127583,-19.902841655975177,-1.9481708107967661
7.377400867050035,-0.7142245679291817,-1.0823980445210164,-5.03561355223555,-19.748751501394924,-2.1720394349759777
7.370258621370743,-0.9117120829431309,-1.1327541800433718,-5.05733394658531,-19.55312009634761,-2.2812673934359564
7.3611415005413114,-1.107243283906607,-1.183327519509225,-5.08014662051967,-19.30743999988631,-2.2784913216598306
7.350069067702245,-1.3003176839054702,-1.2341289857144218,-5.102931533736268,-19.00496124989129,-2.167343849525477
7.33706589086319,-1.490367296404383,-1.2851583010517844,-5.1246049722315234,-18.64084552981445,-1.952751877071292
7.322162217899146,-1.6767757517025275,-1.3364043507740997,-5.144132491002236,-18.21227907524433,-1.6411254852808135
7.3053944603821215,-1.8588985424549707,-1.387845675684122,-5.160543745855044,-17.71852029298565,-1.2404243256906993
7.286805474957572,-2.0360837453848273,-1.4394511131426724,-5.172947989111951,-17.160863971304533,-0.7600949052353747
7.2664446375037235,-2.2076923850978725,-1.4911805930337918,-5.180548938164305,-16.542512274359364,-0.21088152388095638
7.2443677136527445,-2.373117507841466,-1.542986082415435,-5.182657753403115,-15.868352676775785,0.3954755419568544
7.22063653857433,-2.5318010346092237,-1.594812659949466,-5.178702997983546,-15.144653391632847,1.0466303568065853
7.1953185282282375,-2.683247568525552,-1.6465996899293016,-5.16823669441548,-14.378696222804466,1.7300771821603913
7.168486052542982,-2.827034530753597,-1.6982820568734565,-5.1509359225938764,-13.57837373564511,2.43361367615732
7.140215707235446,-2.962818268110048,-1.7497914160993953,-5.126599785832303,-12.751781159977044,3.1457824233363865
7.1105875245543455,-3.0903360797098185,-1.8010574139577182,-5.095141961598939,-11.906833084254396,3.856255518848126
7.079684163757247,-3.2094044105523625,-1.8520088335737077,-5.0565794064104574,-11.050931019704901,4.556134552926068
7.047590119651724,-3.3199137207494114,-1.9025746276378124,-5.011018060881197,-10.190701159439243,5.238148532463126
7.01439098244423,-3.4218207323438037,-1.9526848082466244,-4.958636575556565,-9.331813365311245,5.89674339717645
6.980172775120792,-3.5151388659969163,-2.00227117400219,-4.899669141584801,-8.478883920265957,6.5280672306789835
6.945021386460823,-3.5999277051995757,-2.051267865418038,-4.834388469278011,-7.6354570529307875,7.129863761944829
6.909022109408827,-3.6762822757288838,-2.099611750110818,-4.763089831658562,-6.80405448439828,7.701292549711606
6.872259286651539,-3.7443228205728665,-2.1472426484274036,-4.686076906161446,-5.9862786415836595,8.242697146836633
6.83481605844581,-3.8041856069887032,-2.194103417489018,-4.60364993469308,-5.182953700979062,8.755342828474348
6.796774202375923,-3.8560151439984938,-2.240139916835949,-4.516096506408337,-4.394288944606471,9.241143721490317
6.758214050935938,-3.8999580334445585,-2.2853008819000324,-4.423685069193434,-3.6200505335495645,9.702396108323944
6.719214470601492,-3.936158538780054,-2.329537732591967,-4.326661108110194,-2.8597302007608247,10.141530990933452
6.679852885213691,-3.9647558407876624,-2.3728043436730686,-4.225245798200859,-2.1127020563402064,10.560895260046554
6.640205326805814,-3.9858828613510644,-2.4150568016550773,-4.119636845600394,-1.3783613179725611,10.962567419906646
6.6003464981923035,-3.99966647453079,-2.456253170111081,-4.010011171401327,-0.6562410879932344,11.348210991491577
6.560349833446995,-4.006228885410723,-2.4963532818250944,-3.8965290614864116,0.05389482244773271,11.718966530666759
6.520287544592888,-4.005689937186245,-2.5353185724399587,-3.779339396179744,0.7519835961244414,12.075381615571574
6.480230645221026,-3.998170101225001,-2.5731119664017563,-3.6585855800240283,1.4376191992906624,12.417377076537532
6.440248944208776,-3.9837939092320944,-2.6096978222019964,-3.534411809258653,2.1100311358021746,12.74424702897825
6.400411005116455,-3.9626935978740727,-2.645041940294583,-3.4069693389688704,2.768084599529414,13.054689790457765
6.360784069137714,-3.9350127518787787,-2.679111633684272,-3.276422441064293,3.410300161883547,13.346866400861837
6.321433941618926,-3.9009097502599435,-2.7118758580949147,-3.1429537770556744,4.034890904555826,13.618483131980751
6.282424844116326,-3.8605608412143853,-2.7433053958654714,-3.0067689457358666,4.63981469472413,13.866894017433681
6.243819235704182,-3.814162694267144,-2.77337308532283,-2.86810000556153,5.222839068367062,14.089219039077536
6.20567760876151,-3.761934303583473,-2.8020540853784452,-2.727207815170755,5.781615928241131,14.282473188412066
6.1680582657256755,-3.704118144301062,-2.829326163530153,-2.5843830832866344,6.313762989829791,14.443701225335673
6.131017084282665,-3.6409805144027643,-2.8551699943630195,-2.4399460710332774,6.816948652573609,14.570112645926987
6.094607279138637,-3.572811027877028,-2.8795694550733524,-2.2942449445740074,7.288976778709517,14.659211219143772
6.0588791688598675,-3.4999212600899328,-2.9025119045190926,-2.14765283238257,7.727867776909465,14.708913530343962
6.023879956258968,-3.422642582320838,-2.9239884328429184,-2.00056369707913,8.131932458175882,14.71765133331118
5.98965353043576,-3.341323257739079,-2.94399406981371,-1.8533871837460183,8.49983539099627,14.684453191610483
5.956240297858369,-3.256324903829116,-2.96252794165117,-1.7065426518299134,8.83064494643817,14.609001879321069
5.923677048820078,-3.1680184543647347,-2.979593368169469,-1.5604526330367028,9.123867882572036,14.49166526636698
5.891996864276431,-3.0767797755390145,-2.995197894499836,-1.415535980373033,9.379467136819834,14.333499853756205
5.861229066521041,-2.982985104170816,-3.0093532543035666,-1.272200981835471,9.597862417207486,14.136227639090302
5.831399215479332,-2.887006479998741,-3.0220752641219213,-1.1308387054445679,9.779914135425166,13.90218845706297
5.802529150679345,-2.7892073386444896,-3.0333836511763668,-0.9918168208739382,9.92689212563141,13.634271228311574
5.7746370772929,-2.6899384173881753,-3.043301819385106,-0.8554741085908224,10.040431366631653,13.335828555255826
5.747737693119019,-2.5895341037218587,-3.0518565604710144,-0.7221158230382642,10.122477509191762,13.010579749228627
5.721842352081801,-2.488309328629941,-3.059077718701397,-0.5920100255459779,10.175225364624303,12.662507623524782
5.696959258795501,-2.386557074983698,-3.0649978189568565,-0.4653849493107301,10.201053621384425,12.295754249253994
5.673093688045664,-2.284546538769854,-3.0696516684499637,-0.34242740681819017,10.20245893532311,11.914520391469168
5.650248222657965,-2.1825219494166226,-3.0730759425181455,-0.22328220290349848,10.181992220806277,11.522972598165193
5.628423003163799,-2.08070202720856,-3.0753087645471804,-0.10805247692184655,10.142199504072892,11.125160997970626
5.607615982891713,-1.979280032167831,-3.0763892893163987,0.00319913305785971,10.085569144593336,10.724949871325563
5.587823182570035,-1.8784243407218977,-3.0763572979858202,0.11044863177111534,10.014486642279891,10.325962084537673
5.569038939162816,-1.7782794742990988,-3.075252811668109,0.21370825261649207,9.931197679070738,9.931537589663208
5.551256144419825,-1.6789674975083915,-3.073115729141944,0.31302362851312415,9.837779532541747,9.544705447432387
5.534466469444741,-1.580589702182974,-3.069985492856813,0.40847068298744804,9.73612057359385,9.168168254375797
5.518660572422911,-1.4832284964470355,-3.0659007860269387,0.500152365531206,9.627907233621583,8.804297456885244
5.503828287458441,-1.3869494241108196,-3.0608992623716267,0.5881953401000585,9.514617601077974,8.455137805113377
5.489958793217333,-1.2918032481000399,-3.0550173089706263,0.6727467181511922,9.397520676228831,8.122419117285487
5.477040760736333,-1.1978280413377516,-3.0482898417891144,0.7539709093240471,9.277680263294304,7.8075735620908455
5.465062480322955,-1.1050512387048086,-3.040750132695874,0.8320466449449555,9.155962495010655,7.5117567927646185
5.454011967935907,-1.013491613754702,-3.0324296662464243,0.9071642128726017,9.033046048918722,7.235871451678009
5.44387705179836,-0.9231611532655148,-3.0233580241176985,0.9795229273893818,8.90943421129337,6.980591782513555
5.4346454402657045,-0.8340668111525812,-3.013562794843805,1.0493288452145173,8.785468059495313,6.74638831689283
5.426304772154179,-0.746212130557628,-3.0030695063916597,1.1167927283834456,8.66134015521643,6.533551827280946
5.418842650848602,-0.6595987290054637,-2.991901579107825,1.182128246656255,8.537108260949728,6.3422159467118435
5.412246663558547,-0.5742276463959664,-2.9800802966412627,1.2455504061233735,8.412708704029377,6.172378041333819
5.4065043870945875,-0.4901005593556726,-2.967624792580029,1.3072741865367117,8.287969113026648,6.023918080517374
5.4016033815010305,-0.4072208682254061,-2.954552050714662,1.3675133673418853,8.16262033827806,5.896615380569652
5.397531172818776,-0.3255946648426255,-2.940876917041243,1.4264795211475818,8.036307441395117,5.790163203164108
5.3942752261703495,-0.24523159042867432,-2.9266121218297676,1.4843811531792228,7.908599698275744,5.704181270844957
5.391822910266063,-0.1661455934459169,-2.9117683102979752,1.5414229658876724,7.778999607556642,5.638226322506189
5.390161454331603,-0.08835559737035047,-2.8963540806390986,1.5978052291127343,7.646950933104408,5.591800874922009
5.3892778983579,-0.01188608803930638,-2.880376028347971,1.6537232378619544,7.511845836662509,5.564360385523689
5.389159037477507,0.06323237032731871,-2.8638387959693516,1.7093668417171912,7.373031176743663,5.555319029739316
5.38979136118078,0.13696268209475534,-2.84674512755218,1.7649200320145844,7.229814063746195,5.564054316050387
5.391160988001728,0.2092608227322173,-2.829095927232034,1.8205605751750882,7.081466770352415,5.589910765785354
5.39325359622905,0.2800754904357414,-2.810890321480283,1.8764596828329416,6.92723110158771,5.6322028844659755
5.396054351133407,0.34934780145161853,-2.7921257246519535,1.9327817116776014,6.7663223313038,5.690217648760804
5.399547829147924,0.41701102476465657,-2.7727979075351774,1.9896838881652095,6.597932811893019,5.7632167289317255
5.4037179393955705,0.48299035288358677,-2.752901068653525,2.0473160554545267,6.4212353621302105,5.850438661922007
5.408547842924406,0.5472027065048889,-2.73242790809898,2.1058204420737465,6.2353865343673816,5.951101185485098
5.414019869989455,0.6095565718485627,-2.7113697036782427,2.1653314539285975,6.039529856899699,6.064403939316616
5.420115435707941,0.6699518704175597,-2.689716389138957,2.2259754933217635,5.832799140059537,6.189531735154193
5.426814954412117,0.7282798618181551,-2.667456634205739,2.287870810673305,5.614321925235724,6.325658594209749
5.434097753030298,0.7844230810705123,-2.644577926099006,2.3511273966154027,5.383223144223339,6.471952746927773
5.441941983841003,0.8382553125127457,-2.621066652132852,2.4158469240846805,5.138629041680457,6.627582786645166
5.45032453696613,0.8896416029295502,-2.596908182892005,2.482122751951132,4.879671395562544,6.791725164918057
5.459220952995426,0.9384383168851756,-2.5720869553724937,2.5500400036003126,4.605492048779073,6.9635732116910285
5.468605336164278,0.9844932373729663,-2.5465865553364906,2.6196757357172227,4.31524773956503,7.1423478577222665
