th1 (rad),w1 (rad/s),th2 (rad),w2 (rad/s),a1 (rad/s^2),a2 (rad/s^2)
5.284408326773883,0.10547692717232421,2.0748538132740046,-1.2987504376968815,7.995422592019601,-0.604965299018019
5.285463096045606,0.18543115309252023,2.0618663088970357,-1.3048000906870616,7.939165604937772,-0.7322522995491177
5.2873174075765315,0.26482280914189793,2.048818307990165,-1.3121226136825528,7.874382389356997,-0.870832449003334
5.289965635667951,0.3435666330354679,2.0356970818533395,-1.3208309381725862,7.800663069558187,-1.0219619730643803
5.293401301998306,0.4215732637310498,2.022488772471614,-1.3310505579032301,7.71765618073263,-1.1868614323050386
5.297617034635616,0.4987498255383761,2.0091782668925817,-1.3429191722262805,7.625102006761464,-1.3666692215726566
5.302604532890999,0.5750008456059907,1.9957490751703189,-1.356585864442007,7.522868307052982,-1.562391906128775
5.308354541347059,0.6502295286765205,1.9821832165258988,-1.3722097835032947,7.410987277914861,-1.7748531502360352
5.314856836633824,0.7243394014556691,1.9684611186908658,-1.3899583150056551,7.28969223599879,-2.004643538342412
5.322100230648381,0.797236323815657,1.9545615355408092,-1.4100047503890794,7.159452185713509,-2.2520740883438695
5.330072593886538,0.8688308456727921,1.9404614880369184,-1.432525491272518,7.021002182480632,-2.5171366458585287
5.338760902343266,0.9390408674975984,1.9261362331241934,-1.4576968577311034,6.875367276567715,-2.799474557335038
5.348151311018242,1.0077945402632755,1.9115592645468824,-1.4856916033044538,6.72387786356415,-3.098366980102133
5.358229256420874,1.075033318898917,1.896702348513838,-1.5166752731054751,6.568174514043549,-3.4127298447980845
5.3689795896098635,1.1407150640393524,1.881535595782783,-1.550802571553456,6.410200826336883,-3.741135811583888
5.380386740250257,1.2048170723027212,1.8660275700672484,-1.5882139296692948,6.252183538022987,-4.081854564995478
5.392434910973284,1.267338907682951,1.8501454307705554,-1.6290324753192496,6.096600009608915,-4.432913527181658
5.405108300050114,1.3283049077790403,1.833855106017363,-1.673361610591066,5.946134193099488,-4.7921776363757
5.418391349127904,1.3877662497100351,1.8171214899114523,-1.721283386954823,5.803623227305169,-5.157445377989945
5.432269011625005,1.4458024819830868,1.799908656041904,-1.7728578407347224,5.6719977525254,-5.5265569364026685
5.446727036444836,1.5025224595083408,1.7821800776345567,-1.8281234100987491,5.5542197991543905,-5.897509326220757
5.461752261039919,1.5580646574998847,1.7638988435335692,-1.8870985033609566,5.45322258234986,-6.26857280949247
5.477332907614918,1.6125968833233832,1.7450278584999597,-1.9497842314558813,5.371856664649249,-6.638402908893627
5.493458876448152,1.6663154499698758,1.7255300161854008,-2.0161682605448177,5.312846711481219,-7.0061429185397825
5.5101220309478505,1.719443917084688,1.7053683335799525,-2.0862296897302155,5.2787624925416585,-7.371512951795526
5.527316470118698,1.7722315420101047,1.6845060366826503,-2.159944819248171,5.272006954203247,-7.7348831389249115
5.545038785538798,1.8249516115521371,1.6629065884901686,-2.23729365063742,5.294823220105009,-8.097330436599947
5.563288301654319,1.8778998437531873,1.6405336519837943,-2.3182669550034194,5.3493214035515315,-8.460680454151245
5.582067300091851,1.9313930577887026,1.6173509824337602,-2.402873759544932,5.43752527059319,-8.827537565232216
5.601381230669738,1.9857683104946344,1.5933222448383109,-2.491149135197254,5.561438192559216,-9.201308223067164
5.621238913774684,2.0413826924202265,1.5684107534863383,-2.5831622174279256,5.7231275562327175,-9.586223755226829
5.641652740698887,2.0986139679825535,1.542579131312059,-2.679024454980194,5.924826907010301,-9.987369969312656
5.662638880378712,2.1578622370526563,1.515788886762257,-2.7788981546733207,6.169055598372347,-10.410731707699117
5.684217502749239,2.21955279303638,1.487999905215524,-2.883005471750312,6.458756594491288,-10.863261153013786
5.706413030679602,2.2841403589812925,1.4591698504980208,-2.9916380832804497,6.79745428660246,-11.352979343481772
5.729254434269415,2.352114901847317,1.4292534696652164,-3.1051678767152673,7.189435688209236,-11.889121151283307
5.752775583287888,2.4240092587294093,1.3982017908980637,-3.2240590882281004,7.639960101233682,-12.482335021308918
5.777015675875182,2.500408859741746,1.3659612000157828,-3.3488824384411897,8.155504185132994,-13.144950094916954
5.8020197644725995,2.5819639015930758,1.332472375631371,-3.4803319393903593,8.744051102789037,-13.89132481454857
5.827839403488531,2.669404412620966,1.2976690562374673,-3.619245187535845,9.415433619614815,-14.738292234199617
5.85453344761474,2.7635587488171143,1.2614766043621088,-3.766628109877841,10.181740761110065,-15.705716861954148
5.882169035102911,2.8653761564282147,1.2238103232633304,-3.9236852784973824,11.057793928495592,-16.81717333170549
5.910822796667193,2.9759540957131705,1.1845734704783566,-4.0918570118144375,12.061687171233539,-18.10074305999307
5.940582337624325,3.0965709674255057,1.1436549003602121,-4.2728644424143685,13.215359278827362,-19.589889935826985
5.9715480472985805,3.2287245602137795,1.1009262559360684,-4.468763341772639,14.545105421862653,-21.324296649983516
6.003835292900718,3.374175614432406,1.056238622518342,-4.682006308272474,16.081808400783586,-23.350371526663995
6.037577049045042,3.5349936984402417,1.0094185594356173,-4.915510023539114,17.860403127260216,-25.720773435135857
6.072926986029445,3.713597729712844,0.9602634592002262,-5.172717757890473,19.917538935613546,-28.491549706805117
6.110062963326573,3.9127731190689796,0.9085362816213214,-5.457633254958524,22.285286688964305,-31.713939900480153
6.149190694517263,4.135625985958622,0.8539599490717361,-5.774772653963326,24.976507574655987,-35.41480445192732
6.190546954376849,4.385391061705183,0.7962122225321029,-6.128920698482599,27.95323228536649,-39.55368613019029
6.2344008649939004,4.664923384558848,0.7349230155472769,-6.524457559784501,31.061976317474684,-43.934105349210306
6.281050098839489,4.975543147733594,0.6696784399494319,-6.963798613276604,33.910016818925236,-48.03267810838374
6.330805530316825,5.314643315922846,0.6000404538166658,-7.444125394360442,35.65561516554632,-50.70767861786902
6.383951963476053,5.67119946757831,0.5255991998730614,-7.951202180539132,34.7420461904979,-49.82707764283739
6.440663958151837,6.018619929483289,0.44608717806767006,-8.449472956967506,28.846125768376428,-42.19113819793852
6.50085015744667,6.307081187167053,0.361592448497995,-8.871384338946891,15.808047172390141,-24.8170740995486
6.563920969318341,6.465161658890954,0.2728786051085261,-9.119555079942376,-3.7709636596378555,1.4581101240900516
6.62857258590725,6.427452022294576,0.1816830543091023,-9.104973978701477,-24.39425830867067,29.030206421365634
6.692847106130196,6.183509439207869,0.09063331452208755,-8.81467191448782,-38.895175219171264,48.03799016128049
6.754682200522274,5.794557687016156,0.002486595377209355,-8.334292012875014,-44.685745892863096,55.01291671011876
6.812627777392436,5.347700228087525,-0.0808563247515408,-7.784162845773826,-44.190668629326304,53.39456519678818
6.866104779673311,4.905793541794262,-0.15869795320927904,-7.250217193805945,-40.806506603239335,47.895182571664066
6.915162715091253,4.4977284757618685,-0.2312001251473385,-6.7712653680893045,-36.68724338593936,41.46597965548392
6.960139999848872,4.130856041902475,-0.29891277882823153,-6.356605571534465,-32.7895704762484,35.39500970595929
7.001448560267897,3.8029603371399907,-0.3624788345435762,-6.002655474474873,-29.424840468905156,30.084888285109766
7.039478163639297,3.508711932450939,-0.42250538928832493,-5.701806591623775,-26.631660573476537,25.569939433854746
7.074565282963806,3.242395326716174,-0.4795234552045627,-5.446107197285228,-24.353206945646466,21.759572862278795
7.106989236230968,2.998863257259709,-0.533984527177415,-5.22851146866244,-22.509657297621544,18.536366998285306
7.136977868803565,2.7737666842834936,-0.5862696418640394,-5.043147798679587,-21.024439169931277,15.790838158113468
7.1647155356464,2.5635222925841807,-0.6367011198508352,-4.885239417098452,-19.831927702833692,13.431107055947846
7.190350758572242,2.365203015555844,-0.6855535140218197,-4.750928346538974,-18.878237651598333,11.383408788357938
7.2140027887278,2.1764206390398604,-0.7330627974872095,-4.637094258655394,-18.119758426876437,9.58973467196726
7.235766995118198,1.995223054771096,-0.7794337400737634,-4.541196911935722,-17.52120025238454,8.004952510102358
7.255719225665909,1.8200110522472506,-0.8248457091931206,-4.461147386834698,-17.053769527847592,6.594194879045392
7.273919336188381,1.6494733569687747,-0.8694571830614676,-4.395205438044244,-16.693646759199876,5.330711633282917
7.290414069758069,1.4825368893767759,-0.91340923744191,-4.341898321711415,-16.420778510572887,4.194171829053231
7.305239438651837,1.318329104271047,-0.9568282206590242,-4.299956603420883,-16.217944112286645,3.169337521453674
7.318422729694547,1.1561496631481805,-0.999827786693233,-4.268263228206346,-16.07004902470644,2.2450239312313203
7.3299842263260295,0.9954491729011161,-1.0425104189752965,-4.245812988894033,-15.963602097325523,1.4132706019975938
7.33993871805504,0.8358131519278609,-1.0849685488642369,-4.231680282874057,-15.88634265073406,0.6686625391764157
7.348296849574319,0.6769497254205203,-1.1272853516929775,-4.224993657482293,-15.826991338476747,0.007754222008771698
7.355066346828524,0.5186798120357529,-1.1695352882678005,-4.2249161152622055,-15.77510481635329,-0.5714383786299173
7.3602531449488815,0.36092876387221995,-1.2117844494204226,-4.230630499048504,-15.72101810624001,-1.0699020027680255
7.363862432587604,0.20371858280981986,-1.2540907544109077,-4.241329519076185,-15.65586033989901,-1.488061337832959
7.365899618415702,0.04715997941082975,-1.2965040496016695,-4.256210132454514,-15.57162963236273,-1.8261916141161147
7.366371218209811,-0.10855631691279757,-1.3390661509262147,-4.274472048595675,-15.461311610180754,-2.0848072326193
7.365285655040683,-0.26316943301460516,-1.3818108714121715,-4.295320120921868,-15.319024167053447,-2.2650184565013656
7.362653960710537,-0.4163596746851396,-1.4247640726213902,-4.317970305486882,-15.140169004192515,-2.368842969787183
7.358490363963686,-0.5677613647270647,-1.467943775676259,-4.341658735184754,-14.921569166398205,-2.3994558466012936
7.352812750316415,-0.7169770563910468,-1.5113603630281065,-4.365653293650767,-14.661571818196318,-2.3613607420289613
7.345642979752505,-0.86359277457301,-1.5550168959646142,-4.389266901071056,-14.360097483055462,-2.2604673060728744
7.337007052006775,-1.0071937494035645,-1.5989095649753249,-4.411871574131784,-14.018621172705755,-2.1040649846298236
7.3269351145127395,-1.1473799611306221,-1.6430282807166428,-4.432912223978082,-13.64007714043641,-1.9006910790550182
7.315461314901433,-1.2837807325349861,-1.6873574029564236,-4.451919134768633,-13.22868682816504,-1.6599002509109473
7.302623507576083,-1.4160676008166366,-1.73187659430411,-4.4685181372777425,-12.789717970428867,-1.3919522294679436
7.288462831567917,-1.5439647805209253,-1.7765617756768872,-4.482437659572422,-12.329190563443754,-1.107442768985192
7.2730231837627075,-1.6672566861553628,-1.8213861522726114,-4.493512087262274,-11.853551309187191,-0.8169084994270993
7.256350616901154,-1.7857921992472348,-1.866321273145234,-4.501681172256545,-11.369341284694576,-0.5304382472721493
7.238492694908682,-1.8994856120941805,-1.9113380848677997,-4.506985554729266,-10.882881533649899,-0.25732136602916367
7.21949783878774,-2.0083144274306797,-1.9564079404150923,-4.509558768389558,-10.399998177845106,-0.005758030479034881
7.199414694513433,-2.1123144092091306,-2.0015035280989877,-4.509616348694348,-9.925803173628383,0.21735165215110264
7.178291550421342,-2.2115724409454143,-2.0465996915859312,-4.5074428321728375,-9.464540016767284,0.40653208881008457
7.1561758260118875,-2.306217841113087,-2.0916741199076596,-4.503377511284737,-9.019496659688986,0.5577715093931193
7.133113647600757,-2.396412807709977,-2.136707895020507,-4.497799796190805,-8.592981650519665,0.6684848968593372
7.109149519523657,-2.4823426242151734,-2.181685892982415,-4.491114947222212,-8.186354737553327,0.7374145358400789
7.084326093281506,-2.5642061715907065,-2.226597042454637,-4.483740801863812,-7.800100237850005,0.7644849459044498
7.0586840315655985,-2.6422071739692066,-2.2714344504732753,-4.476095952404767,-7.43393032654031,0.7506294436440584
7.032261959825907,-2.7165464772346097,-2.3161954099973228,-4.468589657968327,-7.086905783926451,0.697604238438976
7.005096495053561,-2.7874155350738743,-2.360881306577006,-4.4616136155839365,-6.7575632149220874,0.6078034222356911
6.977222339702822,-2.854991167223095,-2.4054974427328455,-4.45553558136158,-6.444039869498756,0.48408507517679605
6.948672428030591,-2.9194315659180825,-2.4500527985464613,-4.450694730609811,-6.144189532061304,0.3296154903821652
6.91947811237141,-2.9808734612386956,-2.4945597458525595,-4.447398575705989,-5.855685196834838,0.14773559108680537
6.889669377759023,-3.039430313207044,-2.5390337316096194,-4.445921219795121,-5.576106201363626,-0.05814881203186773
6.859275074626952,-3.0951913752206806,-2.5834929438075704,-4.44650270791544,-5.303009049424618,-0.2846531112942274
6.828323160874745,-3.1482214657149266,-2.6279579708867247,-4.449349239028382,-5.03398229684766,-0.5284777867894753
6.796840946217595,-3.198561288683403,-2.6724514632770084,-4.454634016896277,-4.7666866322034736,-0.7864522868724976
6.764855333330761,-3.2462281550054377,-2.716997803445971,-4.462498539765002,-4.498881722844381,-1.055561459958532
6.732393051780707,-3.2912169722338813,-2.761622788843621,-4.473054154364587,-4.228441590758711,-1.33295715632767
6.699480882058368,-3.3335013881414683,-2.806353330387267,-4.486383725927864,-3.953360306240573,-1.6159574920614554
6.666145868176954,-3.373034991203874,-2.8512171676465456,-4.502543300848478,-3.6717497058336823,-1.9020360362128765
6.6324155182649145,-3.4097524882622112,-2.8962426006550306,-4.521563661210607,-3.3818307076502623,-2.188802913640505
6.598317993382293,-3.443570795338714,-2.9414582372671365,-4.543451690347012,-3.081919652685978,-2.4739795586724442
6.563882285428906,-3.4743899918655736,-2.9868927541706065,-4.5681914859337365,-2.770410974388742,-2.7553686427298905
6.52913838551025,-3.502094101609461,-3.0325746690299438,-4.595745172361036,-2.4457574100952617,-3.0308205539260205
6.494117444494155,-3.5265516757104134,-3.0785321207535543,-4.626053377900296,-2.1064489289017665,-3.298197740951564
6.458851927737051,-3.547616164999431,-3.1247926545325573,-4.659035355309811,-1.7509915668213418,-3.5553382529179403
6.423375766087057,-3.5651260806676444,-3.1713830080856553,-4.69458873783899,-1.377887432365115,-3.800019911635215
6.387724505280381,-3.5789049549912955,-3.218328895464045,-4.732588936955342,-0.9856172699989605,-4.029926738850831
6.351935455730468,-3.588761127691285,-3.2656547848335986,-4.77288820434385,-0.5726271364504659,-4.242619519265
6.316047844453555,-3.5944873990557897,-3.313383666877037,-4.815314399536501,-0.13732094106390177,-4.435512695777672
6.280102970462997,-3.595860608466429,-3.361536810872402,-4.859669526494278,0.32193919524258235,-4.605860143768026
6.244144364378333,-3.592641216514003,-3.410133506137345,-4.905728127931958,0.8068226277059027,-4.750752723378705
6.208217952213193,-3.584572990236944,-3.4591907874166647,-4.953235655165745,1.3190076713060774,-4.867130816884176
6.172372222310823,-3.5713829135238835,-3.5087231439683224,-5.001906963334587,1.8601446299225755,-4.951815260850103
6.136658393175584,-3.5527814672246576,-3.5587422136016684,-5.051425115943088,2.431802302381326,-5.001560101577258
6.101130578503338,-3.5284634442008445,-3.609256464761099,-5.1014407169588605,3.0353963334605156,-5.013130342852275
6.06584594406133,-3.498109480866239,-3.660270871930688,-5.151572020387383,3.6720985478956014,-4.983407211554391
6.0308648492526675,-3.461388495387283,-3.7117865921345614,-5.201406092502927,4.3427275804800125,-4.90952233240421
5.9962509642987945,-3.417961219582483,-3.7638006530595907,-5.250501315826969,5.047622745273227,-4.789020487621722
5.96207135210297,-3.3674849921297505,-3.8163056662178603,-5.298391520703186,5.786505177866972,-4.620048291483387
5.9283965021816725,-3.3096199403510806,-3.869289581424892,-5.34459200361802,6.558332773531399,-4.401563158099537
5.895300302778161,-3.2440366126157665,-3.922735501461072,-5.3886076351990155,7.361158172582024,-4.133553515830264
5.862859936652003,-3.1704250308899464,-3.976621577813062,-5.429943170357318,8.192001739545177,-3.817257595201155
5.831155686343104,-3.0885050134944945,-4.030921009516635,-5.46811574630933,9.046753753443012,-3.4553647148950337
5.800270636208159,-2.9980374759600643,-4.0856021669797284,-5.50266939345828,9.920121386041902,-3.052180379618761
5.770290261448559,-2.8988362620996453,-4.140628860914311,-5.533191197254467,10.805635968827723,-2.613735339141987
5.741301898827563,-2.790779902411368,-4.195960772886855,-5.559328550645887,11.695734071082049,-2.147819681160072
5.713394099803449,-2.6738225617005473,-4.251554058393314,-5.580806747457488,12.581921745754356,-1.6639265285376503
5.686655874186443,-2.548003344243004,-4.307362125867889,-5.597446012742864,13.455024973365695,-1.1730961557590638
5.661175840744013,-2.413453094509347,-4.3633365859953175,-5.609176974300455,14.30552128438969,-0.6876600482369807
5.63704130979892,-2.27039788166545,-4.419428355738322,-5.616053574782825,15.123938643532396,-0.22089479773718404
5.6143373309822655,-2.119158495230126,-4.475588891486151,-5.6182625227601966,15.90129917255939,0.21339352211704404
5.593145746029964,-1.960145503504532,-4.531771516713753,-5.616128587539026,16.629578579659007,0.6013242997298559
5.573544290994919,-1.793849717707942,-4.587932802589143,-5.610115344541727,17.302148553622665,0.9293996618252487
5.55560579381784,-1.6208282321717153,-4.64403395603456,-5.600821347923475,17.914169764044722,1.1849243093987882
5.539397511496123,-1.4416865345312682,-4.700042169513795,-5.5889721048294865,18.462907732390963,1.356349935660003
5.52498064615081,-1.2570574572073585,-4.755931890562089,-5.575408605472886,18.947952206377135,1.4335123826928666
5.512410071578737,-1.0675779351435872,-4.811685976616818,-5.561073481645958,19.371331620401346,1.4077391248547226
5.501734292227301,-0.8738646189395738,-4.867296711433278,-5.546996090397411,19.737526177598188,1.2718157649174942
5.4929956460379055,-0.6764893571635919,-4.922766672337252,-5.534277932748236,20.05339438854787,1.019811120829304
5.48623075246627,-0.47595541327811325,-4.978109451664734,-5.524079821539943,20.3280371605643,0.646769429733884
5.481471198333488,-0.27267504167247025,-5.033350249880133,-5.517612127242605,20.572629884580206,0.14828391055903767
5.478744447916764,-0.06694874282666818,-5.088526371152559,-5.516129288137014,20.800256175015182,-0.48003226441237046
5.478074960488497,0.14105381892348365,-5.143687664033929,-5.520929610781137,21.025777313131474,-1.2431636655255522
5.4794854986777315,0.3513115920547984,-5.198896960141741,-5.533361247436393,21.265769739684778,-2.147390588850784
5.482998614598279,0.5639692894516461,-5.2542305726161045,-5.554835153324901,21.538559954274277,-3.2010669534539504
5.488638307492796,0.7793548889943889,-5.309778924149353,-5.58684582285944,21.86438247720331,-4.415486858126863
5.496431856382739,0.997998713766422,-5.365647382377947,-5.631000691440709,22.265681984759716,-5.805856793900604
5.506411843520404,1.2206555336140192,-5.421957389292354,-5.689059259379715,22.767573796502905,-7.392394556117864
5.518618398856544,1.4483312715790482,-5.478847981886151,-5.762983204940894,23.398463280935353,-9.201569303012715
5.533101711572335,1.6823159043884017,-5.53647781393556,-5.854998897971021,24.19079467789528,-11.267466620705566
5.549924870616219,1.9242238511673546,-5.59502780291527,-5.967673564178077,25.181832270823424,-13.633179528238731
5.569167109127893,2.176042173875589,-5.654704538557051,-6.104005359460465,26.414227171956288,-16.35193053078971
5.590927530866648,2.440184445595152,-5.715744592151656,-6.267524664768362,27.9357969627363,-19.487191848422505
