th1 (rad),w1 (rad/s),th2 (rad),w2 (rad/s)
3.6651197152702255,2.8668670642205303,2.33208945989056,1.7522334737374385
3.693788385912431,2.9008316576889435,2.3496117946279345,1.753164156725095
3.7227967024893203,2.936795429848701,2.3671434361951853,1.7573292149075859
3.7521646567878073,2.9747005650738254,2.384716728344261,1.7649626593388532
3.7819116624385454,3.014488106638864,2.4023663549376493,1.7763007200113663
3.812056543504934,3.056097399577846,2.420129362137763,1.7915816666592874
3.8426175175007127,3.0994654042389853,2.438045178804356,1.811045534891623
3.8736121715431024,3.1445258669884466,2.4561556341532724,1.8349337426073713
3.905057430212987,3.191208334161607,2.4745049715793463,1.8634885792684537
3.936969513554603,3.2394369952116002,2.493139857372031,1.896952548222738
3.969363883506719,3.289129341136649,2.512109382854258,1.9355675399793504
4.002255176918085,3.340194624771642,2.5314650582540517,1.9795738122692381
4.035657123165802,3.3925321105178283,2.551260796376744,2.0292087510337997
4.06958244427098,3.4460291026918615,2.5715528838870823,2.084705385365991
4.104042735297898,3.5005587440594916,2.5923999377407423,2.146290629112065
4.139048322738493,3.5559775794608104,2.6138628440318628,2.2141832225985523
4.174608098533101,3.6121228839345307,2.636004676257848,2.2885913500897668
4.210729327372446,3.6688097606255257,2.658890589758746,2.369709912456983
4.247417424978702,3.7258280212371995,2.6825876888833156,2.457717440536884
4.2846757051910735,3.7829388710870804,2.707164863288684,2.552772643184467
4.3225050939019445,3.839871432135654,2.732692589720529,2.6550105955047916
4.360903808223301,3.8963191508324386,2.7592426956755767,2.7645385875873485
4.399866999731626,3.9519361533284356,2.7868880815514503,2.881431672633212
4.43938636126491,4.006333628491934,2.8157023982777822,3.0057279759450237
4.479449697549829,4.059076339023733,2.8457596780372323,3.1374238530019802
4.520040460940066,4.109679382370734,2.877133916567252,3.2764690157410925
4.561137254763774,4.157605345381704,2.909898606724663,3.422761780939005
4.6027133082175915,4.2022620186980335,2.944126224534053,3.5761446326457214
4.644735928404572,4.243000857291085,2.97988767086051,3.736400330984921
4.6871659369774825,4.2791163904617715,3.017251674170359,3.903248840872187
4.729957100882101,4.3098467956354884,3.056284162579081,4.076345394367749
4.773055568838456,4.334375852548406,3.0970476165227585,4.255280036983563
4.81639932736394,4.351836484602074,3.139600416892594,4.439579038271494
4.859917692209961,4.361316068578858,3.183996207275309,4.628708566912621
4.9035308528957495,4.361863648717231,3.2302832929444354,4.822081036451666
4.947149489382922,4.352499122653699,3.278504103308952,5.0190645158437075
4.990674480609459,4.332224371867145,3.328694748467389,5.218995565510242
5.033996724328131,4.300036186147907,3.3808847041224914,5.421195801981268
5.07699708618961,4.254940680350325,3.4350966621423042,5.62499241149717
5.119546492993113,4.19596872513867,3.491346586257276,5.829742726902544
5.1615061802444995,4.122191718022091,3.5496440135263017,6.034862858224983
5.20272809742472,4.032736817257236,3.6099926421085513,6.239860235542612
5.243055465597292,3.9268005640888566,3.6723912444639772,6.444369798267365
5.282323471238181,3.8036596472308304,3.736834942446651,6.648193467794108
5.320360067710489,3.662677439552957,3.803316877124592,6.851342493800914
5.356986842106019,3.503304884817376,3.8718303020626013,7.054082291217737
5.3920198909541925,3.325074357940255,3.9423711249747786,7.256979501169933
5.425270634533595,3.1275852956229593,4.014940919986478,7.460951213740948
5.456546487489825,2.9104807378008,4.089550432123888,7.667316546307086
5.485651294867833,2.673414510256521,4.166223597586959,7.8778509741103475
5.512385439970398,2.416009769941576,4.245002107328062,8.094843728134265
5.536545537669814,2.1378113530431837,4.325950544609405,8.321157733720185
5.5579236512002455,1.838237490913322,4.409162121946607,8.560289007470034
5.576306026109378,1.5165423807824643,4.494765012021308,8.816416252378366
5.591471449917203,1.171812611415529,4.582929174545091,9.09441778270128
5.603189576031359,0.8030430529045416,4.673873352372104,9.399804327358865
5.611220006560404,0.40938200142293546,4.767871395645693,9.738458157533772
5.615313826574633,-0.009280337418165863,4.865255977221031,10.115955112865787
5.615221023200451,-0.4510543478669808,4.966415528349689,10.536036585697316
5.6107104797217815,-0.9095628694473555,5.071775894206662,10.997463323939199
5.601614851027308,-1.3694332055180927,5.181750527446054,11.488134727110799
5.587920518972127,-1.7992994972030143,5.296631874717162,11.975711274072456
5.5699275240000965,-2.144367909456674,5.4163889874578866,12.397285882076961
5.54848384490553,-2.3276616228572813,5.540361846278656,12.660157224247074
5.5252072286769565,-2.2760132527627213,5.666963418521127,12.675234888742837
5.5024470961493295,-1.969236124779118,5.793715767408555,12.420855878797187
5.482754734901539,-1.4634338423901552,5.917924326196527,11.971297236700497
5.468120396477637,-0.851013904352761,6.037637298563532,11.44193225714329
5.459610257434109,-0.20658063609585087,6.152056621134965,10.919132737840949
5.457544451073151,0.4294765979759365,6.2612479485133745,10.44210943250735
5.46183921705291,1.0410038009629865,6.365669042838448,10.018503680028664
5.47224925506254,1.6236678832597904,6.465854079638735,9.641475719074846
5.488485933895138,2.177551127894609,6.5622688368294835,9.29934254117468
5.510261445174084,2.7037491870702994,6.65526226224123,8.979773203815872
5.537298937044787,3.2030575028269865,6.745059994279389,8.671332904020643
5.5693295120730575,3.6755971271112937,6.831773323319595,8.363947419728966
5.60608548334417,4.120837005686691,6.915412797516884,8.048988440067395
5.647293853401037,4.537776445906914,6.995902681917558,7.719255949784229
5.692671617860106,4.925186073251386,7.0730952414154,7.368951121372547
5.74192347859262,5.281860690069334,7.1467847526291255,6.993658830035458
5.794742085493313,5.606859010711971,7.21672134092948,6.5903305826531335
5.8508106756004326,5.8997137816770095,7.282624646756012,6.157250035425667
5.909807813417203,6.160600127815179,7.344197147110268,5.693963601563018
5.971413814695355,6.390453698514337,7.4011367831258985,5.201163359438164
6.035318351680498,6.591034525250777,7.45314841672028,4.680516317564352
6.101228696933006,6.764937495345998,7.499953579895924,4.134441632454527
6.168878071886466,6.915555491343815,7.541297996220469,3.5658444594650573
6.238033626799904,7.047005802405592,7.5769564408151195,2.977820809616697
6.30850368482396,7.164033597725831,7.606734648911287,2.3733514818365826
6.380144020801218,7.271907316830319,7.6304681637296525,1.7550047892620362
6.452863093969522,7.376319034429052,7.648018211622273,1.1246682150603042
6.526626284313812,7.483297202814032,7.6592648937728764,0.4833304436098902
6.601459256341952,7.599127771123201,7.6640981982089755,-0.1690583848638043
6.677450534053184,7.7302584075827365,7.662407614360338,-0.8336010818575985
6.7547531181290115,7.883120573501319,7.6540716035417615,-1.5122489139916269
6.833584323864025,8.063727922811527,7.6389491144018455,-2.207184996584113
6.91422160309214,8.276766325348316,7.616877264436004,-2.9194064723943587
6.996989266345623,8.52364369989289,7.58768319971206,-3.6457741667738293
7.082225703344552,8.798639721110494,7.551225458044322,-4.37334801345711
7.1702121005556565,9.08225134835514,7.507491977909751,-5.0697944552103325
7.2610346140392075,9.332532103069395,7.456794033357648,-5.67111802464093
7.354359935069901,9.481724325141949,7.400082853111239,-6.077243703727978
7.449177178321321,9.455651943998204,7.339310416073959,-6.180367522790985
7.543733697761303,9.22374705572936,7.277506740846049,-5.937131745605277
7.635971168318597,8.834620008424427,7.218135423389996,-5.420042489256783
7.724317368402841,8.381293568840004,7.163934998497428,-4.76784787681191
7.80813030409124,7.938862181304202,7.116256519729309,-4.095299675256298
7.887518925904282,7.543288793140478,7.075303522976746,-3.4611166232055535
7.962951813835687,7.203398191951978,7.040692356744691,-2.884072818350457
8.034985795755206,6.915816761549026,7.011851628561186,-2.3641661023024976
8.104143963370698,6.6733740558534675,6.988209967538161,-1.8948505135765468
8.170877703929232,6.468606250472241,6.969261462402396,-1.468339460252027
8.235563766433955,6.294916693922967,6.954578067799876,-1.0775106026269583
8.298512933373186,6.146806657114639,6.943802961773606,-0.7164136963521063
8.359980999944332,6.0197881750105555,6.936638824810085,-0.38026762403859804
8.420178881694438,5.9102157823790185,6.9328361485697,-0.06530046806662976
8.479281039518229,5.8151202292185085,6.932183143889033,0.2314362036376405
8.537432241810414,5.7320683371307295,6.9344975059254095,0.5122354462855565
8.594752925181721,5.659051996572609,6.939619860388265,0.7788750363506192
8.651343445147447,5.594402605334384,6.947408610751771,1.0327305985284814
8.707287471200791,5.536725846431227,6.957735916737056,1.2748660257335054
8.762654729665103,5.484852076607253,6.970484576994391,1.506105716766774
8.817503250431175,5.437798433232598,6.985545634162059,1.7270924894668844
8.871881234763501,5.394739611113236,7.002816559056728,1.938334193729731
8.925828630874634,5.354984978422241,7.022199900994026,2.140241307446559
8.979378480658855,5.3179602749793045,7.043602314068491,2.333157214911926
9.032558083408649,5.283192584712153,7.06693388621761,2.517382437246057
9.08539000925577,5.250297622217538,7.092107710590071,2.6931937815444655
9.137892985477945,5.218968642887669,7.119039648405515,2.8608591697777492
9.190082671906822,5.1889664941033065,7.147648240103292,3.020648772618374
9.241972336847855,5.160110484097585,7.177854727829476,3.172842984738301
9.293573441688832,5.132269864586288,7.2095831576768585,3.3177377190006347
9.344896140334695,5.1053558103274375,7.242760534866865,3.4556474542557063
9.39594969843797,5.079313839305195,7.277317009409423,3.58690643608373
9.446742836831023,5.054116656345117,7.31318607377026,3.711868396127988
9.497284003394475,5.029757425262137,7.35030475773154,3.8309051206541507
9.547581577647096,5.006243484290819,7.388613808938081,3.944404161671529
9.597644012490004,4.983590520269629,7.428057850554796,4.0527659447262385
9.647479917692701,4.961817212057974,7.468585510002058,4.156400487467237
9.69709808981328,4.9409403456073555,7.510149514876731,4.2557239037561505
9.746507493269354,4.92097039405694,7.5527067539142925,4.3511548308880545
9.795717197209923,4.901907547689874,7.596218302223173,4.443110883632183
9.844736272686822,4.883738171574907,7.640649411059495,4.532005209172044
9.893573654402571,4.86643166380664,7.685969463151215,4.618243192144179
9.942237971040637,4.8499376846897935,7.732151895072657,4.7022193390323
9.990737347887535,4.834183726985259,7.77917408846298,4.784314356087238
10.039079185157387,4.819072999282196,7.827017232023852,4.864892424437139
10.087269915150209,4.804482598417739,7.875666156268224,4.944298669729538
10.135314741134387,4.7902619523238945,7.925109142965519,5.022856821051866
10.183217360657626,4.776231521415099,7.975337711176038,5.100867054542869
10.230979675871776,4.762181754316861,8.026346381721467,5.178604020586596
10.278601493414945,4.747872302058656,8.078132421927332,5.256315059358097
10.326080216435532,4.7330315034935655,8.130695572520914,5.334218617384307
10.373410531470467,4.717356163328209,8.184037758694757,5.412502887334805
10.42058409310375,4.7005116523789425,8.238162787568104,5.491324704107391
10.46758920962754,4.682132367088199,8.293076034609179,5.570808742041692
10.514410533298422,4.661822591436819,8.348784122029596,5.651047070347506
10.56102875921279,4.639157808582295,8.405294592733071,5.732099136062292
10.607420337298613,4.613686511149475,8.462615584093694,5.813992255441627
10.653557202410108,4.584932557317203,8.52075550664811,5.896722704910784
10.69940652798328,4.552398113828309,8.579722733697217,5.9802575107253855
10.744930509121563,4.515567215919743,8.63952530880447,6.064537041375025
10.79008618128076,4.473909957081993,8.700170679218221,6.149478507547716
10.83482528085158,4.426887297802901,8.761665464293698,6.234980470232002
10.879094153829609,4.373956451573698,8.824015268996018,6.320928447511617
10.922833718345347,4.314576768367561,8.887224553471134,6.407201694373867
10.965979486029022,4.248215991010116,8.951296570414872,6.493681207490311
11.008461645939123,4.1743567094759175,9.016233382489775,6.580258979237718
11.050205213033882,4.092502784042763,9.082035972282151,6.666848493923156
11.09113024087431,4.002185453054681,9.148704457221383,6.753396427043199
11.131152095404858,3.90296878808852,9.216238421491814,6.8398954793738085
11.170181783285743,3.7944541123325046,9.284637376285552,6.9263982567909474
11.208126324409069,3.676282960791512,9.353901358853461,7.013032099918037
11.244889154016983,3.548138136962096,9.424031679852641,7.1000147815053625
11.280370535386604,3.409742412384117,9.495031827667695,7.187671030435119
11.314467959510445,3.2608544241228348,9.566908537972047,7.276449915352313
11.347076503751673,3.101261350344935,9.63967303712557,7.36694323262534
11.378089117255122,2.9307679840437433,9.713342469451824,7.459905194602096
11.40739679709556,2.749181877905797,9.787941521397846,7.556273902859803
11.434888615874618,2.5562943002125773,9.863504260426444,7.6571953085934625
11.460451558876743,2.351856831413129,9.940076213512379,7.7640505879685655
11.483970127190874,2.1355535703328137,10.017716719392064,7.878488051698675
11.505325662894203,1.9069691710444963,10.09650159990905,8.002460779734239
11.524395354604648,1.6655534308690851,10.176526207706393,8.138270952067465
11.54105088891334,1.4105841705985984,10.257908917227068,8.288620990137114
11.555156730619325,1.141132234778838,10.34079512712844,8.456669435587674
11.566568052967114,0.8560366672991451,10.425361821484316,8.646084577729884
11.575128419640105,0.5539065922522115,10.511822667261615,8.861078402707909
11.580667485562627,0.23318314084588582,10.600433451288694,9.106381943043688
11.582999316971085,-0.10767234158457623,10.69149727071913,9.387079876372145
11.58192259355524,-0.46973474275023763,10.785368069482852,9.708137772492048
11.577225246127737,-0.8526729972349405,10.882449447207772,10.073298681188492
11.568698516155388,-1.2528804726093932,10.983182434019657,10.482765248624892
11.556169711429295,-1.6600306053408693,11.088010086505905,10.92876231465038
11.539569405375886,-2.0514623659062456,11.197297709652409,11.388092699963675
11.519054781716823,-2.385183454431496,11.311178636652045,11.812593900563094
11.495202947172508,-2.5970305083640084,11.429304575657676,12.12478116484914
11.469232642088869,-2.614883650955726,11.550552387306167,12.23596253031273
11.443083805579311,-2.3977583269544946,11.672912012609295,12.097291892943531
11.419106222309766,-1.971402926363359,11.79388493153873,11.745415815689721
11.399392193046133,-1.4129578187370757,11.911339089695629,11.279902138509534
11.385262614858762,-0.8000321733551796,12.024138111080724,10.795478142816306
11.377262293125211,-0.18131989718050334,12.132092892508886,10.3455527419844
11.375449094153407,0.42119104483150027,12.23554841992873,9.947699986480748
11.379661004601722,1.0005386987089255,12.335025419793537,9.60024337269224
11.389666391588811,1.5561315865874303,12.43102785352046,9.29378944557905
11.405227707454685,2.089302381661062,12.52396574797625,9.016836804431726
11.426120731271295,2.601401558315559,12.614134116020567,8.758030090516563
11.452134746854451,3.09311313223487,12.701714416925732,8.506919746844735
11.4830658781768,3.5643088878076767,12.78678361439418,8.254150031169507
11.518708967054877,4.014132872204456,12.869325114705875,7.991470056144685
11.558850295776923,4.441184638893671,12.949239815267322,7.711719576291552
11.603262142165859,4.843745028735408,13.026357011030237,7.408836930054688
11.651699592453213,5.2200178690506025,13.100445380330784,7.077892894019984
11.70389977114372,5.5683712479269465,13.171224309270984,6.71513639418809
11.759583483622988,5.887564901980232,13.238375673212865,6.318031660363918
11.81845913264279,6.176951118277315,13.301555989816503,5.885265803936364
11.880228643825562,6.436637798790469,13.360408647855866,5.41670867163495
11.944595021813468,6.66760491451798,13.414575734572216,4.9133120909021315
12.011271070958648,6.871769628612149,13.463708855481237,4.376942467209722
12.07998876724477,7.052000544752504,13.507478280153334,3.810148264500345
12.150508772692294,7.21208717528164,13.545579762798338,3.2158712446174604
12.22262964444511,7.356675960287541,13.577738475244512,2.5971165242426504
12.296196404047986,7.491188012141262,13.603709640486938,1.9566008712749732
12.371108284169399,7.621735084659816,13.623275649199687,1.296401268212982
12.447325635015996,7.755047615375414,13.636239661881817,0.6176280918358189
12.52487611116975,7.898419616769064,13.642415942800175,-0.07984664909866268
12.60386030733744,8.059654608233146,13.64161747630919,-0.7975568318094053
12.684456853419771,8.246953291893185,13.633641907991095,-1.5384064975530418
12.766926386338703,8.468592197937589,13.618257843015565,-2.3062134233990985
12.85161230831808,8.73205161540358,13.595195708781574,-3.1043537567866024
12.938932824472115,9.041871781778164,13.564152171213708,-3.9325024550612087
13.029351542289897,9.394868678104771,13.524827146663096,-4.779565394858505
13.123300229070944,9.77071655077483,13.477031492714511,-5.6100579234874735
13.221007394578692,10.11738037454736,13.420930913479637,-6.343367544430519
13.322181198324165,10.34082237371498,13.357497238035332,-6.839562592738741
13.425589422061314,10.330302325006253,13.289101612107945,-6.936497903688039
13.528892445311376,10.042100206391622,13.219736633071065,-6.57059537601322
13.629313447375292,9.559084590733475,13.154030679310933,-5.863227891922711
13.724904293282627,9.019932875849673,13.095398400391707,-5.020038834242599
13.815103622041123,8.51856630637698,13.045198012049282,-4.185236483299832
13.900289285104893,8.0887379382684,13.003345647216284,-3.4166741427242013
13.981176664487577,7.73179567862523,12.969178905789041,-2.7241482081049657
14.05849462127383,7.438062520790866,12.941937423707992,-2.0999607725791245
14.132875246481738,7.1960756540656785,12.920937815982201,-1.5325827406018826
14.204836003022395,6.9955474315298956,12.905611988576183,-1.011332077636913
14.274791477337693,6.827958396940485,12.895498667799814,-0.5275472152157348
14.343071061307098,6.686412465584502,12.890223195647657,-0.07459396376083771
14.409935185962944,6.56532907052127,12.889477256010048,0.35244372545470487
14.475588476668156,6.4601511478862506,12.893001693264596,0.757109069771448
14.540189988147018,6.367112077447065,12.90057278396231,1.141874945767861
14.603861108921489,6.2830619489087915,12.91199153341999,1.5083910672895913
14.666691728410576,6.20534237815218,12.927075444092885,1.8576825495050662
14.728745152192099,6.131698025316684,12.945652269587937,2.1903099542326814
14.790062132445266,6.060214662711506,12.967555369130263,2.506499566028712
14.850664279072381,5.989275761428653,12.99262036479055,2.8062503474604306
14.910557036686669,5.9175314590689725,13.020682868265155,3.08942197302263
14.969732351277358,5.843875328308152,13.051577087995382,3.3558068450688086
15.028171104560439,5.767425625219428,13.08513515644607,3.605188042312882
15.085845360812634,5.687508713728451,13.121187036869198,3.8373846339551783
15.142720447949918,5.60364317945566,13.15956088320875,4.052285580526909
15.198756879744474,5.515523787241575,13.200083739014019,4.249873414263552
15.25391211761689,5.423004917892112,13.242582473156654,4.430238946443792
15.308142166795811,5.326083456138225,13.286884862621092,4.593588312967664
15.361403001357193,5.224881312013384,13.332820745750768,4.740243697013877
15.413651814477326,5.119627864906096,13.380223182720906,4.870639038864003
15.464848093126387,5.010642649485503,13.428929573109546,4.985311957647115
15.514954519621242,4.89831858161531,13.478782692686018,5.0848929803184815
15.563937705437395,4.783105973458474,13.529631622489202,5.170093017934047
15.611768765171979,4.665497528416114,13.581332552668542,5.241689866712716
