th1 (rad),w1 (rad/s),th2 (rad),w2 (rad/s),a1 (rad/s^2),a2 (rad/s^2)
5.3602524531659395,0.8517481785024235,3.1231218932243183,-1.361010669068125,8.90826350025637,5.895560983017801
5.368769934950964,0.9408308135049872,3.1095117865336372,-1.302055059237947,9.053654931872513,6.121446141260892
5.378178243086014,1.0313673628237123,3.096491235941258,-1.240840597825338,9.201268782484718,6.368132129769491
5.38849191671425,1.1233800506485596,3.0840828299630045,-1.177159276527643,9.350787507021431,6.634954127701701
5.399725717220736,1.216887925718774,3.072311237197728,-1.110809735250626,9.501678340484979,6.920959240909528
5.411894596477924,1.3119047091236238,3.061203139845222,-1.041600142841531,9.65316616416113,7.224860339787922
5.4250136435691605,1.408436370765235,3.0507871384168066,-0.9693515394436517,9.804205813419333,7.544987023800724
5.4390980072768125,1.5064784288994284,3.04109362302237,-0.8939016692056445,9.953454808937682,7.879235011985
5.454162791565807,1.6060129769888052,3.0321546063303138,-0.8151093190857945,10.099247801188916,8.22501577808163
5.4702229213356945,1.7070054550006943,3.024003513139456,-0.7328591613049782,10.239574347702574,8.579208829441306
5.487292975885701,1.80940119847772,3.016674921526406,-0.6470670730105651,10.372061972459381,8.938119642802285
5.505386987870478,1.913121818202314,3.0102042507963005,-0.5576858765825422,10.493966755420885,9.297446873350232
5.524518206052502,2.018061485756523,3.004627392030475,-0.46471140784903986,10.602173926049009,9.652262983869155
5.544698820910067,2.124083225017013,2.9999802779519844,-0.3681887780103483,10.693211037032471,9.997012818073546
5.565939653160237,2.231015335387338,2.996298390171881,-0.26821864982961285,10.763276216886945,10.325534771816667
5.588249806514111,2.3386480975562076,2.993616203673585,-0.16496330211144616,10.80828368658478,10.631108996782515
5.611636287489673,2.4467309344220554,2.9919665706524703,-0.05865221214362101,10.823928129237299,10.906536408901074
5.636103596833894,2.5549702157144285,2.9913800485310342,0.05041315194538973,10.805768597262245,11.144251097534259
5.661653298991038,2.663027901687051,2.991884180050488,0.16185566292073233,10.749331435918359,11.336467015732223
5.688283578007909,2.7705212160462342,2.9935027366796954,0.2752203330780546,10.650230247617028,11.47535761634794
5.715988790168372,2.8770235185224045,2.996254940010476,0.389973909241534,10.504299321353498,11.553264504725483
5.744759025353596,2.9820665117359395,3.0001546791028915,0.5055065542887889,10.307735359377537,11.562928414090482
5.774579690470955,3.085143865329715,3.0052097446457795,0.6211358384296937,10.057240940559229,11.497733159306618
5.805431129124252,3.185716274735307,3.0114211030300764,0.7361131700227599,9.750162173341433,11.351951020620785
5.837288291871605,3.2832178964687215,3.018782234730304,0.8496326802289678,9.384612598990868,11.120976584795823
5.870120470836293,3.3770640224586304,3.0272785615325937,0.960842446076926,8.959575740630713,10.8015357030956
5.9038911110608785,3.4666597798649375,3.036886985993363,1.0688578031078821,8.474979798259628,10.391857075104898
5.938557708859528,3.551409577847534,3.047575564024442,1.1727763738589312,7.9317397968207874,9.891796035284067
5.974071804638003,3.6307269758157417,3.0593033277630313,1.271694334211772,7.331764823463987,9.302903227809495
6.01037907439616,3.7040446240503817,3.072020271105149,1.3647233664898668,6.677930571258057,8.628434664441988
6.047419520636663,3.770823929762962,3.085667504770048,1.4510077131342867,5.9740199215395045,7.873303717528907
6.085127759934293,3.830564128978357,3.1001775819013906,1.5297407503095757,5.224636433755186,7.043979416503224
6.1234334012240765,3.882810493315909,3.115474989404486,1.600180544474608,4.435097118221246,6.148338549058014
6.162261506157235,3.9271614644981216,3.1314767948492324,1.661663929965188,3.6113115937515596,5.19548119579987
6.201533120802217,3.963274580435637,3.148093434148884,1.7136187419231868,2.7596546510840314,4.195520296033326
6.241165866606573,3.9908711269464776,3.165229621568116,1.75557394488352,1.8868384454859197,3.1593556798544773
6.281074577876038,4.009739511401337,3.1827853610169514,1.7871675016820647,0.9997892123695388,2.0984418950541888
6.321171972990052,4.019737403525032,3.200657036033772,1.8081519206326067,0.10553177759224233,1.0245574058581375
6.361369347025302,4.020792721300954,3.218738555240098,1.818397494691188,-0.7889165289376773,-0.05041930455605163
6.401577274238311,4.012903556011578,3.2369225301870097,1.8178933016456276,-1.6766424255207073,-1.1147231918793916
6.441706309798427,3.9961371317563708,3.255101463203466,1.8067460697268336,-2.550924685440057,-2.156903795520854
6.48166768111599,3.9706278849019703,3.273168923900734,1.7851770317716251,-3.4053152431535536,-3.166013333048944
6.52137395996501,3.9365747324704348,3.2910206942184503,1.7535168984411358,-4.233715204601554,-4.131781528992414
6.560739707289715,3.894237580424419,3.3085558632028618,1.7121990831512117,-5.030447262737118,-5.044776889538294
6.599682083093959,3.843933107797048,3.325677854034374,1.6617513142558287,-5.79032534064772,-5.896553575817835
6.63812141417193,3.786029854390571,3.3422953671769324,1.6027857784976502,-6.508721359696999,-6.679782162908378
6.675981712715835,3.720942640793601,3.358323224961909,1.5359879568685664,-7.18162801237436,-7.388361619276521
6.713191139123771,3.6491263606698574,3.3736831045305946,1.4621043406758012,-7.805715469542599,-8.017509031775692
6.74968240273047,3.5710692059744313,3.388304147937353,1.3819292503580443,-8.378379219354713,-8.563823142120869
6.785393094790215,3.487285413780884,3.402123440440933,1.2962910189368355,-8.897775841859934,-9.025317808139185
6.820265948928023,3.398307655362285,3.4150863506303013,1.2060378408554437,-9.362843546964339,-9.401422137952935
6.854249025481646,3.3046792198926416,3.4271467290388555,1.1120236194759143,-9.773304766424783,-9.692945259062208
6.887295817680573,3.2069461722283936,3.438266965233615,1.0150941668852922,-10.129648955392994,-9.90200537754067
6.919365279402857,3.1056496826744637,3.448417906902468,0.9160741131098855,-10.433094931897388,-10.031924777508378
6.950421776229602,3.00131873335549,3.4575786480335666,0.8157548653348017,-10.685533426186018,-10.087094477771252
6.980434963563157,2.8944633990936297,3.4657361966869145,0.7148839205570892,-10.889451865247203,-10.072814154325988
7.009379597554093,2.785568880441158,3.472885035892485,0.6141557790138292,-11.047844621071299,-9.995114429384166
7.037235286358505,2.675090434230445,3.4790265936826237,0.5142046347199876,-11.164112869015582,-9.860569550856317
7.06398619070081,2.563449305540289,3.4841686400298237,0.4155989392114244,-11.241958743353953,-9.676108751803747
7.089620683756213,2.4510297181067493,3.488324629421938,0.3188378516933869,-11.285278603387521,-9.44883418674271
7.11413098093728,2.3381769320728742,3.491513007938872,0.2243495098259598,-11.29805995304836,-9.185852372236429
7.137512750258009,2.2251963325423905,3.493756503037132,0.1324909861035955,-11.284285954100234,-8.894124656487989
7.159764713583432,2.112353473001388,3.495081412898168,0.043549739538715604,-11.247850633957896,-8.580340584964684
7.180888248313447,1.999874966661809,3.495516910293555,-0.042253666310931234,-11.192486923934208,-8.250816300384006
7.2008869979800645,1.887950097422467,3.4950943736304456,-0.1247618293147713,-11.121708679468165,-7.911418479901501
7.219766498954289,1.7767330106277854,3.493846755337298,-0.2038760141137863,-11.038766921214169,-7.567512896777759
7.237533829060567,1.6663453414156437,3.4918079951961603,-0.2795511430815639,-10.946619760689005,-7.223935578642935
7.254197282474723,1.5568791438087537,3.4890124837653445,-0.3517904988679933,-10.84791487479782,-6.884983753762917
7.269766073912811,1.4483999950607755,3.4854945787766645,-0.4206403364056225,-10.744982982415348,-6.554423324384041
7.284250073863419,1.340950165236622,3.481288175412608,-0.4861845696494629,-10.639840544616275,-6.235509446347528
7.297659575515785,1.2345517597904592,3.4764263297161135,-0.5485396641129382,-10.534199834701768,-5.931016872366287
7.3100050931136895,1.1292097614434415,3.470940933074984,-0.6078498328366011,-10.429484573151779,-5.6432769705664745
7.321297190728124,1.0249149157119237,3.464862434746618,-0.6642826025422659,-10.326849461696213,-5.374218698896385
7.331546339885244,0.9216464210949615,3.4582196087211954,-0.7180247895312297,-10.227202147126347,-5.125411245379014
7.340762804096194,0.8193743996236981,3.451039360825883,-0.7692789019850199,-10.131226370941716,-4.8981064896542
7.348956548092431,0.7180621359142809,3.4433465718060328,-0.8182599668815619,-10.039405292915415,-4.6932798698305955
7.356137169451574,0.6176680829851268,3.435163972137217,-0.8651927655798678,-9.952044198728291,-4.5116686282049505
7.362313850281425,0.5181476409978438,3.4265120444814183,-0.9103094518619173,-9.869292003194348,-4.353806747178734
7.367495326691404,0.41945472096590036,3.417408949962799,-0.9538475193337046,-9.79116113529157,-4.220056167494219
7.371689873901063,0.32154310961298466,3.407870474769462,-0.9960480810086468,-9.717545536987474,-4.110634105030549
7.374905304997192,0.2243676542431099,3.3979099939593755,-1.0371544220589524,-9.648236625177812,-4.025636453850002
7.377148981539623,0.12788528799133175,3.387538449738786,-1.0774107865974525,-9.582937157194149,-3.9650573881469193
7.378427834419536,0.03205591641939026,3.3767643418728115,-1.1170613604789217,-9.521273008560664,-3.9288053614076817
7.37874839358373,-0.06315681366621638,3.3655937282680224,-1.1563494140929984,-9.462802920723421,-3.9167157547805336
7.3781168254470675,-0.1577848428734506,3.3540302341270922,-1.1955165716408038,-9.407026310108627,-3.928560455329402
7.376538977018333,-0.25185510597453686,3.342075068410684,-1.234802176194098,-9.353389251642659,-3.964054654748612
7.374020425958587,-0.34538899849096344,3.329727046648743,-1.274442722741584,-9.301288762964502,-4.0228611556346845
7.370566535973678,-0.4384018861206085,3.3169826194213274,-1.3146713342979308,-9.250075522717598,-4.104592460057481
7.366182517112472,-0.5309026413477844,3.303835906078348,-1.3557172588985056,-9.199055159805079,-4.208810897626853
7.360873490698994,-0.6228931929458352,3.2902787334893633,-1.3978053678747742,-9.147488252180839,-4.335027030453723
7.354644558769536,-0.7143680754676436,3.2763006798106153,-1.4411556381793114,-9.094589175090524,-4.482696552668714
7.347500878014859,-0.8053139672185489,3.2618891234288223,-1.4859826037059984,-9.039523940796098,-4.65121588427743
7.339447738342674,-0.8957092066265099,3.2470292973917623,-1.5324947625487728,-8.981407175552212,-4.839916644469163
7.330490646276409,-0.985523278382032,3.2317043497662747,-1.5808939289934645,-8.919298385550672,-5.048059179091499
7.320635413492588,-1.0747162622375388,3.21589541047634,-1.6313745207843795,-8.852197672107849,-5.274825311625748
7.3098882508702125,-1.1632382389586173,3.1995816652684965,-1.684122773900637,-8.779041067765917,-5.519310487203049
7.298255868480626,-1.2510286496362766,3.1827404375294903,-1.7393158787726675,-8.698695679290518,-5.7805154853642335
7.285745581984264,-1.3380156064291817,3.1653472787417636,-1.7971210336263097,-8.609954840715668,-6.057337889606798
7.272365425919972,-1.4241151548363384,3.1473760684055003,-1.8576944125223778,-8.511533499418682,-6.348563520348999
7.258124274371609,-1.5092304898305253,3.1287991242802766,-1.9211800477258678,-8.402064080373021,-6.652858062693751
7.243031969473304,-1.5932511306342556,3.109587323803018,-1.9877086283528054,-8.280093097742832,-6.968759151052682
7.227099458166961,-1.6760520616116839,3.08971023751949,-2.057396219863332,-8.144078808198413,-7.294669208876697
7.210338937550844,-1.757492849693668,3.0691362753208566,-2.1303429119520993,-7.992390225896653,-7.62884938281709
7.192764009053907,-1.8374167519526345,3.0478328462013358,-2.20663140578027,-7.823307843904148,-7.969414955766366
7.174389841534381,-1.915649830391676,3.025766532143533,-2.2863255553379336,-7.635026429585955,-8.31433267129034
7.1552333432304644,-1.9920000946875356,3.0029032765901538,-2.369468882050837,-7.425660280458324,-8.661420451544993
7.135313342283589,-2.066256697492119,2.9792085877696453,-2.456083086566287,-7.193251340136672,-9.008350040084203
7.114650775308668,-2.1381892108934855,2.954647756903982,-2.546166586967129,-6.935780578772663,-9.352653147781963
7.093268883199733,-2.207547016681212,2.929186091034311,-2.639693118444949,-6.6511830357020445,-9.691731721656705
7.071193413032921,-2.274058847038232,2.902789159849861,-2.736610435661516,-6.337366900243115,-10.022872989301161
7.048452824562538,-2.3374325160406633,2.875423055493246,-2.8368391655545278,-5.992236965343066,-10.343269951737504
7.025078499402132,-2.397354885694094,2.847054663837701,-2.9402718650719026,-5.613722723007487,-10.650047999811516
7.001104950545191,-2.453492112924169,2.8176519451869817,-3.0467723450700177,-5.199811274428684,-10.940298307728368
6.976570029415949,-2.505490225668456,2.7871842217362817,-3.1561753281473015,-4.748585095169267,-11.211118605058322
6.951515127159265,-2.5529760766201486,2.7556224684548085,-3.268286514197885,-4.258264520123505,-11.459661837687278
6.925985366393063,-2.5955587218213836,2.7229396033128297,-3.382883132574758,-3.727254587994471,-11.683193090410613
6.900029779174849,-2.632831267701328,2.689110771987082,-3.499715063478864,-3.1541956054656453,-11.879154950936632
6.8737014664978355,-2.6643732237559847,2.6541136213522933,-3.6185066129882304,-2.538016454061045,-12.045241239896848
6.847057734260276,-2.6897533882965954,2.617928555222411,-3.738959025387199,-1.8779892684602082,-12.179478709647162
6.82016020037731,-2.7085332809811975,2.580538964968539,-3.8607538124836704,-1.1737836697340476,-12.280315926479792
6.793074867567498,-2.720271117678538,2.5419314268437025,-3.9835569717484685,-0.42551825383628933,-12.346718103809785
6.765872156390713,-2.7245263002169007,2.5020958571262177,-4.1070241527865665,0.3661934629862144,-12.378266165292883
6.738626893388544,-2.7208643655870386,2.461025615598352,-4.230806814439496,1.2002059218450762,-12.37525781648523
6.711418249732673,-2.7088623063685877,2.4187175474539573,-4.354559392604348,2.0748169234865497,-12.338807935797389
6.684329626668987,-2.6881141371337223,2.375171953527914,-4.477947471962322,2.987759566235728,-12.270945219360584
6.65744848529765,-2.658236541471365,2.3303924788082906,-4.600656924155928,3.936214870645278,-12.174701802769908
6.630866119882936,-2.6188743927649125,2.284385909566731,-4.722403942183627,4.916849155845898,-12.054192617550067
6.604677375955287,-2.5697059012064534,2.2371618701448948,-4.842945868359128,5.925879873484751,-11.914681605635558
6.578980316943222,-2.510447102471606,2.1887324114613036,-4.962092684415484,6.959172945888813,-11.762632686948372
6.5538758459185065,-2.440855373012718,2.139111484617149,-5.0797190112849675,8.012373699452095,-11.605744608528047
6.52946729218838,-2.360731636018197,2.088314294504299,-5.195776457370248,9.081072275833458,-11.452970520547435
6.505859975828198,-2.2699209132598623,2.036356529930597,-5.310306162575722,10.16100303027887,-11.314525302342835
6.483160766695599,-2.1683108829570736,1.9832534683048395,-5.423451415599151,11.248276017201016,-11.201886225502566
6.461477657866029,-2.0558281227850634,1.929018954148848,-5.535470277854176,12.339637374001466,-11.127795360726278
6.4409193766381785,-1.9324317490450489,1.8736642513703063,-5.646748231461439,13.432754400238974,-11.106275023903954
6.421595059147728,-1.7981042050426592,1.817196769055692,-5.757810981700478,14.526520500558703,-11.152670267219133
6.4036140170973015,-1.6528390000370723,1.7596186592386873,-5.8693376843726695,15.621374914035378,-11.283734622865293
6.387085627096931,-1.4966252508967184,1.7009252823949605,-5.982175030601322,16.7196320743993,-11.517776521538737
6.372119374587964,-1.3294289301527253,1.6411035320889473,-6.097352795816709,17.82581494552939,-11.874883250998032
6.358825085286437,-1.1511707806974314,1.5801300041307802,-6.216101628326689,18.946984513936346,-12.377235565964872
6.347313377479463,-0.9617009355580679,1.5179689878475133,-6.3398739839863385,20.09305139569208,-13.049516364116919
6.337696368123882,-0.760770421601147,1.45457024800765,-6.470369147627507,21.277040708457907,-13.919395804565232
6.33008866390787,-0.548000014516568,1.3898665565313748,-6.60956310567316,22.515249466164267,-15.018032212368649
6.324608663762704,-0.3228475198549253,1.3237709254746433,-6.759743427796846,23.827170682781333,-16.380442134722127
6.321380188564155,-0.084575813027112,1.2561734911966749,-6.923547849144067,25.23492950633137,-18.04542300998214
6.3205344304338835,0.1677734820362017,1.1869380127052342,-7.104002079243888,26.761725814752108,-20.054378590059315
6.322212165254245,0.4353907401837228,1.1158979919127954,-7.3045458651444815,28.428295299883413,-22.44774879785746
6.326566072656083,0.7196736931825569,1.0428525332613505,-7.529023353123056,30.245487777509144,-25.256502085150046
6.333762809587908,1.0221285709576484,0.96756229973012,-7.781588373974556,32.199381056630784,-28.483829743111205
6.343984095297484,1.3441223815239562,0.8897464159903744,-8.066426671405669,34.22243782659437,-32.06810696114913
6.357425319112724,1.6863467597899,0.8090821492763177,-8.38710774101716,36.13984060403994,-35.811939458988675
6.374288786710623,2.0477451658302996,0.7252110718661461,-8.745227135607047,37.57603677727699,-39.255892254195224
6.394766238368926,2.4235055336030698,0.6377588005100756,-9.137786058148999,37.81224016764539,-41.482172957368334
6.419001293704957,2.801627935279524,0.5463809399285856,-9.552607787722682,35.63247367328831,-40.896117590666485
6.447017573057752,3.157952672012407,0.4508548620513588,-9.961568963629347,29.34709796073237,-35.23998285457974
6.478597099777876,3.4514236516197307,0.3512391724150653,-10.313968792175144,17.441072313227703,-22.45031363915842
6.513111336294074,3.625834374752008,0.24809948449331387,-10.538471928566729,0.1961880953265247,-2.841571445481754
6.549369680041594,3.627796255705273,0.1427147652076466,-10.566887643021547,-18.846726541010057,18.930236630320465
6.585647642598647,3.4393289902951723,0.03704588877743112,-10.377585276718342,-34.366967204887764,35.90345875937581
6.620040932501599,3.0956593182462946,-0.06672996398975231,-10.018550689124584,-43.2825844026519,44.22213936683534
6.650997525684062,2.6628334742197755,-0.16691547088099817,-9.576329295456231,-46.274273081324345,45.056374576304485
6.67762586042626,2.200090743406532,-0.2626787638355605,-9.125765549693186,-45.70477500511742,41.68844341796256
6.699626767860325,1.743042993355358,-0.35393641933249237,-8.708881115513561,-43.571592613654026,36.781479089360886
6.717057197793879,1.3073270672188178,-0.441025230487628,-8.341066324619952,-41.00529515036011,31.782497002606544
6.730130468466067,0.8972741157152166,-0.5244358937338275,-8.023241354593887,-38.51099982351536,27.29820422393062
6.739103209623219,0.5121641174800631,-0.6046683072797664,-7.750259312354581,-36.263740441854246,23.509881513956685
6.74422485079802,0.1495267130615206,-0.6821709004033122,-7.515160497215014,-34.289730733625916,20.418147457742542
6.745720117928634,-0.19337059427473857,-0.7573225053754623,-7.310979022637588,-32.55634290650737,17.95971083983598
6.743786411985887,-0.5189340233398123,-0.8304322956018382,-7.1313819142392285,-31.012512215769252,16.05682531535945
6.738597071752489,-0.8290591454975049,-0.9017461147442305,-6.970813661085634,-29.60565200010557,14.635844328711066
6.730306480297513,-1.1251156654985606,-0.9714542513550868,-6.824455217798524,-28.28814852206096,13.632612779216036
6.719055323642528,-1.4079971507191702,-1.039698803533072,-6.688129090006363,-27.019450228882615,12.992648727581328
6.704975352135336,-1.6781916530079963,-1.1065800944331357,-6.55820260273055,-25.766402389229455,12.669528187614684
6.688193435605256,-1.9358556769002908,-1.172162120460441,-6.4315073208544025,-24.50295178426284,12.622883827257928
6.668834878836253,-2.180885194742919,-1.2364771936689851,-6.305278482581823,-23.209669310483005,12.816568874690063
6.647026026888824,-2.4129818878477494,-1.2995299784948033,-6.177112793834922,-21.873244467034297,13.21717619038538
