th1 (rad),w1 (rad/s),th2 (rad),w2 (rad/s)
0.24318963115676467,-1.7366263184682076,0.6024493404920359,1.467986518287247
0.2258233679720826,-1.7167852296171522,0.6171292056749084,1.3832759927321763
0.2086555156759111,-1.6938874721257724,0.6309619656022302,1.2941557217144224
0.19171664095465338,-1.6684382609693647,0.6439035228193744,1.2013699088745775
0.17503225834495972,-1.6408807474026903,0.6559172219081201,1.1055876914236937
0.15862345087093283,-1.6115925841823886,0.666973098822357,1.0073978658910723
0.14250752502910893,-1.5808865497954716,0.6770470774812677,0.9073091394238821
0.12669865953115422,-1.5490139883382468,0.6861201688755065,0.8057542082929539
0.11120851964777176,-1.5161699886182125,0.6941777109584361,0.7030961899171637
0.09604681976158963,-1.4824994522574655,0.7012086728576077,0.5996362426432956
0.08122182523901497,-1.448103430373533,0.7072050352840407,0.4956215216223619
0.06674079093527964,-1.4130453106245877,0.7121612505002642,0.3912528961514184
0.052610337829033765,-1.3773565982690055,0.7160737794617784,0.28669207599376617
0.03883677184634371,-1.341042155273229,0.7189407002217161,0.1820679597257442
0.02542635029361142,-1.3040848453671106,0.7207613798189735,0.07748213379306715
0.012385501839940314,-1.2664495875726325,0.7215362011569042,-0.02698647337606906
-0.00027899403578601073,-1.2280868535205862,0.7212663364231435,-0.13127773204837095
-0.012559862570991873,-1.1889356612735522,0.7199535591026598,-0.23534717173598566
-0.024449219183727396,-1.1489261255364527,0.7176000873852999,-0.33916347595636587
-0.035938480439091924,-1.1079816249129582,0.7142084526257363,-0.44270652355539225
-0.04701829668822151,-1.0660206440133007,0.7097813873901824,-0.5459658919832521
-0.057678503128354514,-1.0229583436336702,0.7043217284703499,-0.6489397433973422
-0.06790808656469122,-0.9787079071751466,0.6978323310363764,-0.7516340206961717
-0.07769516563644269,-0.9331817067770091,0.6903159908294147,-0.8540618864592934
-0.08702698270421277,-0.8862923288414997,0.6817753719648219,-0.9562433425709234
-0.09588990599262777,-0.8379534960838902,0.6722129385391126,-1.0582049715674149
-0.10426944095346667,-0.788080922217827,0.6616308888234385,-1.1599797421229074
-0.11215025017564494,-0.7365931361117726,0.6500310914022094,-1.2616068202647617
-0.11951618153676266,-0.6834123149674364,0.6374150231995618,-1.3631313245604046
-0.12635030468643701,-0.6284651710555493,0.6237837099539577,-1.464603957242069
-0.13263495639699252,-0.5716839441409172,0.609137670381537,-1.5660804335372982
-0.13835179583840168,-0.5130075623544721,0.593476866046164,-1.6676206177323585
-0.1434818714619464,-0.4523830484147354,0.5768006598688404,-1.7692872559715331
-0.14800570194609378,-0.389767266302978,0.5591077873091251,-1.8711441716506616
-0.15190337460912356,-0.32512912628065893,0.5403963455926185,-1.9732537586426215
-0.15515466587193016,-0.2584523938909843,0.5206638080061923,-2.075673569784875
-0.15773918981084,-0.18973928132527873,0.4999070723083435,-2.178451752805676
-0.1596365826240928,-0.11901503650531163,0.47812255478028676,-2.2816210338982303
-0.16082673298914593,-0.04633378424794532,0.45530634444130447,-2.38519089309502
-0.1612900708316254,0.028214089728945638,0.4314544355103543,-2.4891375214005373
-0.16100792993433594,0.1044926961594054,0.4065630602963489,-2.593391108776542
-0.15996300297274188,0.1823092264904639,0.3806291492085835,-2.6978200046511867
-0.15813991070783723,0.26140010162173305,0.3536509491620716,-2.802211351523491
-0.1555259096916199,0.3414145622177931,0.3256288356468367,-2.9062479678260407
-0.15211176406944196,0.4218958567087938,0.2965663559685763,-3.0094816202286876
-0.14789280550235404,0.5022606682120593,0.2664715397662894,-3.1113034707781444
-0.14287019882023344,0.5817781855170634,0.23535850505850794,-3.2109135133195403
-0.13705241696506282,0.6595513206385784,0.20324936992531253,-3.3072923064625166
-0.13045690375867702,0.7345039935044969,0.17017644686068736,-3.3991802565913622
-0.12311186382363205,0.8053799819301538,0.13618464429477373,-3.485071891734365
-0.11505806400433051,0.8707601597116799,0.10133392537743008,-3.563234438181228
-0.10635046240721371,0.9291052767458444,0.06570158099561779,-3.631760555173672
-0.09705940963975526,0.9788297573463146,0.02938397544388107,-3.688662902913901
-0.08727111206629212,1.0184073465168864,-0.007502653585257937,-3.732011985000304
-0.07708703860112326,1.0465015993464186,-0.044822773435260976,-3.7601080943794685
-0.06662202260765906,1.0621045524172548,-0.08242385437905567,-3.7716650516971386
-0.05600097708348652,1.0646587714955353,-0.12014050489602705,-3.765972309419304
-0.04535438936853116,1.0541357314168704,-0.1578002279902201,-3.7429989184404766
-0.03481303205436245,1.0310502221318802,-0.19523021717462485,-3.70341201119769
-0.02450252983304365,0.9964053297623269,-0.23226433728660176,-3.648502646712831
-0.014538476535420381,0.9515801585513866,-0.26874936375373004,-3.5800357370095544
-0.005022674949906516,0.8981856299617725,-0.3045497211238256,-3.5000584818755986
0.0039591813497112105,0.8379175757390801,-0.3395503059425816,-3.4107067292488633
0.012338357107102012,0.7724309874526507,-0.37365737323507026,-3.314041133858532
0.02006266698162852,0.7032487503568758,-0.40679778457365556,-3.211930528859408
0.02709515448519728,0.6317074745172766,-0.43891708986224964,-3.1059853940144366
0.033412229230370044,0.5589354668858603,-0.469976943802394,-2.9975341833466342
0.03900158389922865,0.4858543530344276,-0.49995228563586036,-2.8876306940519174
0.043860127429572925,0.41319553688150423,-0.5288285925763795,-2.7770804296577967
0.047992082798387965,0.3415241798340565,-0.5565993968729575,-2.666476088453821
0.05140732459672853,0.2712654805027242,-0.5832641577574956,-2.5562352444698577
0.05411997940175577,0.2027300057049112,-0.6088265102021942,-2.44663599309374
0.056147279458804884,0.1361363499368573,-0.6332928701331316,-2.3378484002695332
0.057508642958173456,0.07163043885381765,-0.656671354135827,-2.2299609791484762
0.05822494734671163,0.009301422516542326,-0.6789709639273117,-2.1230022421244112
0.058317961571877054,-0.050805559891909366,-0.7002009863485559,-2.016957801463384
0.05780990597295796,-0.10867931706509053,-0.7203705643631897,-1.91178366231356
0.05672311280230705,-0.1643347849350955,-0.7394884009863253,-1.8074163751869596
0.0550797649529561,-0.21780701609160505,-0.7575625647381948,-1.7037806627925085
0.05290169479204005,-0.2691466006239018,-0.7746003713661199,-1.6007950523316794
0.05021022878580103,-0.318416201099916,-0.7906083218894367,-1.4983759538111145
0.047026066774801874,-0.36568794349085043,-0.8055920814275479,-1.3964405401551088
0.04336918733989337,-0.4110414581828747,-0.819556486829099,-1.29490871126698
0.03925877275806462,-0.45456240932992553,-0.8325055739417688,-1.1937043630645796
0.03471314866476537,-0.49634138681459405,-0.8444426175724147,-1.0927561332761424
0.029749734796619427,-0.5364730638371994,-0.8553701789051761,-0.9919977569489551
0.02438500415824743,-0.5750555457293335,-0.8652901564746657,-0.8913681344815284
0.018634448700954095,-0.6121898530686419,-0.874203837819481,-0.7908111919017303
0.012512550170267676,-0.6479794955237835,-0.8821119497384983,-0.690275595648991
0.00603275521502984,-0.6825301028958818,-0.8890147056949882,-0.5897143710970167
-0.0007925458139289776,-0.715949087201513,-0.8949118494059584,-0.4890844645356034
-0.007952036685944106,-0.7483453148743323,-0.8998026940513144,-0.388346281593837
-0.01543548983468743,-0.7798287716344071,-0.9036861568672527,-0.2874632305951617
-0.023233777551031502,-0.8105102045665225,-0.9065607891732044,-0.18640129670559022
-0.03133887959669673,-0.8405007266520792,-0.9084248021402602,-0.08512867171711477
-0.03974388686321752,-0.869911368529172,-0.9092760888574314,0.01638453524518578
-0.04844300054850924,-0.8988525606630214,-0.9091122435049795,0.11816647894422092
-0.057431526155139453,-0.9274335263895941,-0.9079305787155373,0.22024362073279585
-0.0667058614190354,-0.955761562396652,-0.9057281425082093,0.3226405974560391
-0.07626347704300192,-0.9839411780370305,-0.902501736533649,0.4253798747571088
-0.08610288882337222,-1.0120730583090978,-0.8982479377860779,0.5284811345970885
-0.09622361940646319,-1.0402528072595605,-0.892963126440107,0.6319603363254371
-0.1066261474790588,-1.0685694188539712,-0.8866435230768527,0.7358283778950134
-0.1173118416675985,-1.0971034109786457,-0.8792852392979026,0.8400892687086945
-0.12828287577738495,-1.12592454528964,-0.8708843466108156,0.9447377082111559
-0.13954212123028134,-1.1550890414874446,-0.8614369695287041,1.04975594516222
-0.1510930116451558,-1.1846361801111485,-0.8509394100770818,1.1551097726359045
-0.16293937344626727,-1.2145841747021422,-0.8393883123507228,1.2607434952861187
-0.17508521519328868,-1.244925184929563,-0.8267808773978615,1.3665736919856633
-0.1875344670425843,-1.2756193414530361,-0.8131151404780049,1.4724815946014327
-0.20029066045711466,-1.306587667796517,-0.7983903245319905,1.5783039217590142
-0.21335653713507982,-1.3377038244193038,-0.7826072853144004,1.6838220587634
-0.22673357537927286,-1.368784679556689,-0.7657690647267664,1.7887495806486602
-0.24042142217483975,-1.3995798485585271,-0.7478815689202798,1.8927182997871033
-0.25441722066042505,-1.4297605599759347,-0.7289543859224088,1.995263312401364
-0.2687148262601844,-1.458908524048938,-0.7090017527983952,2.0958079495217197
-0.2833039115006738,-1.4865059113598647,-0.688043673303178,2.1936501268276714
-0.29816897061427244,-1.5119280885882165,-0.6661071720349012,2.287952324386488
-0.3132882515001546,-1.5344413543682074,-0.6432276487910363,2.377738243037262
-0.3286326650438367,-1.553208452526356,-0.6194502663606637,2.461899916074851
-0.34416474956910026,-1.5673049036519677,-0.5948312671999152,2.5392194155581294
-0.35983779860561993,-1.5757488929942,-0.5694390730443339,2.608408874194562
-0.37559528753556193,-1.5775462571097394,-0.5433549843023884,2.6681708975228706
-0.39137075010665934,-1.5717498055034855,-0.5166732753271597,2.7172782683536267
-0.4070882481616942,-1.5575288966867704,-0.4895004926436234,2.754667288399814
-0.4226635371285619,-1.534241478295551,-0.46195381975962524,2.7795340195930596
-0.4380059519115174,-1.501497859272239,-0.43415847956369463,2.7914186881160217
-0.4530209305042398,-1.4592046987964258,-0.4062442926825344,2.7902625158361984
-0.46761297749220404,-1.407580037228836,-0.3783416675241724,2.7764245656655167
-0.4816887778644924,-1.3471355099518592,-0.3505774218675173,2.7506535957855442
-0.49516013296401096,-1.2786286878098705,-0.3230708859096618,2.7140193255446987
-0.5079464198421096,-1.2029945035433698,-0.29593069265421484,2.667815762779687
-0.5199763648775433,-1.121267981983049,-0.269252535026418,2.613453615339594
-0.5311890446973738,-1.0345102612204347,-0.24311799887302205,2.552358333458075
-0.5415341473095782,-0.9437468633748501,-0.2175944155384413,2.485886004625709
-0.5509716159433267,-0.8499228790440556,-0.1927355554921842,2.415263300460299
-0.5594708447337672,-0.7538756938520936,-0.16858292248758122,2.341552073957454
-0.5670096016722881,-0.6563230448699678,-0.14516740174800669,2.2656353082920933
-0.5735728321209878,-0.5578627814059147,-0.12251104866508575,2.1882192238364753
-0.5791514599350469,-0.458980462067296,-0.100628856426721,2.1098460812572637
-0.5837412645557198,-0.36006140276765364,-0.07953039561414836,2.0309129444879703
-0.5873418785833964,-0.2614045846949449,-0.059221266169268656,1.951692808840779
-0.5899559244303458,-0.1632366520414459,-0.039704338080860865,1.8723556614925758
-0.5915882909507603,-0.06572492637768652,-0.020980781465935107,1.792988019125917
-0.5922455402145371,0.031011112685720807,-0.0030509012746759365,1.7136102144690015
-0.5919354290876799,0.12689007559652377,0.01408520087001408,1.6341911929623787
-0.5906665283317147,0.22186061505030216,0.03042711279963787,1.5546608796441859
-0.5884479221812117,0.3158949363570225,0.04597372159607973,1.4749203378250026
-0.5852889728176415,0.40898366449768914,0.06072292497432975,1.394850011737682
-0.5811991361726646,0.5011318512059728,0.07467142509170657,1.3143163606752668
-0.5761878176606049,0.5923559128102908,0.08781458869845923,1.2331771770869446
-0.570264258532502,0.6826813078275217,0.10014636046932868,1.151285851976304
-0.5634374454542267,0.7721407851521259,0.11165921898909172,1.0684948177456701
-0.5557160376027054,0.8607730549099477,0.12234416716654842,0.984658367120102
-0.5471083070536059,0.9486217523552822,0.13219075083774945,0.8996350200400413
-0.5376220895300531,1.0357345794499857,0.14118710103814985,0.8132895899103653
-0.5272647437355532,1.122162518477903,0.1493199969372535,0.7254950869402491
-0.5160431185507742,1.207959017027056,0.156574947806656,0.636134589689016
-0.5039635283805036,1.2931790438383681,0.16293629370354618,0.5451032163819699
-0.49103173794211996,1.3778779103084686,0.16838732586736588,0.45231033509062823
-0.4772529588390353,1.4621097427681304,0.17291042921827215,0.3576821665055972
-0.462631861411354,1.5459254759907444,0.17648725088332812,0.26116495472992496
-0.44717260665144654,1.6293702188244608,0.17909890043062737,0.16272891000950193
-0.43087890446320193,1.7124798188798689,0.1807261895307224,0.06237316174764011
-0.41375410627440323,1.7952764261078258,0.18134992114819878,-0.039868001446360476
-0.39580134201332495,1.877762827521426,0.18095124113373517,-0.14391728951139526
-0.3770237137381107,1.9599153022194513,0.17951206823862123,-0.2496446201669208
-0.3574245607159162,2.041674735873617,0.17701562203695204,-0.3568550218317259
-0.33700781335718005,2.1229357510112288,0.17344707181863478,-0.46527390079947045
-0.31577845584706776,2.203533675437448,0.16879433281064007,-0.5745294422870024
-0.2937431190926933,2.2832293174318736,0.16304903838777005,-0.6841321292226032
-0.27091082591837456,2.36169178516297,0.156207717095544,-0.7934517516512669
-0.24729390806674487,2.4384800299188742,0.14827319957903135,-0.9016929146734328
-0.22290910776755612,2.5130244583818744,0.13925627043229702,-1.0078710035207676
-0.19777886318373739,2.58461087582562,0.12917756039708933,-1.1107918674654278
-0.17193275442548117,2.652370154393017,0.11806964172243506,-1.209040086335545
-0.145409052881551,2.715278209598811,0.10597924085907962,-1.3009823551443653
-0.1182562707855629,2.7721717627060616,0.09296941730763596,-1.3847937616486978
-0.09053455315850228,2.821785385829784,0.07912147969114898,-1.4585147119106676
-0.06231669930020445,2.86281372954069,0.0645363325720423,-1.5201439292124757
-0.03368856200479754,2.8939989855930515,0.049334893279917545,-1.5677674176557201
-0.004748572148867026,2.914237507297254,0.03365721910336034,-1.5997145069447452
0.024393802924105513,2.9226922211211037,0.01766007403391289,-1.6147216885977764
0.05362072513531655,2.918891484887387,0.0015128571479351254,-1.6120764363118671
0.08280963998419041,2.902793504891429,-0.014607907215183548,-1.591711022393887
0.11183757503310471,2.874800456241435,-0.03052501743912242,-1.554223544382693
0.14058557959551907,2.835717470450854,-0.046067252882949355,-1.5008191298010418
0.16894275430002761,2.786664945672666,-0.061075444180959775,-1.4331833085958805
0.19680940375675426,2.728963057410441,-0.07540727726691858,-1.3533145113376261
0.22409903433085868,2.664011179096525,-0.08894042238029484,-1.263348246383046
0.2507391461218239,2.593181759455353,-0.1015739048441253,-1.165401120804317
0.27667096371637745,2.5177406337739567,-0.11322791605216848,-1.061452147525922
0.301848370054117,2.4387973900818833,-0.1238424375274277,-0.953266868015445
0.32623634395493584,2.3572829905292956,-0.13337510620758214,-0.8423606044988021
0.3498091738602288,2.2739483933707056,-0.14179871225257015,-0.7299921339744228
0.37254865779393587,2.189377088421483,-0.14909863359231437,-0.6171777886551225
0.3944424286781507,2.1040052896194616,-0.1552704114788656,-0.5047170881384357
0.4154824815743453,2.0181450707637603,-0.16031758236024996,-0.3932231502466414
0.4356639322819829,1.9320073299770935,-0.16424981386271637,-0.2831533763847493
0.45498400558175384,1.845722794933789,-0.16708134762656385,-0.1748377873033165
0.47344123353109174,1.7593602377665059,-0.16882972549959702,-0.06850375150690641
0.4910348359087568,1.6729416856042556,-0.1695147630146661,0.035703262467761177
0.5077642527647993,1.5864547677338618,-0.16915773038998846,0.1377027605642136
0.5236288004421379,1.499862515348007,-0.16778070278434634,0.23746571388246943
0.5386274255956179,1.4131109921492875,-0.16540604564552164,0.33500395579008135
0.5527585355171108,1.3261351323390964,-0.16205600608762083,0.43036197007492705
0.5660198868405019,1.2388631287476064,-0.15775238638687156,0.5236105969205253
0.5784085181279779,1.151219667587263,-0.1525162804176663,0.6148422454240827
0.5899207148038506,1.063128258558404,-0.14636785796342547,0.7041672670314991
0.6005519973894345,0.9745128654345364,-0.13932618529311047,0.7917112052446617
0.61029712604378,0.8852990052467317,-0.13140907324066387,0.8776126894552497
0.6191501160962473,0.795414454458244,-0.12263294634611137,0.9620217835128613
0.6271042606408297,0.7047896778971463,-0.11301272851098276,1.0450986326592757
0.6341521574198011,0.6133580801882094,-0.10256174218439,1.127012276294558
0.6402857382216832,0.5210561694513207,-0.09129161942144443,1.2079395093172811
0.6454962999161964,0.42782371869179947,-0.07921222432827162,1.2880636819928697
0.6497745371031144,0.33360401137852014,-0.06633158750834292,1.3675733276854118
0.6531105772168996,0.2383442641992913,-0.0526558542314888,1.4466604992679566
0.6554940198588924,0.14199633213403276,-0.03818924923880924,1.5255186782287191
0.6569139831802328,0.04451781921224994,-0.022934062456522047,1.6043400947872808
0.6573591613723553,-0.054126256870590264,-0.00689066150864924,1.6833122619675405
0.6568178988036494,-0.15396106629361167,0.009942461111026164,1.7626134808969192
0.6552782881407133,-0.2549986160027255,0.027568595919995355,1.842407018522981
0.6527283019806861,-0.35723318227118683,0.04599266610522516,1.9228335936937593
0.6491559701579742,-0.4606352151524261,0.06522100204216276,2.0040017369840175
0.6445496180064499,-0.5651433579398144,0.08526101941200294,2.085975522283941
0.6388981844270518,-0.6706541944009403,0.10612077463484235,2.1687591203133643
0.6321916424830424,-0.7770093414816092,0.127808365837976,2.2522776244442517
0.6244215490682263,-0.8839795786759275,0.15033114208241852,2.33635369406042
0.615581753281467,-0.9912458977674361,0.1736946790230227,2.420679820925123
0.6056692943037927,-1.0983777385260582,0.19790147723227394,2.504786548779111
0.5946855169185321,-1.2048093345802193,0.22294934272006506,2.5880078893637135
0.58263742357273,-1.3098161172014842,0.2488294216137022,2.6694466051842416
0.5695392624007152,-1.412494560835375,0.2755238876655446,2.747944041500279
0.5554143167923614,-1.5117506316646838,0.30300332808054736,2.822061693407073
0.5402968104757145,-1.6063038110200802,0.3312239450146181,2.890084263946053
0.5242337723655137,-1.6947148368094882,0.3601247876540786,2.950055671307909
0.5072866239974189,-1.7754447619147236,0.38962534436715773,2.9998587927710383
0.4895321763782716,-1.8469494050301976,0.4196239322948681,3.037344914092195
0.47106268232796966,-1.9078059594756165,0.44999738143579004,3.0605087346640323
0.4519846227332135,-1.9568580971677079,0.48060246878243035,3.067690260140833
0.4324160417615364,-1.9933553413168787,0.5112793713838387,3.057770127369322
0.41248248834836765,-2.017056715172184,0.5418570726575319,3.030316720631147
0.3923119211966458,-2.0282723019515987,0.5721602398638433,2.9856482822516104
0.3720291981771298,-2.0278302728623707,0.6020167226863594,2.9247923942729206
0.35175089544850613,-2.016976524875975,0.6312646466290887,2.8493523113623884
0.3315811301997464,-1.9972311098030961,0.6597581697427125,2.761313266200364
0.31160881910171545,-1.9702332268338056,0.6873713024047161,2.662832450703273
0.2919064868333774,-1.937603087931912,0.7139996269117488,2.5560516596187335
0.2725304559540583,-1.900838196281151,0.7395601435079361,2.442956754439933
0.25352207399124677,-1.8612493313100793,0.7639897110523354,2.325291236167899
0.23490958067814596,-1.8199322334903774,0.7872426234140144,2.2045184213443036
0.2167102583432422,-1.7777662138387293,0.8092878076274574,2.0818201783881625
