th1 (rad),w1 (rad/s),th2 (rad),w2 (rad/s),a1 (rad/s^2),a2 (rad/s^2)
2.5497748670279177,-2.271417370131969,2.7600378071384113,2.695669481225209,-4.595477866341705,-0.23174095050054125
2.527060693326598,-2.317372148795386,2.7869945019506632,2.6933520717202035,-4.515894733524877,-0.4187344754803333
2.5038869718386443,-2.3625310961306347,2.813928022667865,2.6891647269654,-4.425342921989667,-0.6425333348726692
2.480261660877338,-2.4067845253505316,2.840819669937519,2.6827393936166737,-4.330700203339781,-0.8947100968097722
2.4561938156238323,-2.4500915273839294,2.8676470638736857,2.6737922926485758,-4.238784206734188,-1.1670253232727674
2.431692900349993,-2.4924793694512712,2.8943849868001714,2.662122039415848,-4.1558520848504505,-1.4521368388210742
2.4067681066554805,-2.5340378902997758,2.92100620719433,2.647600671027637,-4.087256576453347,-1.7440951047537843
2.3814277277524827,-2.5749104560643095,2.9474822139046064,2.6301597199800995,-4.037274546655203,-2.038601544564388
2.3556786231918396,-2.6152832015308616,2.9737838111044073,2.609773704534456,-4.009090125280268,-2.3330540615180353
2.329525791176531,-2.6553741027836644,2.9998815481497516,2.5864431639192755,-4.004893834535362,-2.6264329951631487
2.302972050148694,-2.695423041129018,3.0257459797889443,2.560178833967644,-4.02605252402042,-2.91909004481265
2.276017819737404,-2.735683566369222,3.051347768128621,2.5309879335195173,-4.073309128496643,-3.2124969359356847
2.248660984073712,-2.7764166576541887,3.0766576474638163,2.4988629641601605,-4.14698126364958,-3.5089967295308546
2.22089681749717,-2.8178864702906843,3.101646277105418,2.463772996864852,-4.2471390722930735,-3.8115848043657246
2.1927179527942635,-2.860357861013615,3.1262840070740663,2.4256571488211947,-4.3737526846626045,-4.123732630889706
2.1641143741841273,-2.904095387860241,3.1505405785622784,2.3844198225122977,-4.5268069165851825,-4.449257228513407
2.135073420305525,-2.949363457026093,3.1743847767874014,2.3399272502271637,-4.706385296792066,-4.792232784667362
2.105579785735264,-2.9964273099940137,3.197784049289673,2.29200492238049,-4.912727688630895,-5.156937605361845
2.075615512635324,-3.0455545868803227,3.2207040985134783,2.2404355463268715,-5.1462663344019814,-5.547828395514764
2.0451599667665206,-3.0970172502243423,3.243108453976747,2.1849572623717237,-5.40764472757957,-5.969533942203329
2.014189794264277,-3.151093697500138,3.2649580266004645,2.1252619229496905,-5.697722779850321,-6.4268609157437755
1.9826788572892757,-3.208070925298641,3.2862106458299616,2.060993313792253,-6.017570602534036,-6.924805257975335
1.9505981480362893,-3.2682466313239815,3.306820578967884,1.9917452612124995,-6.3684520381347545,-7.468563224704192
1.9179156817230494,-3.331931151705329,3.326738031580009,1.9170596289654576,-6.751797937589479,-8.06353645094076
1.884596370205996,-3.399449131081224,3.3459086278696635,1.83642426445605,-7.1691681075646025,-8.715325358573926
1.8506018788951837,-3.47114081215687,3.364272870514224,1.7492710108703107,-7.622199850315708,-9.429704824420812
1.815890470773615,-3.547362810660027,3.381765580622927,1.6549739626261026,-8.112540084214794,-10.21257530680957
1.7804168426670146,-3.628488211502175,3.3983153202491883,1.552848209558007,-8.641757179420466,-11.069881660021148
1.744131960551993,-3.7149057832963797,3.4138438023447684,1.4421493929577955,-9.211227914507829,-12.007490760794616
1.706982902719029,-3.807018062441458,3.4282652962743465,1.3220744853498494,-9.821994446482218,-13.031018005320604
1.6689127220946145,-3.90523800690628,3.441486041127845,1.1917643052966433,-10.474586040606733,-14.145591974077085
1.6298603420255517,-4.009983867312347,3.4534036841808113,1.0503083855558726,-11.168800756822161,-15.355546491799357
1.5897605033524282,-4.121671874880569,3.46390676803637,0.896752920637879,-11.903443652258687,-16.66403046699921
1.5485437846036225,-4.240706311403156,3.472874297242749,0.7301126159678869,-12.676020735359698,-18.0725289805124
1.5061367214895909,-4.367466518756753,3.480175423402428,0.5493873261627629,-13.482392355043993,-19.580294951438983
1.4624620563020234,-4.502290442307193,3.4856692966640552,0.35358437664837306,-14.316396374505668,-21.183700249757262
1.4174391518789515,-4.64545440605225,3.489205140430539,0.14174737415080044,-15.169460664990995,-22.875529135427378
1.3709846078184291,-4.797149012702159,3.4906226141720467,-0.08700791720347334,-16.03023610393299,-24.644255731851786
1.3230131176914075,-4.957451373741489,3.489752535000012,-0.33345047452199117,-16.88429466889902,-26.473370324313713
1.2734386039539927,-5.126294320430479,3.486418030254792,-0.5981841777651282,-17.713950698360975,-28.340844552734115
1.2221756607496879,-5.303433827414089,3.4804361884771406,-0.8815926232924693,-18.49827400791997,-30.218848923644945
1.169141322475547,-5.488416567493289,3.471620262244216,-1.1837811125289188,-19.213367099191952,-32.07385104473398
1.114257156800614,-5.680550238485209,3.459782451118927,-1.5045196229762587,-19.832970162661667,-33.86722121036886
1.057451654415762,-5.878879940111825,3.4447372548891644,-1.8431918350799474,-20.329432306316864,-35.556444659952454
0.9986628550146437,-6.082174263174994,3.426305336538365,-2.198756281679472,-20.675043076597447,-37.09698064739887
0.9378411123828938,-6.288924693940968,3.40431777372157,-2.5697260881534607,-20.84365710847678,-38.4447172825886
0.8749518654434841,-6.497361265025736,3.3786205128400355,-2.9541732609793465,-20.81247527850511,-39.55885760761711
0.8099782527932268,-6.705486017810787,3.349078780230242,-3.3497618370555178,-20.563783106881065,-40.404957385066645
0.7429233926151189,-6.911123848879598,3.315581161859687,-3.7538114109061844,-20.08641004701647,-40.95774777404502
0.6738121541263229,-7.111987949349762,3.278043047750625,-4.163388888646635,-19.376678288199773,-41.20334621549056
0.6026922746328253,-7.30575473223176,3.236409158864159,-4.57542235080154,-18.43866426668956,-41.140505889712195
0.5296347273105076,-7.490141374898656,3.1906549353561435,-4.9868274096986624,-17.283693532634274,-40.78067747387208
0.4547333135615211,-7.662978310224998,3.140786661259157,-5.3946341844373835,-15.92910898458332,-40.146832696569305
0.3781035304592711,-7.822269400070832,3.086840319414783,-5.796102511403077,-14.396464585384049,-39.271186107956716
0.2998808364585628,-7.966234045924672,3.0288792943007525,-6.188814372482644,-12.709374249162714,-38.192104681539945
0.22021849599931606,-8.0933277884163,2.966991150575926,-6.570735419298043,-10.891272921515945,-36.95058133389764
0.13928521811515304,-8.20224051763146,2.9012837963829456,-6.940241232637019,-8.963324517915154,-35.58665733399783
0.05726281293883845,-8.29187376281061,2.8318813840565755,-7.296107805976997,-6.942654211834404,-34.136122137840324
-0.025655924689267653,-8.361300304928955,2.7589203059968055,-7.637469027355401,-4.841012820766017,-32.62772531891544
-0.1092689277385572,-8.409710433136615,2.6825456157232517,-7.963746280544555,-2.663920139815762,-31.0810361268029
-0.19336603206992337,-8.436349634534773,2.602908152917806,-8.274556641812584,-0.41029656986136787,-29.505008205629203
-0.2777295284152711,-8.440452600233387,2.5201625864996804,-8.569606723868876,1.927416407758311,-27.89726527331197
-0.362134054417605,-8.421178436155804,2.4344665192609916,-8.848579376601997,4.362629697073118,-26.244121066136994
-0.446345838779163,-8.377552139185074,2.3459807254949716,-9.111020587263367,6.913424463719377,-24.521376270903758
-0.5301213601710137,-8.30841789454788,2.254870519622338,-9.356234349972404,9.600731503158794,-22.695981251251744
-0.6132055391164926,-8.212410579516291,2.161308176122614,-9.58319416248492,12.44577324096133,-20.728694362767516
-0.6953296449116555,-8.087952847106678,2.0654762344977646,-9.790481106112596,15.466692956216649,-18.57787381967437
-0.7762091733827223,-7.933285917544511,1.9675714234366386,-9.97625984430934,18.674382183982637,-16.204484130625175
-0.8555420325581674,-7.746542095704685,1.8678088249935452,-10.13830468561559,22.06768603554189,-13.57824435694738
-0.9330074535152143,-7.525865235349266,1.7664257781373893,-10.274087129185064,25.62842147090142,-10.684575790330891
-1.008266105868707,-7.269581020640252,1.6636849068455386,-10.380932887088374,29.316957194959844,-7.531634581104856
-1.0809619160751096,-6.976411448690653,1.559875577974655,-10.456249232899422,33.069398728557864,-4.156309456007876
-1.1507260305620162,-6.6457174614050745,1.4553130856456606,-10.497812327459501,36.79756884846638,-0.6277630334189193
-1.217183205176067,-6.277741772920411,1.3503349623710657,-10.50408995779369,40.39281738426523,2.9529169116370895
-1.2799606229052711,-5.873813599077759,1.2452940627931288,-10.47456078867732,43.73412369687052,6.4579460302957825
-1.3386987588960486,-5.436472362109054,1.1405484549063556,-10.40998132837436,46.69999470361971,9.74300122070127
-1.393063482517139,-4.969472415072857,1.036448641622612,-10.312551316167347,49.18253795645508,12.661099260265742
-1.4427582066678677,-4.477647035508306,0.9333231284609385,-10.18594032356469,51.10120141124414,15.077812113673378
-1.4875346770229507,-3.9666350213958643,0.8314637252252916,-10.035162202427957,52.413430804804555,16.884818485492705
-1.5272010272369094,-3.442500713347819,0.7311121032010119,-9.86631401757303,53.1201030067989,18.009048918574578
-1.5616260343703876,-2.9112996832798297,0.6324489630252816,-9.686223528387284,53.264891519165886,18.41577005229221
-1.590739031203186,-2.3786507680881708,0.5355867277414088,-9.502065827864362,52.92823977984131,18.105465349617475
-1.6145255388840676,-1.8493683702897576,0.4405660694627652,-9.321011174368188,52.2178125227856,17.105738678237955
-1.633019222586965,-1.3271902450619018,0.34735595771908334,-9.149953787585808,51.2578092897847,15.460251737859307
-1.646291125037584,-0.8146121521640547,0.25585641984322527,-8.995351270207214,50.179326894632325,13.216769376974536
-1.6544372465592245,-0.31281888321773144,0.16590290714115313,-8.86318357643747,49.113286663717375,10.415887548467978
-1.6575654353914018,0.17831398341944232,0.07727107137677844,-8.75902470095279,48.18662817343979,7.081267842738299
-1.6557822955572075,0.6601802651538402,-0.01031917563274945,-8.688212022525406,47.52176871122867,3.2115044615893624
-1.649180492905669,1.1353979522661268,-0.09720129585800351,-8.656096977909511,47.23882491928545,-1.2266735188249065
-1.6378265133830077,1.6077862014589814,-0.18376226563709863,-8.66836371309776,47.459686141247346,-6.304127252394244
-1.6217486513684178,2.082383062871455,-0.27044590276807623,-8.731404985621703,48.31238500225697,-12.13341768352788
-1.6009248207397033,2.5655069128940244,-0.3577599526242933,-8.852739162456981,49.932594371973714,-18.868364204961892
-1.575269751610763,3.0648328566137617,-0.44628734424886307,-9.041422804506599,52.4548306068714,-26.69000308166288
-1.5446214230446254,3.589381162682476,-0.536701572293929,-9.308322835323228,55.97520729724546,-35.754785461442815
-1.5087276114178005,4.14913323565493,-0.6297848006471612,-9.665870689937655,60.441846980087774,-46.04480771920941
-1.4672362790612512,4.753551705455808,-0.7264435075465379,-10.12631876712975,65.37330115063315,-56.9814621768263
-1.419700762006693,5.40728471696214,-0.8277066952178354,-10.696133388898012,69.215969098976,-66.53662280085528
-1.3656279148370716,6.0994444079519,-0.9346680291068155,-11.361499616906565,68.17379695038099,-69.5985894516548
-1.3046334707575526,6.78118237745571,-1.048283025275881,-12.057485511423113,55.28157486510208,-56.64215129375992
-1.2368216469829956,7.333998126106731,-1.1688578803901122,-12.623907024360713,23.875695938927745,-18.454381701829504
-1.1634816657219282,7.572755085496008,-1.2950969506337193,-12.808450841379008,-19.998312109463182,36.78117389124591
-1.0877541148669683,7.372771964401377,-1.4231814590475094,-12.440639102466548,-53.80725730518228,78.39508038307488
-1.0140263952229545,6.834699391349554,-1.547587850072175,-11.6566882986358,-64.63928612918112,89.21029143522168
-0.9456794013094589,6.188306530057743,-1.664154733058533,-10.764585384283583,-60.49238532844264,80.50390971053613
-0.8837963360088815,5.583382676773317,-1.7718005869013687,-9.959546287178222,-51.888889753199535,66.52794294449677
-0.8279625092411483,5.064493779241321,-1.8713960497731508,-9.294266857733254,-43.55315295674505,53.44329322085209
-0.7773175714487351,4.6289622496738705,-1.9643387183504832,-8.759833925524733,-36.68882037503624,42.65663886820908
-0.7310279489519964,4.262074045923508,-2.0519370576057305,-8.333267536842643,-31.30822276629093,34.03080678226126
-0.6884072084927614,3.9489918182605983,-2.135269732974157,-7.99295946902003,-27.14834105739864,27.110647595074376
-0.6489172903101554,3.677508407686612,-2.215199327664357,-7.721852993069286,-23.939279898134373,21.46669244479516
-0.6121422062332893,3.4381156087052682,-2.29241785759505,-7.507186068621334,-21.4632080055901,16.761992033429085
-0.5777610501462366,3.2234835286493673,-2.3674897182812633,-7.339566148287044,-19.555214043563044,12.746600047996107
-0.545526214859743,3.027931388213737,-2.4408853797641337,-7.2121001478070825,-18.091308377441518,9.239104781813168
-0.5152469009776056,2.8470183044393216,-2.5130063812422043,-7.119709099988951,-16.975680665950588,6.110505723477914
-0.4867767179332124,2.6772614977798157,-2.584203472242094,-7.058604042754172,-16.12965097789566,3.2733345458150835
-0.4600041029554143,2.515964988000859,-2.6547895126696357,-7.025870697296021,-15.482164188954615,0.675795298295723
-0.4348444530754057,2.361143346111313,-2.725048219642596,-7.019112744313064,-14.961219218617302,-1.699931601758151
-0.4112330196142926,2.21153115392514,-2.7952393470857264,-7.0361120603306455,-14.485892243572968,-3.836289228563822
-0.3891177080750412,2.0666722314894104,-2.865600467689033,-7.074474952616284,-13.959307515078203,-5.677438341489097
-0.3684509857601471,1.9270791563386283,-2.936345217215196,-7.131249336031175,-13.26405391432643,-7.1275937828816325
-0.34918019419676083,1.794438617195364,-3.0076577105755073,-7.202525273859991,-12.263103790530248,-8.055152241947246
-0.3312358080248072,1.6718075792900615,-3.079682963314107,-7.283076796279464,-10.81075346345212,-8.308928443437628
-0.31451773223190654,1.5637000446555402,-3.152513731276902,-7.366166080713841,-8.778012427073635,-7.752605322663611
-0.29888073178535113,1.475919920384804,-3.2261753920840404,-7.443692133940477,-6.092818038995061,-6.318124241971245
-0.2841215325815031,1.4149917399948533,-3.300612313423445,-7.506873376360189,-2.7858084366828524,-4.0660439589068975
-0.26997161518155455,1.3871336556280247,-3.375681047187047,-7.547533815949258,0.9797566016411415,-1.2250167008484136
-0.2561002786252743,1.396931221644436,-3.4511563853465392,-7.559783982957742,4.919458105373833,1.8226465293032021
-0.24213096640882992,1.4461258026981745,-3.526754225176117,-7.54155751766471,8.690714144617802,4.621924174162707
-0.22766970838184816,1.5330329441443524,-3.602169800352764,-7.495338275923083,11.986185066464575,6.764351329051166
-0.21233937894040464,1.6528947948089983,-3.677123183111995,-7.427694762632571,14.613727736210395,7.988526942852828
-0.19581043099231465,1.7990320721711022,-3.7514001307383205,-7.347809493204043,16.527316518222236,8.216578620085334
-0.17782011027060363,1.9643052373533245,-3.824878225670361,-7.265643707003189,17.80551159347425,7.523402565880545
-0.15817705789707037,2.142360353288067,-3.897534662740393,-7.190409681344383,18.60129760713577,6.070129715693353
-0.1367534543641897,2.3283733293594246,-3.969438759553837,-7.12970838418745,19.091705626625426,4.038209509829541
-0.11346972107059546,2.5192903856256788,-4.040735843395711,-7.089326289089154,19.44361499307887,1.5844273070494899
-0.08827681721433867,2.7137265355564675,-4.111629106286602,-7.07348201601866,19.798317057314517,-1.1806410286033875
-0.06113955185877399,2.9117097061296127,-4.182363926446789,-7.085288426304693,20.269942855799368,-4.197632484181966
-0.03202245479747787,3.114409134687606,-4.253216810709836,-7.127264751146512,20.95155295351125,-7.455260023219513
-0.0008783634506018059,3.3239246642227185,-4.324489458221302,-7.201817351378708,21.924358853943787,-10.98527654596889
0.03236088319162538,3.543168252762156,-4.396507631735089,-7.311670116838396,23.26768959774027,-14.859125534001082
0.06779256571924694,3.775845148739559,-4.469624332903472,-7.460261372178407,25.06887518967983,-19.18795164310493
0.10555101720664253,4.026533900636357,-4.5442269466252565,-7.652140888609456,27.43298385197284,-24.126483779318384
0.1458163562130061,4.300863739156085,-4.620748355511351,-7.893405726402641,30.49227716251773,-29.88030249993026
0.18882499360456695,4.605786510781263,-4.699682412775378,-8.192208751401944,34.41387631616004,-36.71396801382211
0.23488285871237957,4.949925273942863,-4.781604500289397,-8.559348431540165,39.39974752164238,-44.951674545394944
0.2843821114518082,5.3439227491592876,-4.867197984604799,-9.008865176994115,45.66069084339881,-54.945354981661474
0.33782133894340105,5.800529657593276,-4.957286636374739,-9.55831872681073,53.311971782827854,-66.93847075008692
0.39582663551933384,6.333649375421555,-5.052869823642847,-10.2277034343116,62.04944448221993,-80.63055961897558
0.4591631292735494,6.954143820243754,-5.1551468579859625,-11.034009030501355,70.26500146623313,-93.96759388218256
0.5287045674759869,7.656793834906085,-5.265486948290976,-11.97368496932318,73.02038902713663,-100.34074762288083
0.6052725058250478,8.386997725177451,-5.3852237979842075,-12.977092445551989,59.273599695828956,-84.71250382283927
0.6891424830768222,8.979733722135741,-5.514994722439727,-13.824217483780382,15.665920384202906,-28.79384118992755
0.7789398202981797,9.13639292597777,-5.653236897277531,-14.112155895679658,-48.80097694642625,54.87801387445466
0.8703037495579573,8.648383156513507,-5.7943584562343275,-13.56337575693511,-92.25876769120642,108.87021081643267
0.9567875811230924,7.725795479601443,-5.929992213803678,-12.474673648770784,-97.90773114106857,111.09691381346425
1.0340455359191068,6.746718168190757,-6.054738950291386,-11.363704510636142,-86.29427690242503,90.38471419603121
1.1015127176010142,5.883775399166507,-6.1683759953977475,-10.459857368675829,-73.15091925314233,68.09534588343745
1.1603504715926793,5.152266206635083,-6.272974569084505,-9.778903909841455,-62.79406913967586,49.774122820464896
1.2118731336590303,4.524325515238324,-6.37076360818292,-9.281162681636806,-55.4178885644937,35.43124934650975
1.2571163888114134,3.970146629593387,-6.463575234999288,-8.926850188171708,-50.412787295335136,24.080146313353755
1.2968178551073473,3.4660187566400356,-6.552843736881005,-8.68604872503817,-47.189877889154836,14.82777735179931
1.3314780426737476,2.994119977748487,-6.639704224131387,-8.537770951520177,-45.306664047375975,7.025772115445455
1.3614192424512324,2.541053337274727,-6.725081933646589,-8.467513230365721,-44.44376932545712,0.233026866382958
1.3868297758239796,2.0966156440201558,-6.809757065950246,-8.465182961701892,-44.362535106006256,-5.837704775260863
1.407795932264181,1.6529902929600933,-6.894408895567265,-8.523560009454501,-44.868428270509796,-11.358009064731261
1.424325835193782,1.2043060102549954,-6.97964449566181,-8.637140100101814,-45.782064306929655,-16.406035296903617
1.4363688952963318,0.7464853671856988,-7.066015896662828,-8.80120045307085,-46.91598632472038,-20.977261163070562
1.4438337489681887,0.277325503938495,-7.154027901193536,-9.010973064701556,-48.05619582922867,-24.988822558133855
1.4466070040075736,-0.20323645435379173,-7.244137631840552,-9.260861290282895,-48.9494161188858,-28.28280095914514
1.4445746394640357,-0.6927306155426498,-7.336746244743381,-9.543689299874346,-49.299373268196334,-30.63483500528792
1.4376473333086093,-1.1857243482246131,-7.432183137742125,-9.850037649927225,-48.7773677928961,-31.775396617998787
1.4257900898263631,-1.6734980261535741,-7.530683514241397,-10.167791616107213,-47.05281443042014,-31.43046544547482
1.4090551095648274,-2.1440261704577757,-7.632361430402469,-10.48209627056196,-43.846276993649425,-29.383865986978144
1.3876148478602497,-2.5824889403942697,-7.737182393108088,-10.775934930431742,-38.99918208348955,-25.553558998477637
