th1 (rad),w1 (rad/s),th2 (rad),w2 (rad/s),a1 (rad/s^2),a2 (rad/s^2)
6.117908547869268,1.5466819949293524,2.6667962289921068,0.6930510435696435,-1.4552691356522915,-6.594931822688636
6.133375367818561,1.5321293035728296,2.6737267394278033,0.6271017253427572,-1.682417946863486,-6.7517524584622635
6.14869666085429,1.5153051241041948,2.6799977566812307,0.5595842007581345,-1.9064379347195155,-6.907804532266775
6.163849712095332,1.4962407447569996,2.685593598688812,0.4905061554354668,-2.126341728889554,-7.062040057576233
6.1788121195429015,1.4749773274681042,2.690498660243167,0.4198857548597044,-2.3411191048389877,-7.213406044606638
6.193561892817582,1.4515661364197143,2.6946975177917643,0.347751694413638,-2.5497467580156488,-7.3608593418000225
6.20807755418178,1.4260686688395579,2.698175034735901,0.27414310099563777,-2.751198591445077,-7.503381854320394
6.222338240870175,1.398556682925107,2.7009164657458573,0.1991092824524338,-2.9444563401622608,-7.639995824641722
6.236323807699426,1.3691121195234843,2.7029075585703817,0.12270932420601659,-3.128520329978939,-7.769778833254732
6.250014928894661,1.3378269162236949,2.704134651812442,0.04501153587346926,-3.3024201476762234,-7.891878161588689
6.263393198056898,1.3048027147469325,2.704584767171177,-0.03390724574241763,-3.4652249865019265,-8.005524156465816
6.276441225204367,1.2701504648819133,2.7042456947137525,-0.11396248730707578,-3.6160534262570794,-8.110042247226959
6.289142729853187,1.2339899306193425,2.7031060698406817,-0.19506290977934537,-3.754082412296709,-8.2048632937846
6.301482629159381,1.1964491064963754,2.7011554407428884,-0.2771115427171914,-3.8785552129418757,-8.28953198607851
6.313447120224344,1.1576635543669567,2.6983843253157165,-0.36000686257797654,-3.988788159988266,-8.363713071575837
6.325023755768014,1.117775672767074,2.6947842566899367,-0.44364399329373494,-4.084176011430385,-8.427195255462012
6.336201512495685,1.0769339126527702,2.6903478167569994,-0.5279159458483551,-4.16419581778281,-8.479892695037137
6.3469708516222125,1.0352919544749422,2.685068657298516,-0.6127148727987265,-4.228409221479841,-8.521844091901752
6.357323771166962,0.9930078622601437,2.6789415085705284,-0.697933313717744,-4.276463170329235,-8.553209468677492
6.367253849789564,0.9502432305568513,2.671962175433351,-0.783465408404519,-4.308089078163762,-8.574264797006576
6.3767562820951325,0.9071623397752138,2.664127521349306,-0.8692080563745848,-4.3231005158745575,-8.585394716320783
6.385827905492885,0.8639313346164682,2.6554354407855603,-0.9550620035377926,-4.321389561251867,-8.587083644751974
6.39446721883905,0.8207174390039496,2.645884820750182,-1.0409328399853124,-4.302921974159361,-8.579905631698407
6.4026743932290895,0.777688219262356,2.635475492350329,-1.1267318963022965,-4.267731392676999,-8.564513334025
6.410451275421713,0.735010905335586,2.624208173387306,-1.2123770296425465,-4.215912764725035,-8.541626513767904
6.4178013844750685,0.6928517776883356,2.6120844030908805,-1.2977932947802255,-4.14761523775792,-8.51202045470342
6.4247299022519515,0.6513756253107564,2.599106470143078,-1.3829134993272598,-4.063034726489817,-8.476514679385065
6.431243658505059,0.6107452780458582,2.5852773351498057,-1.4676786461211104,-3.962406365992681,-8.435962319246126
6.437351111285517,0.5711212143859314,2.5706005486885948,-1.5520382693135717,-3.8459970361115055,-8.391240450736149
6.443062323429377,0.5326612440248164,2.555080165995459,-1.635950673820933,-3.714098114560248,-8.343241663234517
6.448388935869625,0.4955202628792139,2.5387206592572498,-1.7193830904532783,-3.5670185821110567,-8.29286707284552
6.453344138498417,0.4598500770581033,2.521526828352717,-1.8023117611817334,-3.4050785658571536,-8.241020943248312
6.457942639268998,0.42579929139953177,2.5035037107408993,-1.8847219706142164,-3.2286033674420294,-8.188607023426732
6.462200632182993,0.3935132577251115,2.484656491034757,-1.9666080408484838,-3.0379179840561323,-8.136526664833166
6.466135764760244,0.36313407788455015,2.4649904106262723,-2.0479733074968154,-2.833342092300964,-8.085678739381674
6.4697671055390895,0.3348006569615405,2.444510677551304,-2.128830094890632,-2.615185429793989,-8.036961346163315
6.4731151121087045,0.3086488026636006,2.4232223766023977,-2.209199708352265,-2.3837434773893906,-7.9912752700045635
6.47620160013534,0.28481136788970673,2.401130379518875,-2.289112461052311,-2.139293316542353,-7.949529139602459
6.479049713814237,0.2634184347242832,2.378239254908352,-2.3686077524483355,-1.8820895117645018,-7.912646227284089
6.48168389816148,0.24459753960663821,2.3545531773838686,-2.4477342147211765,-1.6123598471458869,-7.881572836520139
6.484129873557546,0.22847394113517935,2.3300758352366566,-2.526549943086378,-1.3303007281646884,-7.857288237090715
6.486414612968898,0.21517093385353248,2.3048103358057928,-2.6051228254572854,-1.0360720448894163,-7.840816131109087
6.488566322307433,0.2048102134046383,2.27875910755122,-2.683530986768376,-0.7297912794780357,-7.83323766582566
6.490614424441479,0.19751230060985794,2.2519237976835362,-2.7618633634266327,-0.41152662877474655,-7.835706051199781
6.492589547447578,0.19339703432211047,2.22430516404927,-2.8402204239386304,-0.0812889009328887,-7.849462891684004
6.494523517790799,0.1925841453127816,2.195902959809884,-2.9187150528554704,0.26097806749450403,-7.875856402653753
6.496449359243926,0.19519392598772664,2.166715809281329,-2.997473616882008,0.6154087413921403,-7.9163617526200465
6.498401298503803,0.20134801340164804,2.1367410731125087,-3.0766372344082082,0.982229246914904,-7.972603852884808
6.50041477863782,0.21117030587079708,2.1059747007684266,-3.1563632729370563,1.3617730618897428,-8.046383006417237
6.5025264816965285,0.2247880364896945,2.074411068039056,-3.236827103001229,1.7544993558508437,-8.13970392647843
6.504774362061426,0.24233303004820295,2.042042797009044,-3.318224142266013,2.161014315920042,-8.25480874046483
6.507197692361908,0.26394317320740335,2.008860555586384,-3.4007722296706615,2.5820958057494092,-8.394214700457168
6.509837124093982,0.2897641312648974,1.9748528332896773,-3.484714376675233,3.018721700678496,-8.56075741920402
6.512734765406631,0.31995134827168237,1.940005689522925,-3.570321950867273,3.4721022073711887,-8.75764052076233
6.515934278889349,0.35467237034539423,1.9043024700142521,-3.6578983560748966,3.943716383476575,-8.988492606978523
6.519481002592802,0.39410953418016,1.867723486453503,-3.747783282144682,4.435352876748604,-9.257432339353041
6.523422097934604,0.43846306294764603,1.8302456536320562,-3.8403576055382125,4.949154527431496,-9.569142126382065
6.52780672856408,0.487954608221961,1.7918420775766741,-3.936049026802033,5.487665795943344,-9.928950229323545
6.5326862746462995,0.5428312661813944,1.7524815873086539,-4.035338529095268,6.053880779727748,-10.342919784351244
6.5381145873081135,0.6033700739786719,1.712128202017701,-4.138767726938781,6.651287519536918,-10.817940830901783
6.5441482880479,0.6698829491740411,1.6707405247483134,-4.246947135247798,7.283900786341956,-11.361817167999183
6.55084711753964,0.7427219570374607,1.6282710533958353,-4.36056530692779,7.956269620825416,-11.983332442342775
6.5582743371100145,0.8222846532457149,1.5846654003265574,-4.480398631351218,8.673435963269686,-12.692267135499199
6.566497183642472,0.9090190128784117,1.5398614140130453,-4.607321302706209,9.440804098314008,-13.499316428005017
6.575587373771256,1.0034270538615517,1.4937882009859833,-4.74231446698626,10.263852947916972,-14.415822221014247
6.585621644309872,1.1060655833407214,1.4463650563161208,-4.8864726891964025,11.147577303365875,-15.453170929336157
6.5966823001432795,1.21754135637438,1.3975003294241568,-5.041004398489764,12.095468471087225,-16.621606010875787
6.608857713707024,1.3384960410852522,1.3470902854392592,-5.207220458598521,13.107722153278942,-17.92803594612269
6.622242674117876,1.4695732626180416,1.295018080853274,-5.386500818059749,14.178167698508263,-19.37214992325144
6.636938406744057,1.6113549396031241,1.2411530726726765,-5.580222317292263,15.289122085061589,-20.939745772023336
6.6530519561400885,1.76424616045374,1.1853508494997538,-5.789619775012496,16.4029782275585,-22.591613622725404
6.670694417744626,1.928275942729325,1.1274546517496289,-6.01553591123975,17.44892620253755,-24.245712299801955
6.689977177171919,2.1027652047547005,1.0672992926372313,-6.25799303423777,18.303146095787838,-25.750216037584536
6.7110048292194655,2.285796665712579,1.0047193622948536,-6.5154951946136155,18.762178534044565,-26.846764060834218
6.7338627958765915,2.4734184510530244,0.9395644103487174,-6.783962835221958,18.51445396820697,-27.13033501167875
6.7585969803871215,2.658562990735094,0.8717247819964978,-7.055266185338746,17.128293277496162,-26.030371011342066
6.785182610294473,2.8298459235100553,0.8011721201431103,-7.315569895452167,14.098401959934499,-22.87045935297164
6.8134810695295736,2.9708299431094,0.7280164211885887,-7.544274488981883,9.012778073286045,-17.09170622818951
6.843189368960668,3.0609577238422605,0.6525736762987698,-7.7151915512637785,1.862818546666276,-8.671818159414691
6.8737989461990905,3.079585909308923,0.575421760786132,-7.801909732857926,-6.6494460621508775,1.4597016255138406
6.90459480529218,3.013091448687414,0.4974026634575528,-7.787312716602787,-15.153922907446999,11.484479511917918
6.934725719779054,2.861552219612944,0.4195295362915249,-7.672467921483608,-22.195224959691082,19.491502038679165
6.963341241975184,2.6395999700160333,0.34280485707668884,-7.477552901096816,-26.948967123558603,24.442066250494413
6.989737241675344,2.3701102987804474,0.26802932806572066,-7.233132238591872,-29.440931350762806,26.44504981852681
7.013438344663148,2.075700985272819,0.19569800567980195,-6.968681740406604,-30.220325804407892,26.293847422734412
7.034195354515876,1.7734977272287402,0.1260111882757359,-6.70574326617926,-29.931527837882875,24.88204122252072
7.051930331788163,1.4741824488499113,0.058953755613943296,-6.456922853954053,-29.08186666678056,22.897353271519126
7.0666721562766615,1.1833637821821057,-0.005615472925597234,-6.227949321238862,-27.9974675685666,20.77262081773007
7.078505794098483,0.9033891064964397,-0.06789496613798585,-6.0202231130615615,-26.86133511129242,18.744847904598252
7.087539685163447,0.6347757553835154,-0.12809719726860147,-5.832774634015579,-25.76394284515246,16.927398930722074
7.093887442717283,0.3771363269319908,-0.18642494360875728,-5.663500644708359,-24.74211187471816,15.363841419943611
7.097658805986603,0.1297152081848092,-0.24305995005584086,-5.509862230508922,-23.80381062985088,14.061462636709122
7.0989559580684505,-0.1083228981136996,-0.2981585723609301,-5.369247604141831,-22.94260473292426,13.010254215578614
7.097872729087314,-0.3377489454429422,-0.3518510484023484,-5.239145061986045,-22.14565281278933,12.19300714951292
7.094495239632884,-0.5592054735708355,-0.4042424990222088,-5.1172149904909165,-21.397978431799483,11.59036977696956
7.088903184897176,-0.7731852578888303,-0.45541464892711797,-5.001311292721221,-20.684683443522598,11.183179701114668
7.081171332318288,-0.9800320923240563,-0.5054277618543301,-4.8894794957100745,-19.992054517470994,10.953373465556389
7.071371011395048,-1.1799526374987663,-0.5543225568114308,-4.779945761054511,-19.30808756363451,10.88418618624018
7.05957148502006,-1.3730335131351115,-0.6021220144219759,-4.671103899192109,-18.62271222180894,10.9600228097064
7.045841149888709,-1.5592606353532008,-0.648833053413897,-4.5615036710950445,-17.927864368078616,11.16620267487014
7.030248543535177,-1.7385392790339869,-0.6944480901248474,-4.449841644346343,-17.217481496363845,11.488682308531759
7.012863150744837,-1.9107140939976253,-0.7389465065683108,-4.334954821261025,-16.487456621001648,11.913809644877785
6.993756009804861,-2.0755886602076417,-0.7822960547809211,-4.215816724812247,-15.735565829135448,12.428135106525886
6.973000123202785,-2.2329443184989963,-0.8244542220290436,-4.091535373746988,-14.961374429937827,13.018289873510914
6.950670680017795,-2.3825580627983745,-0.8653695757665135,-3.9613524750118794,-14.166122199825805,13.670933155825823
6.926845099389811,-2.5242192847966325,-0.9049831005166323,-3.824643143453621,-13.35258694615108,14.372765210433352
6.901602906541845,-2.6577451542581434,-0.9432295319511685,-3.6809154913492876,-12.5249260454569,15.110599590624503
6.875025454999263,-2.7829944147127126,-0.9800386868646614,-3.529809495443043,-11.688496895232626,15.871485896167439
6.847195510852136,-2.8998793836650387,-1.015336781819092,-3.3710946364813683,-10.849658823927365,16.642872749399547
6.818196717015486,-3.0083759719043126,-1.0490477281839057,-3.204665908987373,-10.015560602772661,17.41279971165436
6.788112957296442,-3.1085315779320393,-1.0810943872737795,-3.0305379118708293,-9.193919087774551,18.17010632929451
6.757027641517122,-3.200470768809785,-1.1113997663924877,-2.8488368485778843,-8.392795566606983,18.904646448174095
6.725022933829024,-3.284398724475855,-1.1398881348782666,-2.6597903840961434,-7.62037702593872,19.60749635528248
6.692178946584265,-3.360602494735242,-1.166486038719228,-2.4637154205433185,-6.884769762597963,20.271146186020598
6.658572921636913,-3.4294501923612217,-1.191123192924661,-2.2610039586831125,-6.193812536570661,20.889665351692145
6.624278419713301,-3.4913883177269285,-1.2137332325114922,-2.0521073051661913,-5.554915823108765,21.45883445255791
6.589364536536031,-3.5469374759580163,-1.234254305563154,-1.8375189606406122,-4.974932696529938,21.976238179476507
6.553895161776452,-3.596686802923316,-1.2526294951695602,-1.617756578845847,-4.460065511877923,22.441315969050795
6.517928293747218,-3.641287458042095,-1.2688070609580187,-1.393343419155339,-4.015810893349023,22.85536951692293
6.481515419166797,-3.6814455669755852,-1.282740495149572,-1.1647897239861098,-3.646943644347676,23.221528474771187
6.444700963497041,-3.717915003419062,-1.294388392389433,-0.9325744392383979,-3.3575381084877716,23.544677507692338
6.407521813462851,-3.75149038450394,-1.303714136781817,-0.6971276641614745,-3.15102324846089,23.831349060217804
6.370006909617811,-3.7830006169885486,-1.3106854134234318,-0.4588141735592965,-3.030265219840965,24.089586290662936
6.332176903447926,-3.8133032691869584,-1.3152735551590247,-0.21791831065266712,-2.997668332726671,24.328779202448924
6.294043870756056,-3.843279952514225,-1.3174527382655514,0.025369481371822128,-3.0552816593622625,24.5594733762542
6.255611071230914,-3.873832769107848,-1.3171990434518333,0.27096421513436414,-3.204893508983557,24.79314394291499
6.216872743539835,-3.905881704197683,-1.3144894013004895,0.518895654563514,-3.448088448836692,25.04191608062509
6.177813926497858,-3.94036258868605,-1.3093004447548544,0.7693148153697649,-3.7862297135485594,25.318195070169015
6.138410300610998,-3.9782248858215357,-1.3016072966011567,1.022496766071455,-4.220310894306188,25.634140141584687
6.098628051752782,-4.020427994764598,-1.2913823289404422,1.278838167487302,-4.750590408182201,26.000871281988086
6.058423771805137,-4.0679338988464195,-1.2785939472655692,1.5388468803071829,-5.37587402378401,26.427228264504887
6.017744432816673,-4.12169263908426,-1.2632054784624973,1.8031191629522318,-6.092235848041719,26.91779442870151
5.97652750642583,-4.182614997564677,-1.245174286832975,2.072297107239247,-6.890856230203142,27.46973994557762
5.934701356450184,-4.251523559866708,-1.2244513157605825,2.3469945066950233,-7.754498600209129,28.06782040207097
5.892186120851517,-4.329068545868799,-1.2009813706936323,2.627672710715733,-8.65195704425685,28.676601894911858
5.848895435392829,-4.415588116311368,-1.174704643586475,2.9144387296648517,-9.529651693378685,29.228770800412608
5.804739554229715,-4.510884633245155,-1.1455602562898264,3.2067264376689777,-10.299651297049525,29.608535655741402
5.759630707897264,-4.61388114621565,-1.1134929919131367,3.5028117942263917,-10.824317888769846,29.630419542389784
5.713491896435108,-4.722124325103349,-1.0784648739708727,3.7991159896502893,-10.900637495525249,29.017770781184634
5.666270653184075,-4.831130700058601,-1.0404737140743698,4.089293697462136,-10.253831209274914,27.394475380029142
5.617959346183489,-4.93366901215135,-0.9995807770997485,4.363238451262427,-8.560783998676978,24.318668815823703
5.568622656061976,-5.01927685213812,-0.9559483925871242,4.606425139420664,-5.533496685769005,19.400687465671954
5.518429887540595,-5.07461181899581,-0.9098841411929175,4.8004320140773835,-1.0799473400710415,12.529237447511534
5.467683769350637,-5.08541129239652,-0.8618798210521437,4.925724388552499,4.507059766546987,4.135627709564702
5.416829656426671,-5.04034069473105,-0.8126225771666187,4.9670806656481465,10.486522552892662,-4.720110551748927
5.36642624947936,-4.935475469202124,-0.7629517705101372,4.919879560130657,15.885998012822172,-12.657919489250501
5.317071494787339,-4.776615489073902,-0.7137529749088306,4.793300365238152,19.92319381455009,-18.57327878076826
5.269305339896601,-4.577383550928401,-0.6658199712564491,4.607567577430469,22.310970442577776,-22.065967096120445
5.223531504387317,-4.354273846502623,-0.6197442954821444,4.386907906469265,23.232393644117998,-23.402469755705
5.179988765922291,-4.121949910061443,-0.5758752164174518,4.152883208912215,23.10144717188234,-23.176477499690332
5.138769266821677,-3.8909354383426193,-0.5343463843283296,3.9211184339153116,22.33962853502963,-21.992531740190458
5.099859912438251,-3.667539152992323,-0.4951351999891765,3.701193116513407,21.26955141447366,-20.31522974192386
5.063184520908328,-3.4548436388475863,-0.4581232688240424,3.498040819094168,20.100554086273895,-18.448534053336523
5.028636084519852,-3.2538380979848474,-0.42314286063310075,3.313555478560803,18.953070504959456,-16.569991580664176
4.996097703540004,-3.0643073929352527,-0.3900073058474927,3.1478555627541613,17.888629469452212,-14.773053509125058
4.965454629610651,-2.8854210982407307,-0.3585287502199511,3.000125027662911,16.93343411684246,-13.100434082214633
4.9366004186282435,-2.716086757072306,-0.32852749994332203,2.8691206868407644,16.093999141165643,-11.56630668869288
4.90943955105752,-2.5551467656606497,-0.2998362930749144,2.7534576199538354,15.366637948740946,-10.16983116404962
4.8838880834009135,-2.4014803861732403,-0.272301716875376,2.651759308313339,14.742903794438044,-8.902962645167461
4.8598732795391815,-2.25405134822886,-0.24578412379224263,2.5627296818616645,14.212573560575661,-7.754776081953509
4.8373327660568926,-2.111925612623103,-0.22015682697362599,2.4851819210421295,13.765206192540504,-6.713761160052552
4.8162135099306616,-1.974273550697698,-0.1953050077632047,2.418044309441604,13.390899997466207,-5.768969816296818
4.7964707744236845,-1.840364550723036,-0.17112456466878867,2.3603546112786358,13.08061194901341,-4.910531187839642
4.7780671289164545,-1.7095584312329017,-0.1475210185560023,2.3112492994002394,12.826245268559333,-4.129827596971436
4.760971544604126,-1.5812959785473084,-0.12440852556199991,2.269951023430525,12.620620379257291,-3.4194962398743587
4.745158584818653,-1.4550897747547356,-0.10170901532769466,2.2357560610317813,12.457392340730337,-2.773347472248041
4.730607687071106,-1.3305158513474322,-0.07935145471737685,2.208022586309301,12.330948595799445,-2.1862488481180105
4.7173025285576315,-1.2072063653894378,-0.057271228854283845,2.186160097828121,12.236304548237651,-1.6540006659320787
4.705230464903737,-1.0848433199070613,-0.03540962787600264,2.1696200911688,12.169005513175597,-1.1732157815452302
4.6943820317046665,-0.9631532647753053,-0.013713426964314636,2.157887933353348,12.125038729371614,-0.7412093318315612
4.684750499056913,-0.8419028774815891,0.007865452369218845,2.1504758400350323,12.100756575533826,-0.35590020281264084
4.676331470282097,-0.7208953117262509,0.02937021076956917,2.146916838006906,12.092810862933996,-0.015724115063559273
4.669122517164834,-0.5999672030969109,0.050839379149638236,2.1467595968562705,12.09809750369007,0.28044273726780183
4.6631228451338655,-0.4789862280600102,0.07230697511820094,2.1495640242289484,12.113710652013811,0.5333509340180542
