th1 (rad),w1 (rad/s),th2 (rad),w2 (rad/s)
1.3616516460432746,2.8889399411578123,1.785729727172415,2.599077666267912
1.3905410454548528,2.8501405703287888,1.811720503835094,2.5043529782506955
1.4190424511581408,2.80728231624939,1.836764033617601,2.415085113493615
1.4471152743206346,2.760535845947728,1.8609148847525372,2.331287046402201
1.474720632780112,2.7100785202536084,1.8842277552165592,2.2529395897178497
1.501821417982648,2.6560924849131373,1.9067571511137376,2.17999359058125
1.5283823428317793,2.5987630306978637,1.92855708701955,2.1123722946845485
1.554369973138758,2.5382771512678852,1.9496808099663956,2.049973891334558
1.5797527446514368,2.4748222419221757,1.9701805488797413,1.992674233630118
1.6045009670706585,2.408584896881636,1.9901072912160425,1.9403297113743039
1.6285868160394747,2.339749776835888,2.0095105883297855,1.8927802400616738
1.6519843138078336,2.2684985315688815,2.028438390730402,1.8498523176394055
1.6746692991235224,2.195008774026525,2.046936913906796,1.811362092076556
1.6966193868637875,2.119453111759179,2.0650505348275616,1.7771183773495516
1.7178139179813794,2.0419982489550876,2.0828217186010574,1.746925553386482
1.7382339004709302,1.962804177131628,2.1002909741349223,1.7205862867484318
1.7578619422422466,1.8820234749925844,2.1174968370024065,1.6979040131095249
1.7766821769921723,1.7998007381701608,2.134475877133502,1.6786851294982128
1.794680184373874,1.7162721578534328,2.151262728428484,1.662740853215689
1.8118429059524084,1.6315652640455753,2.167890136960641,1.6498887147132952
1.8281585585928641,1.5457988448094566,2.184389024107774,1.6399536628407723
1.8436165470409587,1.4590830477618808,2.2007885607361817,1.6327687721765223
1.8582073775185775,1.371519664617644,2.217116248457947,1.6281755531293136
1.8719225741647538,1.2832025940463698,2.2333980039892403,1.626023875804356
1.8847546001052176,1.194218472680821,2.2496582427472838,1.626171528049774
1.8966967848320258,1.1046474589125401,2.2659199580277813,1.6284834365759646
1.9077432594211512,1.0145641491659938,2.282204792393541,1.6328305876165226
1.917888900912811,0.9240386016462668,2.2985330982697065,1.6390886903942774
1.9271292869292738,0.8331374380828374,2.314923985173649,1.647136632811879
1.9354606613101022,0.7419249897365972,2.331395351501768,1.6568547844166128
1.9428799112074682,0.6504644499444183,2.3479638993459337,1.6681232068270042
1.9493845557069123,0.5588189918709268,2.364645131414204,1.680819836363607
1.9549727456256216,0.4670528071468497,2.3814533297778397,1.6948187073524048
1.9596432736970901,0.3752320190307242,2.3984015168513637,1.7099882870533363
1.9633955938873973,0.28342542306587054,2.4155013997218973,1.7261899938408483
1.966229848118056,0.1917050094120056,2.432763299660306,1.7432769684488945
1.9681468982121761,0.10014622461474634,2.450196069344795,1.7610931630754596
1.9691483604583235,0.008827936972468142,2.4678070009755495,1.7794728042814962
1.9692366398280483,-0.08216792085766156,2.4856017290183643,1.7982402724833317
1.9684149606194716,-0.17275704579149176,2.5035841317431977,1.8172104233426012
1.9666873901615567,-0.2628537932201192,2.521756235976624,1.836189354896399
1.9640588522293554,-0.35237252194531943,2.5401181295255877,1.8549755997948412
1.9605351270099023,-0.4412292179564304,2.558667885523536,1.8733616960445174
1.9561228348303379,-0.529343342192109,2.577401502483981,1.8911360641969306
1.9508294014084169,-0.6166398320206743,2.5963128631259504,1.9080850962646942
1.9446630030882102,-0.7030511746698103,2.615393714088597,1.923995344100702
1.9376324913415122,-0.7885194646396969,2.634633667529604,1.9386556845255316
1.9297472966951152,-0.8729983571607807,2.654020224374859,1.9518593364870482
1.9210173131235075,-0.9564548362700844,2.6735388177397295,1.963405612449514
1.9114527647608066,-1.038870728605921,2.6931728738642247,1.973101301501175
1.9010640574747475,-1.12024391139402,2.7129038868792366,1.980761603845979
1.8898616183608072,-1.2005891836136553,2.7327115029176965,1.9862105631613265
1.8778557265246707,-1.279938790988268,2.7525736085493095,1.9892809720881948
1.865056338614788,-1.3583426162216992,2.7724664182701915,1.98981375415818
1.851472912452571,-1.4358680640255717,2.792364555811773,1.9876568503616552
1.8371142318123153,-1.5125996846310852,2.8122411243153898,1.9826636585350468
1.8219882349660044,-1.5886385888832322,2.83206776090074,1.97469108776994
1.806101849077172,-1.6641017124800748,2.8518146717784396,1.9635972978883032
1.7894608319523713,-1.7391209867420057,2.8714506447573225,1.9492391961504918
1.7720696220849512,-1.813842469136683,2.8909430367188276,1.931469760757482
1.7539311973935845,-1.8884254795117372,2.9102577343264024,1.9101352546904482
1.7350469425984671,-1.96304177852126,2.929359086873307,1.8850723854378222
1.7154165248132545,-2.0378748139252276,2.9482098107276853,1.8561054575918046
1.6950377766740021,-2.113119048988247,2.9667708653036033,1.8230435574013197
1.6739065861841196,-2.1889793755970297,2.9850013008776166,1.7856778021853061
1.6520167924281492,-2.265670603232493,3.00285807889947,1.7437786838553055
1.6293600863958244,-2.343417003652419,3.020295865738023,1.6970935352836878
1.6059259163593003,-2.422451879981485,3.0372668010908597,1.6453441513337759
1.5817013975594854,-2.5030171176671723,3.0537202426041974,1.5882246033692073
1.5566712263828135,-2.585362663176619,3.0696024886378894,1.5253992972230404
1.5308175997510474,-2.6697458641041965,3.08485648161012,1.4565013401015965
1.5041201411100054,-2.7564305913046896,3.099421495011136,1.3811313018108702
1.4765558351969585,-2.8456860496509186,3.113232808029245,1.2988564799855367
1.4480989747004493,-2.9377851691207963,3.1262213728291,1.2092108074231014
1.4187211230092414,-3.0330024525202166,3.138313480903331,1.1116955715892487
1.3883910984840393,-3.131611141021208,3.1494304366192236,1.0057811507544756
1.3570749870738272,-3.233879545151392,3.1594882481267685,0.8909100061826354
1.3247361916223133,-3.3400663789022613,3.168397348188595,0.7665012024255208
1.2913355278332908,-3.4504149310390635,3.17606236021285,0.6319567538629416
1.2568313785229002,-3.5651459142210853,3.1823819277514795,0.4866701093410018
1.2211799193806894,-3.6844488538326496,3.1872486288448894,0.33003708050072866
1.1843354308423628,-3.8084719199084005,3.190548999649897,0.1614694838188791
1.1462507116432787,-3.9373101729879285,3.1921636944880856,-0.019588309142140464
1.1068776099133995,-4.0709922934858,3.191967811396664,-0.2136398452060826
1.0661676869785415,-4.209465997834683,3.1898314129446033,-0.4211142055048944
1.0240730270001945,-4.352582513394961,3.1856202708895545,-0.6423411350340564
0.9805472018662449,-4.500080682417442,3.1791968595392137,-0.8775243726702129
0.9355463950420705,-4.651571479775759,3.170421615812512,-1.12671423300665
0.8890306802443129,-4.806523936652242,3.1591544734824453,-1.3897808748090021
0.8409654408777905,-4.964253629703398,3.1452566647343554,-1.666390045458868
0.7913229045807565,-5.123914981258605,3.128592764279767,-1.9559833519423155
0.7400837547681705,-5.284498576947313,3.1090329307603435,-2.257765201782504
0.6872387689986973,-5.444834505168538,3.0864552787425183,-2.5706984086490956
0.6327904239470119,-5.603602338162752,3.0607482946560274,-2.893510013562509
0.5767544005653844,-5.759347816795183,3.031813194520402,-3.2247081196322034
0.5191609223974326,-5.910505617833867,2.99956611332408,-3.562609518737538
0.46005586621909395,-6.055426858857026,2.9639400181367046,-3.905376708855996
0.3995015976305237,-6.192409345184597,2.924886251048145,-4.251061722611698
0.3375775041786777,-6.3197281061757105,2.882375633822028,-4.59765320259077
0.2743802231169206,-6.43566360702751,2.83639910179612,-4.943122550044565
0.21002358704664553,-6.538525215938932,2.7869678762956744,-5.285464874337424
0.1446383348872562,-6.626668056490156,2.7341132275523004,-5.622730934260043
0.07837165432235463,-6.698502225089053,2.6778859182097,-5.953047251829944
0.011386632071464106,-6.752494404269076,2.618355445691401,-6.274622979358134
-0.056138311971226665,-6.787163035854557,2.5556092158978196,-6.585743749042197
-0.12400994232977224,-6.801069317950808,2.4897517784073977,-6.88475445759934
-0.19202063550928034,-6.792807257087416,2.420904233831404,-7.170034579646319
-0.25994870808015447,-6.760996757994048,2.349203888034941,-7.439971032697195
-0.32755867566009494,-6.704284187014485,2.274804177707969,-7.6929347207461705
-0.3946015175302398,-6.621354902753076,2.197874830500507,-7.927267542273456
-0.4608150665577706,-6.510961780267941,2.1186021550777725,-8.141286709578035
-0.52592468436045,-6.371972608441049,2.037189287981992,-8.333312495264861
-0.5896444104448605,-6.20343726981388,1.9538561630293436,-8.501723786888524
-0.6516787831429993,-6.004672756907103,1.8688389251604585,-8.645042934303955
-0.7117255107120704,-5.775360462246475,1.782388495817419,-8.76204732812983
-0.7694791153345351,-5.515646210209985,1.6947680225361208,-8.85190026858112
-0.824635577436635,-5.226229919369044,1.6062490198503097,-8.91428868989746
-0.8768978766303254,-4.908429596475572,1.5171061329513351,-8.949551295767783
-0.9259821725950811,-4.56420459466416,1.4276106199936573,-8.958778910986037
-0.9716242185417227,-4.196126396071301,1.338022830883797,-8.94387042547336
-1.0135854825024357,-3.807291538881325,1.2485841266290634,-8.907532977612266
-1.051658397891249,-3.4011796822237503,1.1595087968529407,-8.85322335175929
-1.0856701947134866,-2.981468355779157,1.0709765633353479,-8.785037292698597
-1.115484878271278,-2.551822546857942,0.9831261904083619,-8.707562337424127
-1.1410031037398576,-2.11568023616133,0.8960505670341207,-8.625715767537649
-1.162159906101471,-1.676053631586043,0.8097934093587442,-8.544591211621634
-1.1789204424173314,-1.235360715008529,0.7243474972425279,-8.469335340142687
-1.1912740495674168,-0.7952942915910933,0.639654143841101,-8.405071168859346
-1.1992269924833276,-0.35672783719507156,0.5556034321525075,-8.356878473363434
-1.2027942708552783,0.08034935483386002,0.4720346474188732,-8.329836398989132
-1.2019907773069398,0.5168799406711353,0.38873628342898187,-8.329129612899447
-1.1968219779002285,0.9547836115122734,0.30544498729998737,-8.360217457589302
-1.1872741417851058,1.3970132082455717,0.22184281272409434,-8.429064498717665
-1.1733040097026501,1.8476307662854876,0.1375521677369177,-8.542427708605395
-1.1548277020397952,2.3118995015716695,0.05212789065086375,-8.70818352332174
-1.1317087070240786,2.796356021535811,-0.03495394458235365,-8.935641294460773
-1.1037451468087205,3.3087495880670774,-0.12431035752696137,-9.235690387149262
-1.0706576509280497,3.857547963870699,-0.216667261398454,-9.620376860160917
-1.0320821712893427,4.45026937190173,-0.31287103000006317,-10.100901930961443
-0.9875794775703254,5.0889408507744225,-0.4138800493096776,-10.681700259406574
-0.9366900690625811,5.759289764329728,-0.5206970519037433,-11.345869277622649
-0.8790971714192839,6.409252706966311,-0.6341557446799697,-12.0256840379196
-0.8150046443496208,6.921110326746812,-0.7544125850591658,-12.563813931098741
-0.7457935410821527,7.120559998712367,-0.8800507243701532,-12.724788142597468
-0.6745879410950291,6.898682702944494,-1.007298605796128,-12.361504669742125
-0.6056011140655841,6.354819030166133,-1.1309136524935492,-11.60917993238397
-0.5420529237639228,5.702620699984525,-1.247005451817389,-10.753731048446252
-0.48502671676407755,5.083205404477217,-1.3545427623018516,-9.978322525376598
-0.4341946627193054,4.541156926860328,-1.4543259875556176,-9.33546329059824
-0.3887830934507021,4.075909405975944,-1.5476806204616,-8.818947800746544
-0.3480239993909427,3.6744541359387233,-1.6358700984690655,-8.408015738903028
-0.31127945803155543,3.3230116691788205,-1.7199502558580957,-8.082456674888538
-0.2780493413397672,3.0099847523478065,-1.800774822606981,-7.826041119429987
-0.24794949381628917,2.726208539715033,-1.879035233801281,-7.626489800333181
-0.22068740841913884,2.4645442761205563,-1.9553001318046128,-7.474687538412199
-0.19604196565793328,2.219416168572474,-2.0300470071887347,-7.3638930766540875
-0.17384780397220853,1.9864382810158034,-2.1036859379552757,-7.2891019261781596
-0.1539834211620505,1.7621490256097967,-2.1765769572170575,-7.246557295535536
-0.13636193090595253,1.5438401982895775,-2.249042530172413,-7.233369488385686
-0.12092352892305674,1.3294649931177618,-2.3213762250562695,-7.247203816697633
-0.10762887899187913,1.1176133966631616,-2.3938482632232456,-7.286004204840403
-0.09645274502524752,0.9075471246404455,-2.46670830527165,-7.3477276151511495
-0.08737727377884306,0.6992873908795971,-2.5401855814231613,-7.430072868756497
-0.0803843998700471,0.4937457764870131,-2.6144863101107263,-7.530198138951238
-0.07544694210517697,0.292879840848119,-2.6897882915002387,-7.644436792433462
-0.07251814369669578,0.09983988351641918,-2.766232659424573,-7.7680432629411955
-0.07151974486153159,-0.08094761671284706,-2.843913092053985,-7.895028632403467
-0.07232922102866006,-0.2438354144494429,-2.9228633783780196,-8.018173192748183
-0.0747675751731545,-0.3822339910914263,-3.0030451103055014,-8.129315242316242
-0.07858991508406876,-0.4891748524491894,-3.084338262728664,-8.219988668677237
-0.08348166360856066,-0.5581502867896698,-3.1665381494154365,-8.28239672491191
-0.08906316647645736,-0.5841080817294793,-3.2493621166645554,-8.310572211014195
-0.09490424729375216,-0.5643657519567645,-3.3324678387746975,-8.301438129588227
-0.10054790481331981,-0.49916592818375843,-3.41548222007058,-8.25543593040144
-0.1055395640951574,-0.391676728544184,-3.4980365793745944,-8.176494172844926
-0.10945633138059924,-0.247428175959355,-3.5798015211030436,-8.071339679931437
-0.11193061314019279,-0.0733708616254393,-3.660514917902358,-7.948384706501013
-0.11266432175644718,0.12315876507926199,-3.7399987649673685,-7.816532317332497
-0.11143273410565456,0.33531501696970484,-3.8181640881406933,-7.684193205526382
-0.10807958393595751,0.5573260947651941,-3.8950060201959573,-7.558663892333118
-0.10250632298830557,0.784770803613364,-3.9705926591192884,-7.445871721048282
-0.09465861495217193,1.0146146270377032,-4.045051376329771,-7.350403609608636
-0.08451246868179489,1.2450972303288925,-4.118555412425858,-7.275709901079987
-0.07206149637850597,1.475554157240876,-4.191312511436657,-7.224389906514684
-0.05730595480609721,1.7062316541634879,-4.2635564105018045,-7.198496539762036
-0.040243638264462325,1.938129603461316,-4.335541375899425,-7.199827372364024
-0.020862342229849163,2.172889769501176,-4.4075396496230645,-7.230191840258004
0.0008665554651626009,2.412735899003318,-4.479841568025645,-7.291658675384977
0.024993914455195783,2.660467207081927,-4.552758154779495,-7.386795834459077
0.05159858652601505,2.919505299693655,-4.626626113124086,-7.518919348883784
0.0807936395229516,3.1939943635272536,-4.701815306612924,-7.692368637929954
0.11273358315822413,3.4889525262672403,-4.778738992992224,-7.912822685506757
0.14762310842089654,3.8104630489530504,-4.857867219847292,-8.187658189743761
0.18572773891042704,4.1658643925807795,-4.939743801744729,-8.526310516511682
0.22738638283623483,4.5638158172816645,-5.025006906909846,-8.940487082143928
0.2730245410090515,5.013899743832146,-5.114411777731285,-9.443789857465887
0.32316353844737294,5.5248830501570225,-5.208849676305944,-10.049563407513624
0.37841236894894315,6.099503373537949,-5.30934531038108,-10.764043484551872
0.43940740268432266,6.721219128276301,-5.416985745226599,-11.568481407985614
0.5066195939670857,7.32633531647631,-5.532670559306455,-12.380983509729088
0.5798829471318487,7.766379195365919,-5.656480394403745,-13.004458834798342
0.6575467390855079,7.823626903614501,-5.786524982751729,-13.147349870152452
0.7357830081216529,7.387437700916615,-5.917998481453253,-12.665437076924313
0.809657385130819,6.623509280521523,-6.044652852222496,-11.790716507231133
0.8758924779360342,5.792795053278014,-6.162560017294807,-10.877840605565495
0.9338204284688143,5.030452964312067,-6.271338423350462,-10.104556787763766
0.984124958111935,4.36236631121679,-6.3723839912281,-9.50039439257868
1.027748621224103,3.7753389158519997,-6.467387935153886,-9.044295351001985
1.065502010382623,3.2494780663429714,-6.557830888663906,-8.708213702448532
1.0979967910460526,2.767210848337733,-6.644913025688392,-8.468589999489252
1.12566889952943,2.3146664222187434,-6.729598925683284,-8.307644374654469
1.1488155637516173,1.8811927691001045,-6.8126753694298285,-8.212315269471633
1.1676274914426183,1.4586364422227698,-6.894798522124545,-8.172972856063236
1.182213855864846,1.0407645970140704,-6.976528250685178,-8.182360326309965
1.1926215018349868,0.6228756882004121,-7.0583518539482775,-8.234788309690124
1.198850258716991,0.20156982196908557,-7.140699737045178,-8.325522601489798
1.2008659569366817,-0.22535949302078884,-7.223954963060076,-8.450306494970956
1.198612362006474,-0.6589466328325086,-7.3084580280097855,-8.604977798748974
1.192022895678149,-1.099019617437036,-7.394507805997275,-8.785160404759377
1.1810326995037785,-1.54414231481182,-7.482359410044869,-8.986027752137515
1.1655912763556604,-1.9915683507672095,-7.572219687566244,-9.202149886647023
1.1456755928479883,-2.4372455497379963,-7.664241186432714,-9.42744557165536
1.1213031373506084,-2.8759098688099285,-7.758515642149268,-9.655263296476164
1.0925440386625092,-3.301300207292858,-7.8550682751140295,-9.878606685659076
1.0595310365895805,-3.7065068520873004,-7.9538543419706205,-10.090498699845675
1.0224659680687074,-4.084436725344782,-8.054759328969077,-10.284447154541496
0.9816216008152595,-4.428343741099137,-8.157603800514492,-10.454939649179147
0.9373381634042681,-4.732343824394006,-8.262153197006283,-10.597872541381486
0.8900147251603281,-4.991824674632266,-8.368131922420098,-10.710819818507423
0.8400964784140055,-5.203678123976298,-8.475240120605172,-10.79307940471137
0.7880596971742425,-5.366324622203087,-8.583170914652285,-10.845488766757136
0.7343964509522116,-5.47955025023752,-8.691625802319857,-10.870059158477014
0.6796009484498364,-5.54421778322449,-8.800326393904626,-10.869517153855705
0.6241587706175915,-5.561931411772034,-8.909021565443183,-10.846851332463919
0.5685394564998711,-5.5347279163726855,-9.017490078767823,-10.80494332615182
0.5131921773361443,-5.4648433519022,-9.125539512029341,-10.746328302757645
0.4585437438171223,-5.354575211714867,-9.233002795056917,-10.673094570117536
0.40499799169997364,-5.206234884396848,-9.339733740758092,-10.586904901850037
0.35293564285600515,-5.022168497569665,-9.445602789776592,-10.489106600788116
0.3027139578803085,-4.804816399412923,-9.550493855784472,-10.380891901389973
0.25466579388617927,-4.556780901698888,-9.654302774798373,-10.26347205908334
0.2090979848691904,-4.2808763702496675,-9.756937495389206,-10.13823461888043
0.16628922116669373,-3.9801434159772944,-9.85831984157801,-10.006861995981145
0.1264877870069208,-3.6578182016755467,-9.958388461537822,-9.871399357689441
0.08990960499016531,-3.3172572185764615,-10.057102455114716,-9.734269760128955
0.0567370328044007,-2.961825832674991,-10.154445152716006,-9.598243394704296
0.02711877447765079,-2.594764217537409,-10.250427586663049,-9.466374507329476
0.0011711323022766985,-2.2190462689716415,-10.345091331736343,-9.341923282715953
-0.021019330387439715,-1.8372457589973763,-10.438510564563503,-9.22828057601366
-0.03939178797741348,-1.4514200529992525,-10.53079337032364,-9.128911360859307
-0.05390598850740601,-1.0630163395935848,-10.622082483932232,-9.04732920010338
-0.06453615190334186,-0.672799718262287,-10.712555775933266,-8.987110169840067
-0.07126414908596473,-0.28079759535126025,-10.802426877631667,-8.95195155991063
-0.07407212503947734,0.11374883219089688,-10.891946393230773,-8.945779030938791
-0.07293463671756838,0.5124375346253276,-10.98140418354016,-8.972905934864194
-0.0678102613713151,0.9177755008060564,-11.071133242888802,-9.038249834567534
-0.05863250636325454,1.3332770582781615,-11.161515741234478,-9.147612647021433
-0.04529973578047292,1.7635977553502882,-11.252991867704692,-9.30802916375841
-0.02766375822697004,2.2146973562364924,-11.346072159342276,-9.528176134760791
-0.005516784664605114,2.6939882650079365,-11.441353920689883,-9.818790597174983
