th1 (rad),w1 (rad/s),th2 (rad),w2 (rad/s)
4.25733532354812,2.3481307920868555,1.9731622614373665,-1.8894602651220296
4.280816631468989,2.42278135626272,1.9542676587861463,-1.8890907156899832
4.305044445031616,2.5005942175570253,1.9353767516292464,-1.883887908146573
4.330050387207186,2.581892844952596,1.9165378725477806,-1.8735751348379335
4.3558693156567125,2.6669890921504855,1.8978021211994014,-1.8578963321189161
4.382539206578217,2.756168290721227,1.8792231578782121,-1.8366382706123534
4.410100889485429,2.8496694956603115,1.8608567751720886,-1.8096601765611027
4.438597584442032,2.9476601920060155,1.8427601734064776,-1.7769318966651886
4.4680741863620925,3.0502050954494204,1.8249908544398257,-1.7385812601426438
4.498576237316587,3.1572293009255015,1.8076050418383993,-1.69495038634343
4.5301485303258415,3.2684770394103424,1.7906555379749651,-1.6466591929735328
4.562833300719945,3.3834687439553375,1.7741889460452298,-1.5946721917831894
4.596667988159498,3.5014609557665315,1.7582422241273978,-1.5403618675354298
4.631682597717163,3.6214156096456227,1.7428386054520435,-1.4855588223702778
4.667896753813619,3.7419869911005015,1.7279830172283408,-1.4325760777110945
4.705316623724625,3.861535492203489,1.7136572564512298,-1.3841934722427705
4.74393197864666,3.978176424482914,1.6998153217288021,-1.3435892104072662
4.783713742891488,4.089868917269524,1.6863794296247294,-1.3142103821748494
4.824612432064184,4.194544170042252,1.673237325802981,-1.2995830586253918
4.866557873764606,4.290264691857213,1.660241495216727,-1.3030744695160068
4.909460520683178,4.375398227739925,1.647210750521567,-1.327632403224506
4.953214502960577,4.4487840388896105,1.6339344264893219,-1.3755368706576192
4.997702343349474,4.509867196419749,1.6201790577827457,-1.4482027545544678
5.042801015313671,4.55877979243507,1.6056970302372011,-1.5460674674472101
5.088388813238022,4.596356208273591,1.590236355562729,-1.6685847847374908
5.134352375320758,4.6240810143255695,1.5735505077153542,-1.8143278037618553
5.180593185464014,4.643979907385129,1.5554072296777357,-1.9811849942759385
5.227032984537865,4.658473405280033,1.5355953797349764,-2.1666184306085894
5.273617718590665,4.67021771445288,1.5139291954288905,-2.3679460834012906
5.320319895735194,4.681956603877102,1.4902497345948775,-2.5826116192440525
5.367139461773965,4.696403135680456,1.464423618402437,-2.8084140336720904
5.414103493130769,4.716162685318998,1.4363394780657162,-3.043682357725823
5.461265119983959,4.743701106862757,1.4059026544884579,-3.28739392420892
5.508702131052586,4.781355990711929,1.3730287152463687,-3.5392453867944145
5.5565156909597055,4.831385678038922,1.3376362613784245,-3.7996925053269544
5.604829547740095,4.896050115737474,1.299639336325155,-4.069977788634692
5.653790048897469,4.977719246202628,1.2589395584388081,-4.352165539159024
5.7035672413594956,5.079007691836545,1.2154179030472179,-4.649203104621952
5.754357318277861,5.202938297126791,1.1689258720009983,-4.965026408397883
5.806386701249129,5.35314092287431,1.1192756079170194,-5.304727628734073
5.859918110477872,5.534095637367674,1.0662283316296786,-5.674802483973177
5.915259066851548,5.751428401974599,1.0094803067899467,-6.083490459545721
5.972773350871294,6.01225503757506,0.9486454021944895,-6.5412031074718175
6.032895901247045,6.325525200427196,0.8832333711197713,-7.060974703519791
6.096151153251316,6.702186958341302,0.8126236240845733,-7.658688978326099
6.163173022834729,7.1546280993537,0.7360367343013123,-8.35233130527856
6.234719303828267,7.693886812379927,0.6525134212485267,-9.158175910499239
6.311658171952066,8.320792987321699,0.5609316621435343,-10.07856226174972
6.394866101825284,9.0028381527521,0.46014603952603705,-11.06979644440652
6.484894483352805,9.627597606473847,0.34944807508197184,-11.977279843496724
6.581170459417543,9.960431023538742,0.2296752766470046,-12.476483199510492
6.680774769652931,9.752304882795938,0.10491044465189968,-12.223435602798133
6.77829781848089,9.050818521400501,-0.017323911376081663,-11.287640322291388
6.868806003694895,8.18871039015069,-0.13020031459899556,-10.132927778420862
6.950693107596402,7.403215064308517,-0.2315295923832042,-9.087465297800192
7.024725258239488,6.75291883674752,-0.3224042453612061,-8.231262319413421
7.092254446606963,6.2239198891340966,-0.4047168685553403,-7.544733579863009
7.154493645498303,5.78965157787402,-0.4801642043539704,-6.9914331075412
7.212390161277043,5.42702008370105,-0.5500785354293823,-6.540096011937323
7.266660362114054,5.1185081587607915,-0.6154794955487556,-6.167379598603883
7.317845443701662,4.851199952907577,-0.6771532915347944,-5.856437818872388
7.366357443230738,4.615525290175527,-0.7357176697235183,-5.595152090129036
7.412512696132493,4.404271956025399,-0.7916691906248087,-5.374748735381794
7.456555415692748,4.211889725337933,-0.8454166779786266,-5.188820163641275
7.498674312946127,4.0340170876861805,-0.8973048796150394,-5.032644159959186
7.539014483822989,3.867165408705953,-0.9476313212146312,-4.902702688733617
7.577686137910049,3.7085140579078,-0.9966583481019674,-4.796327932617805
7.614771278489127,3.555786063655768,-1.0446216274281455,-4.711425825592119
7.6503291391256845,3.407184542480209,-1.0917358856840667,-4.646243896173781
7.684400984550487,3.261375923514855,-1.1381983246458045,-4.599162953202101
7.717014743785636,3.117507486726254,-1.1841899541778256,-4.568503505385786
7.748189818652898,2.975244500444386,-1.2298749892316834,-4.552349555941447
7.7779422636573425,2.8348072244621356,-1.2753984847910977,-4.548404882060206
7.806290335901964,2.696982340817968,-1.3208825336116998,-4.553908216459929
7.833260159310144,2.563080748839913,-1.3664216157762992,-4.565639373280703
7.858890966798543,2.4348189727557754,-1.4120780095091061,-4.580042141036055
7.883239156526101,2.3141182337795523,-1.4578784309194666,-4.593467351034165
7.9063803388638965,2.2028420013618355,-1.5038131044298082,-4.602503596164838
7.928408758877515,2.102520461557297,-1.5498381403914565,-4.604326544716499
7.949433963493088,2.014124780997006,-1.5958814058386215,-4.5969799368944875
7.969575211303058,1.937944789477755,-1.6418512052075664,-4.579516017664187
7.9889546591978355,1.8735924943278226,-1.6876463653842084,-4.551967104246982
8.007690584141114,1.820115301586894,-1.7331660364266783,-4.515172630182735
8.025891737156984,1.7761750222046457,-1.7783177627285056,-4.4705228076673444
8.04365348737903,1.7402415680173253,-1.8230229908051792,-4.419688271280537
8.061055903059204,1.7107612152589735,-1.8672198735179846,-4.364388906852878
8.078163515211793,1.6862784741091885,-1.9108637625865132,-4.306228510360306
8.095026299952885,1.66550825105749,-1.9539260476901164,-4.246598097863367
8.111681382463459,1.6473661427724402,-1.99639202866875,-4.186636053576558
8.128155043891184,1.6309690500117602,-2.0382583892045156,-4.127227958012523
8.1444647343913,1.6156179695189274,-2.0795306687846407,-4.069029818687554
8.16062091408649,1.600772264726198,-2.1202209669715164,-4.01250215294614
8.176628636733751,1.5860216882796108,-2.160345988500978,-3.9579465923432604
8.192488853616547,1.5710598335640593,-2.1999254544244105,-3.9055402187407715
8.208199451952188,1.5556608151814435,-2.238980856611818,-3.8553653615483015
8.223756060104003,1.5396597799137268,-2.277534510227301,-3.807434168380642
8.23915265790314,1.5229371701326329,-2.3156088519111075,-3.7617081414606877
8.254382029604468,1.5054063308293124,-2.3532259333257146,-3.7181132469803098
8.26943609291276,1.4870039326107762,-2.3904070657955176,-3.676551341398863
8.284306132238868,1.4676826806485128,-2.4271725792095062,-3.6369086458243336
8.298982959045352,1.4474058331797597,-2.4635416656677496,-3.599061917410667
8.31345701737715,1.4261431274705594,-2.499532284841856,-3.56288286116233
8.327718448651856,1.4038677873028864,-2.5351611134534795,-3.5282412207383445
8.341757126524884,1.3805543551361517,-2.570443525660863,-3.495006893762528
8.355562670076246,1.3561771508163694,-2.605393594598488,-3.46305133946384
8.36912444158441,1.330709206688756,-2.6400241079931264,-3.432248484161971
8.382431533651296,1.3041215671910984,-2.674346592834746,-3.402475281482094
8.395472749323208,1.2763828709355873,-2.708371345649567,-3.3736120469712394
8.408236578032563,1.2474591564414828,-2.742107466119279,-3.3455426587285406
8.420711169596977,1.2173138504159782,-2.7755628927065645,-3.318154694711402
8.432884308101137,1.1859079109161745,-2.8087444396536787,-3.2913395617990804
8.444743387210298,1.153200107734351,-2.8416578352716697,-3.2649926600371106
8.456275388287642,1.1191474295769877,-2.874307761872041,-3.2390136165560377
8.46746686258341,1.083705612503652,-2.9066978980376015,-3.21330661646523
8.478303918708447,1.0468297869416379,-2.938830964202254,-3.187780851735977
8.488772216577862,1.008475241557528,-2.9707087727196138,-3.1623511030037954
8.498856968993438,0.9685983014216811,-3.0023322837496518,-3.1369384627447348
8.508542952007655,0.9271573152735739,-3.033701668377099,-3.1114712009324714
8.517814525160391,0.8841137423114533,-3.064816380386424,-3.0858857657099494
8.526655662583506,0.8394333228648767,-3.0956752380435235,-3.0601279016240346
8.535049995812155,0.7930873097433571,-3.1262765170597637,-3.0341538566004114
8.54298086890959,0.7450537283265195,-3.156618055625768,-3.0079316363727258
8.550431406192855,0.6953186241136141,-3.1866973719894953,-2.9814422521351154
8.55738459243399,0.6438772472583187,-3.2165117945108466,-2.9546808947143828
8.563823364906574,0.5907351155825881,-3.2460586034579904,-2.9276579578402813
8.5697307160624,0.5359088918743771,-3.2753351830363933,-2.9003998256687407
8.575089804981143,0.4794270091867028,-3.3043391812930807,-2.8729493372313444
8.57988407507301,0.4213299805421234,-3.333068674665394,-2.8453658444797094
8.584097374878432,0.3616703377891685,-3.3615223331101913,-2.817724792206832
8.587714078256324,0.3005121587271702,-3.3896995810322594,-2.7901167678074743
8.590719199843596,0.23793016168372044,-3.4176007487103344,-2.762645996084219
8.593098501460434,0.1740083713533187,-3.4452272086711764,-2.735428287515892
8.594838585173967,0.1088383869509743,-3.472581491546335,-2.7085884849145425
8.595926969043477,0.04251731104255979,-3.4996673763954806,-2.6822574897140137
8.596352142153902,-0.024854578075949305,-3.526489951292621,-2.6565689813815663
8.596103596373142,-0.09317630860763845,-3.5530556411064365,-2.631655967941793
8.595171833287067,-0.16234873900055816,-3.5793722007858544,-2.607647319461643
8.59354834589706,-0.23227700784571204,-3.605448673980471,-2.584664437968279
8.591225575818603,-0.3028728013831157,-3.631295318360154,-2.5628182066216674
8.588196847804772,-0.37405634496440343,-3.6569235004263705,-2.5422063395561953
8.584456284355127,-0.44575804582438144,-3.6823455638219325,-2.5229112244159846
8.579998703896884,-0.5179197390835611,-3.707574676066092,-2.504998315778247
8.574819506506048,-0.5904955143299564,-3.7326246592238745,-2.4885151031107156
8.568914551362749,-0.6634521239384513,-3.7575098102549815,-2.4734906450003034
8.562280030123365,-0.7367689945466167,-3.7822447167049846,-2.4599356347038457
8.554912340177898,-0.8104378785896348,-3.806844073052023,-2.4478429422001318
8.546807961392002,-0.8844621930076887,-3.8313225024740243,-2.4371885654448264
8.537963339461925,-0.9588560973216429,-3.8556943881284726,-2.4279329181484264
8.528374778488708,-1.0336433638508247,-3.879973717309957,-2.4200223821689746
8.518038344850199,-1.108856089833871,-3.9041739411316465,-2.413391058212646
8.50694978395186,-1.1845332956357584,-3.928307851713773,-2.40796265750901
8.495104450995504,-1.2607194460770568,-3.952387478288863,-2.4036524880759265
8.482497256534733,-1.3374629240751585,-3.9764240031696225,-2.400369500901189
8.469122627293983,-1.4148144779357488,-4.000427698178634,-2.3980183728850797
8.454974482514626,-1.4928256562820255,-4.024407881907485,-2.396501614013564
8.440046225951805,-1.5715472380917286,-4.048372898047621,-2.395721695506821
8.424330753570889,-1.6510276598181184,-4.072330115002689,-2.3955832033436093
8.407820476972708,-1.731311437186445,-4.096285947036125,-2.395995027465114
8.390507362600843,-1.8124375760017712,-4.1202458973107765,-2.3968726010591404
8.372382986840826,-1.8944379641652365,-4.144214623321368,-2.3981402065951603
8.353438607199173,-1.9773357360588577,-4.168196025387319,-2.3997333656931974
8.333665249838585,-2.061143600527419,-4.192193359044251,-2.401601328398424
8.313053813833312,-2.1458621248971386,-4.216209372328235,-2.4037096738769006
8.29159519258434,-2.231477969903334,-4.240246469067004,-2.406043028761974
8.269280412885307,-2.317962074173808,-4.264306899354624,-2.408607901123586
8.246100792143569,-2.4052677921857972,-4.28839297836586,-2.4114356170228834
8.22204811422171,-2.493328996552973,-4.31250733453609,-2.4145853325660367
8.19711482425618,-2.582058164262685,-4.33665318786175,-2.4181470770475335
8.171294242613554,-2.671344477172606,-4.360834658632226,-2.4222447620646546
8.144580797841828,-2.761051979673193,-4.385057106252872,-2.4270390675111613
8.116970278045097,-2.851017850718053,-4.409327496927983,-2.4327300885965437
8.088460099537915,-2.9410508629271805,-4.433654797813949,-2.4395595994687356
8.059049590908643,-3.0309301173134955,-4.458050393808636,-2.4478127602798674
8.028740289735508,-3.120404157052687,-4.482528521411435,-2.457819068048628
7.99753624816498,-3.209190575795041,-4.507106712091922,-2.4699523307150693
7.96544434240703,-3.2969762430216623,-4.531806235399072,-2.4846294324360736
7.932474579976813,-3.383418268260391,-4.556652529723433,-2.502307661095513
7.898640397294209,-3.4681458149331927,-4.581675606334388,-2.5234803909875216
7.863958939144878,-3.5507628509374487,-4.606910410244263,-2.548670958856094
7.828451310635503,-3.6308518854879988,-4.632397119832824,-2.578424642549848
7.792142791780623,-3.7079786906438787,-4.658181366258322,-2.613298748410734
7.755063004874184,-3.781697943964273,-4.68431435374243,-2.6538509323797084
7.717246025434542,-3.8515596611710357,-4.7108528630662265,-2.7006260125037898
7.678730428822831,-3.9171162223741183,-4.737859123191265,-2.7541416645355286
7.63955926659909,-3.9779297420042212,-4.7654005398366195,-2.814873511718078
7.599779969179047,-4.033579501205119,-4.793549274953801,-2.8832402073973236
7.5594441741669955,-4.083669160737077,-4.822381677027774,-2.9595891490849966
7.5186074825596245,-4.1278335076338575,-4.851977568518624,-3.0441834440190165
7.477329147483286,-4.165744560018556,-4.882419402958814,-3.1371906655577777
7.4356717018831,-4.197116955818995,-4.913791309614393,-3.2386738021836585
7.39370053232491,-4.221712671424103,-4.946178047636229,-3.3485846202198344
7.3514834056106695,-4.2393452406628285,-4.979663893838428,-3.466759457533602
7.309089953204041,-4.249883756742183,-5.014331488413764,-3.5929172610781297
7.266591115636619,-4.253257025308533,-5.050260661024545,-3.7266594973486042
7.224058545383534,-4.2494582845404345,-5.087527255998031,-3.8674714183858083
7.18156396253813,-4.23855091164058,-5.1262019701818895,-4.014724067388336
7.139178453421724,-4.220675491928214,-5.166349210855773,-4.1676763620824735
7.0969716985024425,-4.196058537165914,-5.208025974476598,-4.325476602013631
7.055011113130783,-4.165023004228196,-5.2512807404967345,-4.487162809041017
7.0133608830885015,-4.128000581923523,-5.296152368587145,-4.651661433362625
6.972080877269266,-4.085545476753825,-5.342668982920771,-4.817784151900374
6.931225422501728,-4.038349126965828,-5.390846824439775,-4.984222771371453
6.89084193123207,-3.987254894750079,-5.440689052153489,-5.149542650697202
6.850969382284569,-3.9332713173867546,-5.4921844786604614,-5.312175602386255
6.811636669110702,-3.877581940247371,-5.545306234684324,-5.470413933188686
6.772860849708228,-3.821549136827226,-5.60001037401621,-5.622408119856703
6.7346453583399555,-3.7667087223560847,-5.656234455214777,-5.7661715026103355
6.696978271116395,-3.714751740113233,-5.713896170240881,-5.89959613819306
6.659830753715262,-3.66748978230697,-5.772892131622812,-6.0204842908784135
6.623155855892192,-3.6268009105318164,-5.833096974531596,-6.126599555932794
6.586887846786874,-3.5945549757265898,-5.894362970090924,-6.215739890196793
6.550942297029608,-3.572520074137515,-5.9565203689928925,-6.28583161286442
6.515217096288233,-3.562255844519534,-6.019378685121537,-6.335038893243108
6.479594537843038,-3.5650036295969385,-6.082729074053968,-6.3618781585766
6.443944501547069,-3.581586986351603,-6.146347855639734,-6.365322691912995
6.408128631683553,-3.6123372010151584,-6.210001082558864,-6.344881202821611
6.372005259673402,-3.65705627862219,-6.27344989458708,-6.300636647360124
6.335434696887179,-3.71502428863164,-6.336456261060682,-6.233238082233312
6.298284454000863,-3.785050231272905,-6.398788641883015,-6.143847267155084
6.260433951688134,-3.8655579658997667,-6.4602271145545656,-6.034050347037375
6.221778372029137,-3.954693449321739,-6.5205676180249394,-5.905750570773821
6.182231437535919,-4.05043784869359,-6.5796251237326775,-5.761059208137992
6.141727059048983,-4.150712907552099,-6.637235715814057,-5.602198928125921
6.100219929973462,-4.253469038777223,-6.693257705095316,-5.431428536924913
6.057685239585689,-4.3567513984023005,-6.747571990464565,-5.25099215156454
6.0141177256016665,-4.458743364400348,-6.800081911980211,-5.063091145197822
5.969530291957663,-4.557789740757751,-6.850712823432189,-4.869874240196597
5.923952394550086,-4.652403559476237,-6.899411565834154,-4.67343989877924
5.877428358955323,-4.741260853079213,-6.946145964821946,-4.475845200478792
5.830015750424531,-4.823187622276421,-6.9909044168267345,-4.279116135917991
5.781783874201767,-4.897142779270497,-7.033695578185914,-4.085255226168115
5.732812446409062,-4.962200334853171,-7.074548130447595,-3.8962433170023747
5.68319044306053,-5.017533616843193,-7.113510563617619,-3.714033194587918
5.633015106892098,-5.0624038570055445,-7.150650895563498,-3.5405333557351315
5.582391068322043,-5.096154996305147,-7.186056229120849,-3.377580958623765
5.531429518358991,-5.118215938896021,-7.219832038707087,-3.2269038288773353
5.480247358970031,-5.128110649235493,-7.25210107699586,-3.0900725284726045
5.428966252477676,-5.125475403139817,-7.2830018022805865,-2.9684449549714165
5.377711498446278,-5.110081236222752,-7.312686251830301,-2.863107626070838
5.3266106860840505,-5.081858366326521,-7.34131732809101,-2.7748194400715085
5.275792102420786,-5.040918393364176,-7.3690655224917245,-2.703964848640859
5.225382918487144,-4.987569734489476,-7.396105170978133,-2.6505235423858777
5.175507221142249,-4.922322289628217,-7.422610406401992,-2.614062567965795
5.126283998245967,-4.845878795159929,-7.44875103208165,-2.5937542292050555
5.0778252102943675,-4.759112465281682,-7.4746885743737,-2.5884195745342238
5.030234085641551,-4.6630328426894945,-7.500572770119042,-2.596593518003045
4.983603757214656,-4.558743691998702,-7.526538705299073,-2.6166045937284994
4.938016320294669,-4.447397804118849,-7.552704751236358,-2.6466607217735856
4.893542342253481,-4.330153560648266,-7.579171358454094,-2.68493243756481
4.850240806646998,-4.2081371823109235,-7.606020682829742,-2.729626574867269
4.808159434823889,-4.082413128489587,-7.633316948578415,-2.779045808489874
4.767335303538993,-3.9539635591949223,-7.661107406663313,-2.831632072793679
4.727795667947044,-3.823676461175501,-7.68942372739125,-2.885994120834359
4.689558903335289,-3.692341159003867,-7.718283668599594,-2.9409210695617123
4.652635491745251,-3.5606495045572317,-7.747692879295211,-2.9953846289782824
4.617028996699679,-3.4292009826837604,-7.777646725584994,-3.0485329491247937
4.582736986872841,-3.298510161022027,-7.808132055076242,-3.099678827013874
4.549751885262621,-3.169015225317772,-7.839128843346381,-3.148284587414502
4.518061733009444,-3.0410866842822633,-7.870611689220526,-3.193945438704794
4.4876508661666215,-2.915035641350392,-7.902551143607575,-3.236372607946167
4.458500509753118,-2.791121286280599,-7.934914869687036,-3.2753771312730136
4.430589296890312,-2.669557450357165,-7.967668640999766,-3.310854835951188
4.40389372238674,-2.550518200371116,-8.000777189359278,-3.3427727974257886
4.378388540383028,-2.434142529517519,-8.034204917333536,-3.3711573762644345
