th1 (rad),w1 (rad/s),th2 (rad),w2 (rad/s),a1 (rad/s^2),a2 (rad/s^2)
1.9748432376640912,2.5328998733556243,5.489716269785733,-0.9947486303295432,-8.561302009617345,1.3531933130191456
2.0001722363976473,2.4472868532594507,5.479768783482437,-0.9812166971993518,-8.659873614122123,0.8695415543946619
2.024645104930242,2.3606881171182295,5.469956616510443,-0.9725212816554052,-8.73322948821903,0.4529533520444298
2.048251986101424,2.2733558222360393,5.460231403693889,-0.9679917481349609,-8.777914157526789,0.1063884665110045
2.0709855443237846,2.1855766806607715,5.4505514862125395,-0.9669278634698508,-8.791559444749627,-0.1686325262957157
2.092841311130392,2.097661086213275,5.440882207577841,-0.968614188732808,-8.772912251070496,-0.3721019046180414
2.1138179219925246,2.00993196370257,5.431196065690513,-0.9723352077789884,-8.72181520290174,-0.5055167428161115
2.1339172416295504,1.9227138116735527,5.421472713612723,-0.9773903752071496,-8.639141333286457,-0.5717936902632184
2.153144379746286,1.8363223983406882,5.411698809860652,-0.9831083121097818,-8.526687503259733,-0.5751164179439366
2.171507603729693,1.7510555233080909,5.401867726739554,-0.9888594762892211,-8.387034277241874,-0.5207298253532462
2.189018158962774,1.667185180535672,5.391979131976662,-0.9940667745427536,-8.22338215058433,-0.41469793786904974
2.2056900107681305,1.5849513590298288,5.382038464231234,-0.9982137539214441,-8.039375189230546,-0.26364360307856205
2.2215395243584286,1.5045576071375233,5.37205632669202,-1.0008501899522297,-7.838923215328724,-0.07448759458142233
2.236585100429804,1.426168374984236,5.362047824792498,-1.001595065898044,-7.626032733236948,0.14579725428040285
2.2508467841796462,1.3499080476518666,5.352031874133518,-1.0001370933552398,-7.404655035687814,0.39040437431298725
2.264345864656165,1.2758614972949884,5.3420305031999655,-0.9962330496121099,-7.178557642223751,0.6528754995235015
2.2771044796291147,1.204075920872751,5.332068172703845,-0.9897042946168749,-6.951222716696306,0.9272416231354484
2.2891452388378424,1.134563693705788,5.322171129757676,-0.9804318783855205,-6.725773684499797,1.2081217574681173
2.3004908757749,1.0673059568607899,5.3123668109738205,-0.9683506608108393,-6.5049291607155055,1.4907814836264026
2.311163935343508,1.0022566652536349,5.302683304365712,-0.9534428459745753,-6.290981661737856,1.7711555963093026
2.3211865019960443,0.9393468486362563,5.293148875905967,-0.9357312900114823,-6.085797471251964,2.045840627788525
2.3305799704824066,0.8784888739237366,5.283791563005852,-0.915272883733597,-5.890833454953435,2.3120637231053722
2.339364859221644,0.8195805393742023,5.274638834168516,-0.8921522465025433,-5.707166498227007,2.567634362484979
2.347560664615386,0.7625088743919322,5.26571731170349,-0.8664759028776935,-5.535531474978212,2.81088495363003
2.3551857533593052,0.70715355964215,5.257052552674713,-0.8383670533413932,-5.3763641308805115,3.040605520370808
2.362257288955727,0.6533899183333449,5.248668882141299,-0.8079609981376851,-5.229845873791756,3.255976753428424
2.36879118813906,0.6010914595954273,5.240589272159922,-0.7754012306034008,-5.095948118750759,3.456504691890862
2.3748021027350146,0.5501319784079197,5.232835259853888,-0.7408361836844922,-4.974474467975463,3.6419593629395197
2.380303422519094,0.5003872337281651,5.2254268980170435,-0.704416590055097,-4.865099573631594,3.8123188805228896
2.385307294856376,0.45173623799184914,5.218382732116493,-0.6662934012498681,-4.76740400887088,3.967719819961668
2.3898246572362942,0.40406219790314035,5.211719798103994,-0.6266162030502515,-4.680904852591702,4.108414151534672
2.3938652792153254,0.3572531493772233,5.205453636073491,-0.5855320615349048,-4.605081978543301,4.234732623443185
2.3974378107090977,0.3112023295917903,5.199598315458142,-0.543184735300473,-4.539400239684182,4.347054215780319
2.4005498340050155,0.26580832719494846,5.194166468105138,-0.49971419314266974,-4.48332786750413,4.445781120825949
2.403207917276965,0.22097504851990715,5.189169326173711,-0.45525638193441026,-4.436351477677987,4.5313186191922314
2.405417667762164,0.17661153374312727,5.184616762354366,-0.40994319574248794,-4.397988101595939,4.604059195755927
2.4071837830995952,0.13263165272716787,5.180517330396942,-0.36390260378492867,-4.36779466002029,4.664370256465737
2.408510099626867,0.08895370612696496,5.176878304359093,-0.3172589012202713,-4.345375270296493,4.712584852816338
2.4093996366881365,0.045499953424000025,5.17370571534689,-0.2701330526921079,-4.330386740003453,4.7489948840947145
2.4098546362223767,0.002196086023965496,5.171004384819969,-0.22264310385116076,-4.322542553491607,4.773846320415248
2.4098765970826164,-0.04102933951095057,5.168777953781457,-0.17490464064700828,-4.321615607536937,4.787336066540024
2.409466303687507,-0.08424549558631994,5.167028907374987,-0.12703127998160804,-4.32743990103619,4.789610164003395
2.4086238487316436,-0.12751989459668184,5.165758594575171,-0.0791351783415741,-4.339911332880877,4.780763105144203
2.4073486497856766,-0.1709190079254906,5.164967242791755,-0.03132754729013207,-4.358987712645913,4.760838106450907
2.4056394597064217,-0.21450888505194973,5.164653967318853,0.01628083377437701,-4.3846880407006505,4.729828260093035
2.4034943708559022,-0.2583557654589562,5.164816775656597,0.06357911637530736,-4.417091067606876,4.6876785520949245
2.4009108132013126,-0.302526676135025,5.16545256682035,0.1104559018962566,-4.456333096823341,4.634288804007244
2.397885546439962,-0.3470900071032584,5.166557125839312,0.15679878993632904,-4.502604949368201,4.56951766288426
2.3944146463689298,-0.3921160565969404,5.168125113738675,0.20249396656517163,-4.556147963892727,4.493187832441587
2.3904934858029603,-0.43767753623586764,5.170150053404327,0.2474258448895875,-4.617248860561598,4.405092806618035
2.386116710440602,-0.4838500248414836,5.172624311853222,0.29147677295576785,-4.686233252633156,4.305005434930381
2.3812782101921868,-0.5307123573678152,5.17553907958278,0.33452682730507166,-4.76345754674793,4.192688715609738
2.3759710866185086,-0.5783469328352945,5.17888434785583,0.37645371446116904,-4.8492989335950245,4.067909274918864
2.3701876172901555,-0.6268399221712447,5.182648885000442,0.41713280721035767,-4.944143137886852,3.9304540450241725
2.363919218068443,-0.6762813535501132,5.186820213072545,0.4564373476605994,-5.048369574877197,3.7801506920572927
2.3571564045329416,-0.7267650492988852,5.191384586549152,0.49423885458117234,-5.162333556107148,3.6168923618146245
2.3498887540399527,-0.7783883848599567,5.196326975094963,0.5304077781993186,-5.2863452076212,3.4406672913687655
2.342104870191353,-0.8312518369361687,5.201631052876956,0.5648144511130062,-5.42064481947815,3.2515937661409655
2.3337923518219914,-0.8854582851309502,5.207279197388086,0.5973303887744159,-5.565374447712479,3.0499607662355133
2.324937768970682,-0.9411120296080749,5.21325250127583,0.6278299964367711,-5.720545752015817,2.8362744232749333
2.3155266486746013,-0.9983174871282331,5.219530801240198,0.6561927406695204,-5.886004287616948,2.6113100788554005
2.305543473803319,-1.0571775300044026,5.2260927286468934,0.6823058414580744,-6.061390790001426,2.3761692787455435
2.294971698503275,-1.117791437904417,5.232915787061474,0.7060675342455298,-6.2461004040472385,2.132340438856197
2.283793784124231,-1.1802524419448894,5.239976462403929,0.7273909386340918,-6.43924131512745,1.8817611757912798
2.271991259704782,-1.244644855096164,5.24725037179027,0.7462085503920045,-6.639594827128707,1.6268794190933724
2.2595448111538206,-1.311040803367451,5.25471245729419,0.7624773445829383,-6.845579572885306,1.370709450791834
2.246434403120146,-1.379496599096304,5.262337230740019,0.7761844390908565,-7.055223186852466,1.1168780184780747
2.232639437129183,-1.4500488309648287,5.270099075130927,0.7873532192756373,-7.2661453445297965,0.8696547454779715
2.2181389488195347,-1.5227102844101268,5.277972607323684,0.796049766730417,-7.475556480981707,0.6339603582596146
2.2029118459754335,-1.5974658492199438,5.285933104990988,0.8023893703130132,-7.680276625964457,0.41534594162428473
2.186937187483234,-1.6742686154795885,5.293956998694118,0.8065428297292561,-7.876778512990202,0.21993670784943858
2.1701945013284383,-1.7530364006094905,5.302022426991411,0.8087421968077505,-8.061258323625076,0.054334808414406625
2.1526641373223434,-1.8336489838457413,5.310109848959488,0.8092855448918945,-8.229736043319953,-0.07452233870056292
2.134327647483886,-1.9159463442789408,5.3182027044084075,0.8085403215048889,-8.378185423533818,-0.15954884143943535
2.1151681840410963,-1.999728198514279,5.326288107623457,0.8069448330904945,-8.502691049937035,-0.1937391274268944
2.0951709020559535,-2.084755109013649,5.3343575559543615,0.8050074418162255,-8.599627196361713,-0.17043124950531544
2.074323350965817,-2.1707513809772663,5.342407630372524,0.8033031293211723,-8.66585028852666,-0.08359263196622267
2.0526158371560443,-2.257409883862533,5.350440661665735,0.8024672030015101,-8.698894274167227,0.0718880663651216
2.030041738317419,-2.344398826604205,5.358465333695751,0.8031860836651613,-8.697156384647988,0.29992261541871273
2.0065977500513767,-2.431370390450685,5.3664971945324025,0.8061853098193484,-8.660060022794262,0.6029798578082184
1.9822840461468698,-2.5179709906786276,5.374559047630596,0.8122151083974306,-8.588182057435967,0.9818986508768047
1.9571043362400835,-2.6038528112529873,5.38268119871457,0.8220340949061986,-8.483333717787348,1.4357761287409516
1.9310658081275536,-2.6886861484308606,5.3909015396636315,0.8363918561936081,-8.348587442545009,1.9619459263864538
1.904178946643245,-2.772172022856311,5.3992654582255675,0.8560113154574727,-8.188246155460787,2.5560549101711514
1.876457226414682,-2.8540544844109186,5.407825571380142,0.8815718645591841,-8.007756086969545,3.212239755300983
1.8479166815705728,-2.934132045280614,5.416641290025734,0.913694262112194,-7.813568953906801,3.9233971709907665
1.8185753611177666,-3.012267734819682,5.425778232646857,0.9529282338221017,-7.612963571061367,4.681534518795557
1.7884526837695698,-3.088397370530296,5.435307514985078,0.9997435790100573,-7.4138403975781575,5.478181764222411
1.7575687100642667,-3.1625357745060776,5.445304950775178,1.0545253966522814,-7.224504833099347,6.304841767723154
1.725943352319206,-3.234780822837071,5.455850204741701,1.1175738143295129,-7.053456126576882,7.153454274369754
1.6935955440908352,-3.30531538410284,5.467025942884996,1.1891083570732104,-6.909198541606147,8.016849777937715
1.6605423902498069,-3.3744073695189014,5.478917026455728,1.2692768548525875,-6.800090068946685,8.889172643342581
1.6267983165546178,-3.442408270208368,5.491609795004254,1.3581685812860134,-6.734241744641262,9.766258170802077
1.5923742338525342,-3.5097506876547806,5.505191480817114,1.4558311629940341,-6.7194778767821965,10.64595519088185
1.5572767269759864,-3.5769454664226026,5.519749792447055,1.5622907149028527,-6.763364633664982,11.528393693868738
1.5215072723117604,-3.6445791127592524,5.535372699596083,1.67757465184154,-6.87331196493671,12.416205301827226
1.4850614811841678,-3.7133122324086196,5.552148446114498,1.8017367048598123,-7.056752175140981,13.314712552788189
1.4479283588600815,-3.7838797541600293,5.570165813163096,1.9348838303876943,-7.321398063324344,14.232110629673008
1.4100895613184812,-3.8570937347932728,5.589514651466973,2.0772049366844243,-7.675584730160358,15.179672228766512
1.3715186239705484,-3.9338495820948762,5.610286700833817,2.2290016589720896,-8.128702195914446,16.172012897825326
1.3321801281495995,-4.015136604054021,5.632576717423538,2.390721787950343,-8.691731030620076,17.22746079506585
1.2920287621090594,-4.102053914360222,5.656483935303041,2.5629963959010014,-9.37790029948292,18.368581946565524
1.251008222965457,-4.195832917355051,5.682113899262051,2.746682215366657,-10.203496037636011,19.622920040546965
1.2090498937919065,-4.297867877731411,5.709580721415717,2.9429114157721266,-11.188858331665115,21.024018100030663
1.1660712150145924,-4.409756461048063,5.739009835573438,3.153151596772433,-12.35961350839389,22.612795322243503
1.1219736504041118,-4.533352596132001,5.770541351541163,3.3792795499948682,-13.748188815483221,24.4393479523476
1.0766401244427917,-4.670834484286834,5.804334147041112,3.6236730295183444,-15.395635464499781,26.565207850571333
1.0299317795999232,-4.824790838931832,5.840570877336295,3.8893251080240576,-17.35370667129991,29.06597723115737
0.9816838712106049,-4.998327905644831,5.879464128416536,4.179984880335631,-19.68691741526167,32.03394698856868
0.9317005921541566,-5.195197079797447,5.921263977219892,4.500324350221318,-22.473758270084765,35.57952805558893
0.8797486213561821,-5.419934662498295,5.966267220722106,4.856119630777207,-25.804895990955245,39.82844941579525
0.8255492747311992,-5.677983622407847,6.014828417029878,5.254404124935159,-29.773030423859254,44.907248814721434
0.7687694385071208,-5.975713926646439,6.067372458279229,5.7034766130823735,-34.44177252458296,50.89935332376699
0.7090122992406563,-6.320131651892269,6.124407224410053,6.212470146320044,-39.76470923191878,57.73134700391565
0.6458109827217337,-6.717778744211457,6.186531925873253,6.7897836163592,-45.39327762722377,64.9033775796469
0.5786331952796191,-7.1717115204836945,6.254429762036845,7.438817392155669,-50.263692755192,70.909714450096
0.5069160800747822,-7.674348448035614,6.328817935958402,8.147914536656629,-51.864079577908754,72.21061536331051
0.430172595594426,-8.1929892438147,6.410297081324969,8.870020690289733,-45.5331812995597,62.24877949705178
0.348242703156279,-8.648321056810298,6.498997288227867,9.49250848526025,-25.845329549795892,33.3964708255172
0.261759492588176,-8.906774352308258,6.593922373080469,9.826473193515422,6.5117279662284835,-13.384240624555632
0.1726917490650934,-8.841657072645972,6.692187105015623,9.692630787269866,38.11976509396044,-59.25981584504979
0.08427517833863368,-8.460459421706368,6.789113412888322,9.100032628819369,54.222342843658666,-83.51770962074865
-0.000329415878429995,-7.918235993269781,6.880113739176516,8.264855532611882,54.80051722019361,-86.08230687631027
-0.07951177581112781,-7.370230821067845,6.962762294502635,7.40403246384878,48.09496507353709,-78.43661563969438
-0.15321408402180625,-6.889281170332474,7.036802619141123,6.619666307451836,39.913191042122946,-68.6813222210107
-0.22210689572513098,-6.490149259911244,7.102999282215642,5.932853085241729,32.468744905318424,-59.913619609737935
-0.2870083883242434,-6.16546181085806,7.1623278130680585,5.33371688914435,26.248114992035504,-52.82465295537868
-0.348663006432824,-5.902980660937705,7.2156649819595025,4.805470359590563,21.169800187749914,-47.31053419720238
-0.40769281304220106,-5.691282659060206,7.263719685555408,4.33236501761854,17.02555694285286,-43.08527344146988
-0.4646056396328031,-5.521027089631677,7.307043335731594,3.901512283203841,13.615597278298438,-39.86861214947258
-0.5198159105291199,-5.384871116848693,7.346058458563633,3.502826161709115,10.779757633613642,-37.429402110149816
-0.5736646216976068,-5.277073540512556,7.381086720180724,3.128532140607617,8.397665749399039,-35.585920840952205
-0.6264353571027323,-5.1930968830185655,7.4123720415868,2.7726729321980947,6.381555006905805,-34.19600367782862
-0.678366325932918,-5.129281332949508,7.440098770908781,2.4307128954198083,4.668711238081501,-33.146780366155184
-0.7296591392624131,-5.0825942205686925,7.464405899862979,2.0992450917582564,3.2152191587099908,-32.346442005276074
-0.7804850814681,-5.050442028981593,7.485398350780562,1.7757806717054956,1.991093407453631,-31.718269600101095
-0.830989501757916,-5.030531094907056,7.503156157497616,1.4585979757044847,0.9764922778379742,-31.196601714599648
-0.8812948127069865,-5.020766172128677,7.517742137254661,1.1466319585584883,0.15869024481412078,-30.724350258282666
-0.9315024744282733,-5.019179269680535,7.529208456840246,0.8393884559756617,-0.4704378742326356,-30.25171855934965
-0.9816942671250786,-5.023883648422862,7.537602341400003,0.5368712703821652,-0.9165750633152259,-29.735822490651973
-1.0319331036093071,-5.033049399056014,7.542971054103825,0.23951304547564545,-1.184831362477089,-29.14093849070391
-1.0822635975998673,-5.044897712680785,7.545366184558581,-0.05189633943139366,-1.281324636018006,-28.43910686681834
-1.1327125747266753,-5.057710959040965,7.544847221164267,-0.336287408099577,-1.214427050560185,-27.610820050621854
-1.183289684317085,-5.069855229546567,7.541484347083271,-0.6123956086057956,-0.9956119783457764,-26.645540384098293
-1.2339882366125507,-5.079811349330025,7.535360390997213,-0.8788510124467785,-0.6398452744851227,-25.541833258687628
-1.284786350105851,-5.086209802074876,7.526571880872745,-1.1342693450336547,-0.1654999454147472,-24.30697306054549
-1.3356484481265998,-5.087864801529023,7.515229187422409,-1.3773390756391097,0.4061746927785215,-22.95597457899717
-1.38652709614189,-5.083803054601238,7.501455796666018,-1.6068988214290814,1.0519426664558298,-21.510104998649876
-1.4373651266879024,-5.0732836279366795,7.485386808451727,-1.82199987141558,1.7476986306140414,-19.99502050101939
-1.4880979629672693,-5.055806641630539,7.467166809737571,-2.021950076425774,2.469659614902877,-18.43872847269863
-1.5386560293835747,-5.031110045481511,7.446947308973313,-2.2063373611527606,3.195483163579769,-16.869591493355284
-1.5889671298383898,-4.999155213845714,7.424883935361786,-2.3750332760863135,3.905192975273716,-15.314564020033655
-1.638958681976847,-4.960103284092977,7.401133602600923,-2.52817891628665,4.581837475350709,-13.79779806808194
-1.6885597148177767,-4.91428490933947,7.375851813438056,-2.6661568969674696,5.211854991942053,-12.339686389443795
-1.7377025639111714,-4.8621663594200495,7.349190244468382,-2.7895537608619074,5.785161403135052,-10.956346517299684
-1.786324227505372,-4.804314745388699,7.321294706859763,-2.899117226034904,6.29500599716628,-9.659498013941555
-1.8343673749592588,-4.741364685417036,7.292303534599414,-2.9957122061743195,6.737656864684223,-8.4566536506972
-1.8817810218134292,-4.673988116770194,7.262346412537671,-3.0802787426812914,7.1119799491344375,-7.351532840662289
-1.9285209029811312,-4.602868317278849,7.231543625110858,-3.153794071087914,7.418969444765184,-6.344608545078096
-1.9745495861539197,-4.5286786228311975,7.2000056843999785,-3.217240156538695,7.661275590325845,-5.433711677295157
-2.019836372382232,-4.452065866927939,7.167833282834591,-3.271577273311647,7.842762564382185,-4.614634518780966
-2.0643570310515114,-4.373638241284118,7.135117510101475,-3.3177236184994565,7.9681166173712885,-3.8816927846302502
-2.1080934134643527,-4.293957075110405,7.1019402739164805,-3.356540546345759,8.042514161137868,-3.2282221400353546
-2.151032984215457,-4.213531933499026,7.068374868453023,-3.3888227677461127,8.071351779616345,-2.6469979051305756
-2.193168303550447,-4.132818415702863,7.034486640775562,-3.4152927467974186,8.060034934133887,-2.130576100719973
-2.2344964877074758,-4.052218066361524,7.000333713307588,-3.4365985078046184,8.013819105715005,-1.671560188346971
-2.275018668371091,-3.9720798753043742,6.965967728229542,-3.453314109688088,7.937695724682838,-1.2628014393023925
-2.314739467124135,-3.892702918057546,6.931434587132661,-3.465942124081112,7.836314980482314,-0.8975424947713235
-2.3536664963047103,-3.8143397682527227,6.8967751658918495,-3.4749175490288255,7.713938057871202,-0.5695139662151606
-2.3918098939872374,-3.7372003876740107,6.862025990401561,-3.480612688690977,7.574412186188833,-0.2729933733988986
-2.4291818978639776,-3.6614562658121224,6.827219863514651,-3.4833426224249657,7.4211628893568395,-0.002834705351369969
-2.4657964605220988,-3.587244636918554,6.792386437290402,-3.4833709694784796,7.257198838643449,0.24552431813903733
-2.5016689068912843,-3.5146726485321196,6.757552727595617,-3.480915726297089,7.085125651680884,0.4760714376267737
-2.5368156333766056,-3.4438213920153107,6.722743570332646,-3.4761550119208215,6.907165806045871,0.6922408017025832
-2.5712538472967585,-3.374749733954852,6.687982020213438,-3.4692326039037957,6.725182528180616,0.8969419924587504
