th1 (rad),w1 (rad/s),th2 (rad),w2 (rad/s)
5.71063649741235,0.699543673744574,5.392164212655491,2.99586159172278
5.717631934149796,0.7034112053350006,5.422122828572719,3.0699367833640636
5.724666046203145,0.7081065797248238,5.452822196406359,3.141222351494626
5.731747112000393,0.7140672613073986,5.484234419921306,3.209168185674045
5.738887784613468,0.7217610029723603,5.516326101778046,3.273187340990522
5.746105394643191,0.731677451963022,5.549057975187951,3.3326652875023317
5.753422169162821,0.7443169089154398,5.582384628062974,3.3869725756248905
5.760865338251976,0.7601763091402753,5.616254353819223,3.4354808601249913
5.768467101343378,0.779732809840073,5.650609162420473,3.4775818335962665
5.776264429441779,0.8034257308268934,5.685384980756435,3.5127081650641254
5.7842986867500485,0.831637957868956,5.720512062407076,3.540355087243407
5.792615066328738,0.8646782064050804,5.755915613279511,3.5601009182502352
5.801261848392788,0.902765682739047,5.791516622462013,3.5716246384985295
5.810289505220179,0.9460186089372883,5.827232868846998,3.574718748721052
5.819749691309552,0.9944477732515076,5.862980056334209,3.5692960380748926
5.8296941690420665,1.0479557597126474,5.898673016714958,3.5553895500436994
5.840173726639193,1.1063418810058177,5.934226912215395,3.5331458379517047
5.851237145449251,1.1693122042422508,5.969558370594911,3.5028123982544797
5.862930267491674,1.2364935384481877,6.004586494577456,3.464720804984719
5.875295202876155,1.3074499333503269,6.039233702627303,3.4192674325310257
5.888369702209658,1.3817001567017648,6.073426376952614,3.3668937067211986
5.902186703776676,1.458734751645925,6.107095314019825,3.3080675996093722
5.916774051293135,1.538031564656381,6.140175990015919,3.2432676680283072
5.932154366939699,1.619068998668272,6.172608666696203,3.1729704373984258
5.948345056926382,1.7013366104613559,6.204338371070187,3.0976414484703594
5.965358423030995,1.784342981947793,6.23531478555489,3.017729884424426
5.983201852850473,1.8676210234151498,6.265492084399135,2.933666412579792
6.001878063084624,1.9507310077873508,6.294828748524933,2.845863711738744
6.021385373162498,2.0332616994471158,6.32328738564232,2.75471909523927
6.041717990156969,2.114829948095743,6.350834576594713,2.660618653718093
6.062866289637927,2.1950790882093014,6.377440763131894,2.563942401760448
6.084817080520019,2.2736764362551263,6.403080187149498,2.4650699942997516
6.10755384488257,2.350310125167651,6.427730887092495,2.3643866631412425
6.131056946134247,2.4246854684364196,6.451374753723908,2.2622890987478272
6.1553038008186105,2.49652101050908,6.473997644711386,2.159191059983473
6.180269010923701,2.565544399138094,6.495589555311221,2.055528531184628
6.205924454915082,2.63148820983756,6.516144840623067,1.951764260664839
6.232239337013458,2.6940858623602124,6.535662483229715,1.8483915083344513
6.25918019563706,2.7530677924885056,6.55414639831306,1.7459368048518555
6.286710873561945,2.808158076693305,6.571605766361579,1.6449614846039322
6.314792454328878,2.8590717480824313,6.588055381207618,1.546061705999577
6.343383171809703,2.9055130833029876,6.603515998267614,1.4498666240773044
6.372438302642733,2.9471751730120817,6.6180146645083875,1.3570343448145625
6.401910054372854,2.9837411019078695,6.6315850079565335,1.2682452840499336
6.431747465391933,3.0148870446493063,6.644267460797033,1.1841925958634159
6.461896335838426,3.040287517099987,6.656109386755666,1.1055694456472445
6.492299211009426,3.059622896132911,6.667165081212139,1.0330530985379287
6.522895439970755,3.0725891300124983,6.677495612197518,0.9672860813034627
6.55362133127088,3.0789093108928802,6.687168473010552,0.9088550450607327
6.584410424379809,3.0783464931157436,6.696257023461159,0.8582683735860912
6.615193889310966,3.07071685572704,6.704839707197021,0.8159339875231102
6.645901057868236,3.055902079923615,6.712999047072252,0.7821391072211654
6.676460078667472,3.0338597022123936,6.720820438144464,0.7570338682333771
6.706798675689596,3.004630261748491,6.728390776826798,0.7406205619485353
6.736844978307081,2.9683403073790213,6.735796982446283,0.7327498698526673
6.766528381380871,2.9252007468586703,6.74312448114481,0.7331248051465269
6.795780388849458,2.875500544710967,6.7504557291962755,0.741312265362856
6.824535394296568,2.819596312549846,6.757868851849904,0.756761275004645
6.8527313574220665,2.757898785839572,6.76543646459995,0.7788263083780121
6.880310345280463,2.690857464374822,6.77322472768373,0.8067936488143718
6.907218919924211,2.61894477206585,6.781292664171874,0.8399086186092499
6.933408367644869,2.542640974791056,6.789691750357966,0.8774016899518284
6.95883477739278,2.462420832267625,6.798465767257484,0.9185118878021142
6.9834589857154565,2.378742620708449,6.807650886135505,0.9625064168868156
7.007246411922541,2.2920398168988694,6.817275950304373,1.0086959820494672
7.030166810091529,2.202715434870483,6.827362910124868,1.0564457422751026
7.052193964440234,2.111138784239752,6.837927367547619,1.1051821958505368
7.073305352282632,2.017644282924573,6.848979189506124,1.1543965225832524
7.093481795111877,1.9225318981926094,6.860523154731956,1.2036450191473076
7.112707114093803,1.8260687914442038,6.8725596049234285,1.252547280174212
7.130967802008246,1.7284917836752567,6.88508507772517,1.3007827300885735
7.148252719844998,1.63001032180981,6.898092905026056,1.3480860263129133
7.164552823063096,1.5308096966392988,6.9115737652891855,1.3942417551851733
7.17986092002949,1.4310543311140358,6.925516182841037,1.4390787430295477
7.19417146334063,1.3308910174362407,6.939906970271333,1.4824642155871393
7.207480373514992,1.230452030162052,6.954731612427205,1.524297964060116
7.2197848938166125,1.129858079795212,6.969974592067806,1.564506616749658
7.2310834746145645,1.0292210978332337,6.9856196582353025,1.6030380711445877
7.241375685592897,0.9286468611574832,7.001650038946749,1.6398561108676069
7.250662154204472,0.828237472417418,7.018048600055424,1.6749352133500737
7.258944528928645,0.728093714895686,7.034797952188925,1.7082555458363002
7.266225466077603,0.6283172962672955,7.051880507647288,1.7397981479634796
7.272508639040276,0.529012986450527,7.069278489126924,1.7695403077008143
7.277798768904781,0.43029064098237896,7.086973892203932,1.7974511530823682
7.282101675314605,0.33226708358428103,7.104948403734755,1.8234875042222622
7.285424346150448,0.23506780049649,7.1231832787769775,1.8475900576641977
7.287775024155413,0.13882837578982177,7.14165917935362,1.8696800067978743
7.289163307913311,0.043695572848861955,7.160355979421598,1.8896562356300155
7.2896002636418,-0.05017205496929775,7.179252541777898,1.9073932551934913
7.289098543092107,-0.14260415840396018,7.198326474329833,1.9227400774455476
7.287672501508068,-0.23341933217379013,7.217553875104288,1.9355202343240543
7.28533830818633,-0.32242673408092404,7.236909077447529,1.9455331422954827
7.282114040845521,-0.4094286890395844,7.256364408870484,1.9525569776747167
7.278019753955125,-0.4942243319439264,7.275889978647231,1.9563531590605998
7.2730775106356855,-0.5766142659706753,7.295453510237837,1.9566724277814183
7.267311367975979,-0.6564061128837217,7.315020234515651,1.9532623785435228
7.260747306847142,-0.7334207175739595,7.334552858301087,1.9458761316084434
7.253413099671402,-0.8074986547534827,7.354011619617171,1.9342816742946256
7.245338113123867,-0.8785065904206384,7.373354436360117,1.9182712597229732
7.236553047219661,-0.9463429949376874,7.392537148957347,1.8976701633552735
7.227089617270284,-1.0109427056675726,7.411513850590899,1.8723440879203244
7.216980190213608,-1.0722799041619044,7.430237291470102,1.8422045885579554
7.206257391171989,-1.1303692027578764,7.448659337355682,1.807212059498639
7.19495369914441,-1.1852647118060162,7.466731457950669,1.7673760600317134
7.18310105202635,-1.2370571547958213,7.484405218550986,1.7227530247271672
7.170730480478392,-1.285869283002633,7.501632748798258,1.673441657876815
7.157871787648365,-1.3318499854296546,7.518367165377026,1.6195765152915507
7.144553287794069,-1.3751675745727772,7.534562930529942,1.5613204007005794
7.130801612048341,-1.4160027475652341,7.550176134536948,1.4988562392574096
7.1166415845726885,-1.4545416818920949,7.565164696929522,1.4323790446421978
7.102096167753768,-1.49096964071416,7.5794884873759445,1.3620884894417176
7.087186471346626,-1.525465354810496,7.593109372270361,1.2881824475167898
7.071931817798521,-1.558196335551994,7.60599119674553,1.2108517280421434
7.056349854443001,-1.5893151713792153,7.618099714025951,1.1302760845878368
7.040456702729209,-1.6189567784931385,7.62940247487183,1.0466214721404656
7.024267134944277,-1.6472365187538895,7.639868689593234,0.960038445868901
7.007794769756738,-1.6742490635231724,7.649469074051923,0.870661547187469
6.991052279121506,-1.70006786791805,7.658175689523797,0.7786095008089187
6.974051600442325,-1.7247451208748954,7.665961784531886,0.6839860447180743
6.956804149233577,-1.7483120476112994,7.672801644979066,0.5868812267992632
6.939321028757464,-1.770779458168107,7.678670457247059,0.4873730214434863
6.921613234175783,-1.7921384552962119,7.683544187461494,0.385529142310767
6.90369184962282,-1.8123612346021754,7.687399478884601,0.2814089503251757
6.885568237276798,-1.831401928049704,7.690213568387853,0.17506537692183544
6.867254217996301,-1.8491974577996966,7.691964222157072,0.06654680048172648
6.848762243418304,-1.86566838063333,7.69262969016189,-0.044101171598315975
6.830105559611971,-1.8807197138418303,7.692188678445906,-0.15683405157432156
6.811298362473552,-1.8942417416730994,7.690620337930163,-0.2716069789520399
6.792355945056821,-1.9061108074774449,7.687904268140643,-0.3883734095395443
6.773294836982046,-1.9161901008926303,7.684020534045247,-0.5070840048287459
6.75413293597312,-1.924330452035853,7.67894969399696,-0.6276857384267811
6.734889631452761,-1.9303711459744646,7.6726728366126915,-0.7501212351425264
6.715585919993017,-1.9341407709338962,7.665171624261267,-0.874328357840444
6.696244512283678,-1.9354581129372221,7.656428340682862,-1.000240056944247
6.676889931154306,-1.9341331079926933,7.64642594011342,-1.127784497198805
6.657548600074379,-1.9299678606712878,7.635148095141432,-1.256885475718702
6.638248921467666,-1.9227577350584655,7.622579240384245,-1.3874631442437328
6.619021344117081,-1.912292520744701,7.608704608941808,-1.519435046695437
6.599898418909634,-1.8983576728846014,7.593510258474853,-1.652717480418282
6.580914842180787,-1.880735621592486,7.576983083670671,-1.7872271857414659
6.562107485964862,-1.859207142301221,7.559110811813256,-1.9228833635583766
6.54351541454185,-1.8335527755202583,7.5398819781776725,-2.059610014314042
6.525179886786647,-1.8035542821252777,7.519285878034532,-2.1973385838860033
6.507144343965394,-1.7689961194738715,7.497312492195672,-2.3360108920099196
6.4894543827706554,-1.7296669250339618,7.473952383275573,-2.47558230663731
6.472157713520316,-1.6853609988476432,7.4491965602092,-2.6160251121490137
6.455304103531839,-1.6358797853837355,7.42303630908771,-2.7573319995003844
6.4389453056780015,-1.5810333709720452,7.395462989092706,-2.8995195803402876
6.423134971968281,-1.5206420375197451,7.366467793289303,-3.0426317922148454
6.407928551593083,-1.4545379499431268,7.336041475367154,-3.1867430141165842
6.393383172093652,-1.3825671083178268,7.304174045225989,-3.331960644983732
6.379557501010474,-1.3045917725012288,7.270854438776151,-3.478426803800816
6.366511583285462,-1.2204936756031999,7.236070170738143,-3.6263186766468216
6.354306646529429,-1.1301784949395732,7.199806983971675,-3.7758468466156754
6.343004861580034,-1.0335822605444576,7.162048515505519,-3.927250674320029
6.332669038974589,-0.9306806716202437,7.122776008762318,-4.080789420288641
6.323362232258386,-0.8215026834352327,7.081968114559432,-4.236727280519701
6.315147205424034,-0.7061502436006923,7.039600841754235,-4.395309805696118
6.308085702988027,-0.5848267090370838,6.995647743697274,-4.556728267514876
6.3022374358976565,-0.45787724068331365,6.950080461022125,-4.721067438932056
6.297658663490823,-0.3258452470889079,6.902869786632805,-4.888231092475202
6.294400211019934,-0.18954945246810437,6.8539874757080534,-5.057838645867001
6.2925047164952534,-0.050185795262307736,6.803409089249383,-5.229086592569689
6.29200285854263,0.0905440323348572,6.751118223323687,-5.400571194342075
6.292908298865979,0.23028193845216224,6.697112511380266,-5.57007700805897
6.2952111182505,0.36585816363808343,6.6414117412996765,-5.734352852741985
6.298869699886881,0.49317085014743967,6.584068212772257,-5.888926264229941
6.303801408388355,0.6071700492448465,6.525178950129957,-6.028048475822091
6.3098731088808035,0.7020439667057075,6.4648984653717365,-6.1449011397394315
6.316893548547861,0.7717056178708379,6.403449453974342,-6.232198441105253
6.324610604726569,0.8106122797071521,6.341127469563289,-6.283231769756231
6.332716727523641,0.8147973909644637,6.278295151865726,-6.293199991412026
6.3408647014332855,0.7828060617587036,6.215363151951606,-6.260415668004668
6.348692762050873,0.7161428524861018,6.152758995271559,-6.186868249406485
6.355854190575734,0.6189942927260906,6.0908903127774945,-6.077834479390162
6.3620441335029945,0.4973271013292495,6.030111967983593,-5.940680867485838
6.367017404516287,0.35774424139673167,5.970705159308734,-5.78337392545777
6.3705948469302545,0.20650720354144392,5.912871420054156,-5.613237994378299
6.3726599189656685,0.04894304230329344,5.856739040110373,-5.436237911089516
6.373149349388702,-0.11076526699557043,5.802376660999478,-5.256769091723013
6.372041696718746,-0.2695265408679246,5.749808970082248,-5.077783135281159
6.369346431310067,-0.4251621187324288,5.699031138729437,-4.901066031375358
6.365094810122742,-0.5761955237849552,5.650020478415683,-4.727542982305201
6.359332854884893,-0.7216616524830299,5.602745048592631,-4.557546227418338
6.352116238360063,-0.8609539877702359,5.557169586318447,-4.391025046447263
6.3435066984823605,-0.9937110100151445,5.5132593358539745,-4.227699346261515
6.333569588382209,-1.1197358211138966,5.470982342391359,-4.067166780989135
6.32237223017107,-1.2389413007815169,5.4303106745814675,-3.9089747962528927
6.309982817163255,-1.3513137897072112,5.391220926618939,-3.75266751350835
6.296469679266183,-1.4568897069491442,5.353694251483855,-3.5978151279323907
6.281900782196692,-1.5557409337324302,5.317716100204531,-3.4440313917823544
6.266343372859367,-1.6479659797435227,5.2832757862867075,-3.2909830792925243
6.249863713061933,-1.733684849146086,5.250365955493782,-3.138394095632722
6.232526864570472,-1.813036178308109,5.218982014537455,-2.986046025877867
6.214396502787391,-1.8861756809742474,5.189121554278676,-2.8337763291104388
6.195534745977649,-1.953275260640822,5.160783790987572,-2.681474988190618
6.176001993371241,-2.014522374841894,5.133969041105666,-2.5290801661290274
6.1558567696228215,-2.0701193918184404,5.108678239444376,-2.3765732510475255
6.135155575704637,-2.1202827877024557,5.0849125069339,-2.2239735624587156
6.1139527478276126,-2.1652421064323804,5.062672771309313,-2.0713329209224907
6.092300326763289,-2.2052386550178427,5.041959442100088,-1.9187302369052643
6.070247940213111,-2.2405239402073556,5.022772139731035,-1.7662662435644665
6.047842700811038,-2.2713578736712603,5.005109477295391,-1.614058476209458
6.0251291220743255,-2.2980067846772116,4.988968892533296,-1.4622365846057874
6.002149054227553,-2.3207412841690167,4.974346526687238,-1.3109380508706774
5.978941641385863,-2.339834023819878,4.961237146178532,-1.1603043742491987
5.955543301147665,-2.3555573892751127,4.94963410243604,-1.0104777740241493
5.9319877272549135,-2.368181159410423,4.9395293246957985,-0.8615984530784849
5.908305915660809,-2.3779701537982776,4.930913340165014,-0.7138024573199085
5.884526214122826,-2.3851818793417223,4.923775315591815,-0.5672201605290089
5.860674395329409,-2.39006417474013,4.9181031139865246,-0.4219754004567059
5.8367737535820075,-2.39285283856098,4.913883359981957,-0.2781852903603605
5.812845225196398,-2.393769213640001,4.911101507078354,-0.13596073067823786
5.788907533059998,-2.393017687776389,4.909741899771571,0.0045923519727925355
5.764977356182234,-2.3907830587884513,4.9097878232913,0.1433710073212221
5.74106952559435,-2.387227701714922,4.911221533364512,0.2802724698152181
5.7171972485772,-2.382488468412035,4.914024258062664,0.41519053367982994
5.69337236389308,-2.3766732466804665,4.918176163399463,0.5480110554435973
5.6696056314262755,-2.3698571098257872,4.923656273953899,0.6786065517190826
5.6459070603280175,-2.362078001745456,4.93044233947109,0.8068298791694313
5.622286280310563,-2.353331932117355,4.938510638262784,0.9325070218482263
5.59875296098939,-2.3435677074225483,4.947835708481266,1.055429077481501
5.575317283915164,-2.332681304160902,4.958389999256081,1.1753436396823471
5.551990470873555,-2.3205101092413334,4.970143435652904,1.291945929405958
5.528785369781142,-2.3068274167191936,4.983062894946964,1.404870246604211
5.505717095613949,-2.2913377831233155,4.9971115974130065,1.513682596472137
5.4828037177827165,-2.2736740991366564,5.012248423377728,1.617875684779061
5.46006697679135,-2.2533975093496776,5.028427180225519,1.7168678400476138
5.437533001697854,-2.2300015532987105,5.045595858625995,1.8100077361543612
5.415232986164867,-2.2029220246569694,5.063695935987538,1.8965869392046844
5.393203765918297,-2.171553931843733,5.082661805379585,1.975862122742273
5.37148822659986,-2.1352764568876794,5.102420426607008,2.047088099810748
5.350135462030983,-2.0934858430108845,5.122891307605116,2.1095614646886047
5.329200603600874,-2.045634688792635,5.143986922252002,2.1626726187847947
5.308744256712948,-1.9912743637836807,5.16561364843985,2.2059615259347054
5.2888315130751105,-1.9300955896329923,5.187673263699197,2.2391702679069003
5.269530557178781,-1.8619612280237507,5.210064966378266,2.262284153295484
5.250910944898544,-1.786925543713538,5.232687807911221,2.2755535458758134
5.233041689461408,-1.7052359369230876,5.255443343369979,2.2794910785018994
5.215989330092177,-1.6173161121585675,5.278238254154998,2.2748431298083283
5.1998161689705915,-1.5237330890138858,5.300986685453082,2.2625392520019294
5.184578838080452,-1.4251533347956418,5.3236120779731015,2.2436272030512945
5.170327304732496,-1.3222947748856688,5.346048350003614,2.2192032004149835
5.157104356983639,-1.2158812283220106,5.368240382007764,2.190346600388962
5.144945544700419,-1.106604244141495,5.390143848011654,2.158065894835959
5.133879502259004,-0.9950950744458301,5.411724506960013,2.123259701161109
5.123928551514545,-0.8819073363539496,5.432957103971624,2.0866933238497674
5.115109478151006,-0.7675092767195966,5.453824037210122,2.0489891694261804
5.107434385383811,-0.6522836349820457,5.474313928904384,2.0106280348191468
5.10091154903399,-0.5365328257847038,5.494420209252575,1.9719579442064297
5.095546220776143,-0.4204873350014431,5.5141397886946395,1.9332074919958522
5.091341347426129,-0.30431562669248363,5.533471863614598,1.8945012530993908
5.088298191159204,-0.1881343272264866,5.552416876145592,1.8558755086462912
5.086416847886939,-0.07201788363905327,5.570975631232055,1.8172931611075471
5.085696669050549,0.043992760912685835,5.58914856284313,1.7786572121770576
5.086136596659675,0.15988268073899486,5.606935134964901,1.7398225374566176
5.087735423467065,0.27565670974065565,5.624333360339467,1.7006059301629388
5.090491990564471,0.39133435098841807,5.641339419641096,1.660794528628839
5.094405334074356,0.506945739308367,5.657947364927384,1.620152816779472
5.09947479146744,0.6225285201224748,5.674148893095179,1.5784284163387667
5.105700076668665,0.7381255042086802,5.689933177258567,1.5353568920530511
5.1130813317107515,0.8537829643778584,5.705286746179097,1.4906657793354692
5.1216191613545305,0.9695494503887633,5.720193403972452,1.4440780259223316
5.131314655858418,1.085475008903634,5.734634184231675,1.3953150208687226
5.142169405947454,1.2016107035027448,5.748587334440362,1.3440993689591958
5.154185512982481,1.3180083341692739,5.762028328129954,1.290157558601156
5.167365596324174,1.434720255136737,5.774929903715965,1.2332226680767018
5.181712798875542,1.5517991836519218,5.787262130396733,1.1730372599735288
