th1 (rad),w1 (rad/s),th2 (rad),w2 (rad/s)
3.076522879949828,0.37208143401497357,4.550299104635071,-0.7857468929432754
3.080243694289978,0.3641266726164197,4.5424416357056385,-0.6896388336964169
3.083884961016142,0.3552672801762024,4.535545247368674,-0.5934084995105796
3.087437633817904,0.3456366676918852,4.529611162373568,-0.49704548266072957
3.090894000494823,0.33536818974754173,4.52464070754696,-0.4005455662486994
3.0942476823922984,0.32459529420341177,4.520635251884474,-0.3039100883073198
3.0974936353343328,0.3134516356342111,4.517596151001401,-0.20714527907221822
3.100628151690675,0.30207115668114043,4.515524698210679,-0.1102615757230877
3.1036488632574866,0.2905881417364875,4.514422082453448,-0.013272919254085538
3.1065547446748516,0.2791372475322848,4.514289353260907,0.0838039615638874
3.1093461171501744,0.26785351526913687,4.515127392876546,0.18095027391992058
3.112024652302866,0.2568723689116463,4.516936895615745,0.27814588699689785
3.114593375991982,0.2463296042056544,4.519718354485715,0.37537005475449375
3.117056672034039,0.23636137285070494,4.52347205503326,0.47260212980624433
3.119420285762546,0.22710416609675815,4.528198076331322,0.5698222626588432
3.1216913274235134,0.2186948018315554,4.53389629895791,0.667012080528695
3.123878275441829,0.21127041898429302,4.540566419763198,0.7641553399164216
3.1259909796316716,0.2049684827882929,4.548207973162362,0.8612385471019021
3.1280406644595544,0.19992680411210928,4.556820358633381,0.9582515407199033
3.1300399325006754,0.1962835756737269,4.5664028740405795,1.0551880305898378
3.1320027682574128,0.19417742748268607,4.576954754346478,1.1520460870029428
3.1339445425322396,0.1937475032955336,4.588475215216508,1.2488285747148857
3.135882017565195,0.19513355920644046,4.6009635009636565,1.3455435259471773
3.1378333531572595,0.19847608471378037,4.614418936223128,1.442204446758331
3.1398181140043975,0.20391644569351552,4.628840980690711,1.5388305511920244
3.1418572784613326,0.21159704766246298,4.6442292862026315,1.6354469176258661
3.1439732489379573,0.22166151652266042,4.66058375537889,1.7320845617071554
3.146189864103184,0.23425489263842023,4.677904600995961,1.8287804201436222
3.148532413029568,0.24952383260877692,4.696192405197397,1.9255772393875616
3.151027651355656,0.2676168114602055,4.715448177591273,2.0225233628806496
3.153703819470258,0.2886843161994365,4.73567341122008,2.1196724099858684
3.156590662632252,0.31287901973693705,4.7568701353199385,2.217082838999211
3.1597194528296217,0.3403559221228126,4.779040963709931,2.3148173856921326
3.16312301205085,0.3712724438357812,4.802189137566852,2.4129423676825215
3.1668357364892077,0.40578845354416243,4.826318561243678,2.5115268435787703
3.1708936210246494,0.44406621033443205,4.851433829679466,2.610641614318656
3.175334283127994,0.4862701979078645,4.877540245822653,2.7103580524855593
3.1801969851070724,0.5325668257254319,4.904643826347508,2.8107467437098963
3.185522653364327,0.5831239696043033,4.932751293784607,2.9118759226668316
3.19135389306037,0.638110321934871,4.961870053011276,3.013809684813359
3.197734996279719,0.6976945196324592,4.9920081498594095,3.116605954062859
3.2047119414760434,0.7620440163472405,5.023174209400038,3.220314186315516
3.212332381639516,0.8313236645698058,5.055377351263193,3.324972789443046
3.220645618285214,0.9056939733921395,5.088627079157623,3.430606242314297
3.2297025580191354,0.985309009186313,5.122933141580766,3.537221899144394
3.2395556481109984,1.070313909785733,5.158305360572211,3.644806471296823
3.2502587872088555,1.160841988395798,5.194753425285179,3.7533221871330364
3.2618672070928136,1.2570114119624656,5.232286647156509,3.862702642049977
3.2744373212124382,1.3589214506348395,5.270913673577009,3.9728483658821943
3.2880265357187866,1.4666483107700126,5.31064215723583,4.083622153662886
3.3026930188264867,1.5802405840188263,5.351478378772459,4.1948442284203304
3.318495424666675,1.699714369546608,5.3934268210566625,4.30628733099796
3.3354925683621413,1.825048155176388,5.436489694366642,4.417671861146485
3.353743049913905,1.9561775754886939,5.480666412978107,4.528661225082373
3.373304825668792,2.0929901993202567,5.52595302522893,4.638857575370923
3.3942347276619946,2.2353205335462496,5.572341600982639,4.747798156618096
3.4165879329974573,2.382945461526519,5.61981958254882,4.854952491493956
3.4404173876127224,2.535580359331897,5.66836910746376,4.95972065183971
3.465773191206041,2.6928761463593847,5.717966313982157,5.061432854424983
3.492701952669635,2.8544175243974093,5.768580642526407,5.159350595833607
3.521246127913609,3.0197226360744134,5.820174148484743,5.252669492309153
3.5514433542743533,3.188244326415547,5.872700843407835,5.340523916263899
3.583325797538509,3.3593731184170053,5.926106082570474,5.421993422350043
3.6169195287226787,3.5324419165351264,5.980326016793974,5.496110836955259
3.65224394788803,3.7067323359255036,6.035287125163527,5.561871754427772
3.689311271247285,3.8814824294565535,6.090905842707805,5.61824505431756
3.7281260955418505,4.05589546221675,6.147088293250981,5.664183943168349
3.768685050164018,4.2291492806740365,6.203730132682664,5.6986369507575185
3.8109765429707583,4.40040575828994,6.260716502190239,5.720558292759725
3.8549806005536578,4.568819787523279,6.317922085117837,5.7289170650404
3.9006687984288906,4.733547342197577,6.3752112557682405,5.72270486840595
3.9480042718508663,4.893752260191811,6.4324383044523,5.700941677082678
3.9969417944527845,5.04861159214112,6.489447721223127,5.662680049393083
4.0474279103741955,5.197319615976242,6.546074521717058,5.607008113946193
4.099401106533958,5.339090909442523,6.60214460285652,5.5330521176741945
4.152792015628383,5.473163175154547,6.657475124033263,5.43997965287563
4.2075236473799285,5.59880079098657,6.7118749205620185,5.327004941802504
4.263511655289794,5.715300273944495,6.765144969980043,5.1933976972308775
4.320664658029239,5.821998956706484,6.817078946952352,5.03849704160784
4.378884647596304,5.91828814082483,6.86746391736843,4.8617317029469165
4.438067529004552,6.003631770136997,6.9160812343978995,4.662647167603899
4.498103846705923,6.077591232167667,6.962707706073939,4.440939631746109
4.558879759027599,6.139856232840989,7.0071171023914,4.196495462290717
4.620278321356009,6.190280821561842,7.049082057014307,3.9294335161183915
4.682181129571628,6.2289226381780445,7.088376392175491,3.6401462091189547
4.744470355953409,6.256082438594116,7.124777854266681,3.329333894025772
4.80703118033935,6.272340120045188,7.158071193206939,2.9980261911901858
4.869754581539802,6.278583038533588,7.188051455118841,2.6475837415907373
4.932540411925137,6.276022612144318,7.214527292534749,2.2796746863930415
4.99530063804658,6.266196183717339,7.237324039398679,1.896222133928882
5.057962599883754,6.250952877927799,7.2562862607379675,1.4993218081174802
5.120472128663032,6.232424542620315,7.271279478819142,1.0911325367014384
5.182796374089235,6.212985441982167,7.282190804186157,0.6737455391185693
5.2449262285090565,6.195206698947133,7.288928259577342,0.24904082633258312
5.306878295498528,6.181813130208585,7.291418667840668,-0.18146022821654179
5.368696426800614,6.175650821203836,7.289604065558503,-0.6167382698208919
5.430452935012653,6.179673560610945,7.2834366828602946,-1.056410421590995
5.4922496706187625,6.196955369522975,7.272872578644384,-1.5008552740932577
5.554219224313992,6.2307352570261685,7.2578640259034515,-1.951332788864967
5.616526576884254,6.284499432519184,7.238350698014802,-2.410108258991899
5.679371571209446,6.362105670275679,7.214249615424883,-2.8805932608529714
5.742992627912202,6.467953896831964,7.185443682816353,-3.3675182111026376
5.807672166880522,6.607204536200965,7.151768500705327,-3.8771481760243014
5.873744212242531,6.786036705402288,7.112997018945084,-4.41753934910906
5.941604579296555,7.011909214562244,7.068821625453993,-4.998790755754015
6.011723671442177,7.293706236125628,7.018833717896453,-5.6331296405293125
6.0846607338034335,7.641436294272248,6.96250242149116,-6.3343678112895985
6.161075096746156,8.064617443940472,6.899158743378264,-7.115513496925401
6.241721271185561,8.567229708298987,6.82800360840901,-7.981567995802926
6.327393568268551,9.134690850671788,6.748187928450981,-8.911139227540193
6.418740476775269,9.706257629385165,6.659076536175578,-9.817641845210655
6.515803053069121,10.137510283378907,6.560900117723472,-10.496725995958533
6.61717815590291,10.214964813734166,6.455932857763886,-10.647299480756372
6.719327804040252,9.829908606270276,6.349459862956323,-10.116559286833445
6.817626890102955,9.146782402217598,6.248294270087988,-9.136820038108626
6.90909471412513,8.424169203500139,6.156926069706902,-8.073766975423018
6.9933364061601315,7.794736331169208,6.076188399952672,-7.116947946979501
7.071283769471823,7.28227107448415,6.005018920482877,-6.302844263443947
7.1441064802166645,6.8722978005504185,5.941990477848438,-5.613516093437876
7.212829458222169,6.5444151495529095,5.885855316914059,-5.022011080586941
7.278273609717698,6.2810843156469325,5.835635206108189,-4.504891831807705
7.341084452874167,6.0687945659243665,5.790586287790112,-4.044064582135314
7.401772398533411,5.897406575947939,5.750145641968759,-3.626013240991864
7.460746464292891,5.759287179357111,5.71388550955884,-3.2407077854154935
7.518339336086462,5.648596464808515,5.681478431704685,-2.880703710007915
7.574825300734547,5.560760435735207,5.652671394604606,-2.5404866004418256
7.630432905091899,5.492092628297132,5.627266528600187,-2.216014166863296
7.68535383137487,5.4395241567687,5.6051063869315545,-1.9043993301907483
7.7397490729425575,5.400411234093208,5.586062393629647,-1.6036888365123851
7.79375318528349,5.372399024224066,5.570025505264523,-1.312703754263321
7.84747717552573,5.353328052737317,5.55689846772189,-1.030917441076325
7.901010456053104,5.341174305771902,5.5465892933111265,-0.7583533187829574
7.954422199110823,5.334017055241465,5.539005760123297,-0.49548995017723363
8.007762369663238,5.330029830392015,5.534050860621525,-0.24316524709018555
8.061062667967159,5.327490231157906,5.531619208150623,-0.0024756231177466836
8.114337570278737,5.324803859614577,5.531594451919446,0.225330338094701
8.167585608874882,5.320536964853409,5.533847755300393,0.4389607700910514
8.220790978523416,5.313451883763902,5.538237363001303,0.6371864458621321
8.273925497361056,5.302539372680985,5.544609227459925,0.8189367890400834
8.326950891087865,5.287042660871903,5.552798595350326,0.983379022120354
8.379821317696583,5.266469497490791,5.562632385571529,1.129974887136583
8.432486012671491,5.240590378596943,5.573932134442895,1.2585118138020321
8.48489191645746,5.209423164879318,5.586517252580915,1.369108331032058
8.536986148106253,5.173206052987133,5.600208335891236,1.4621962862165208
8.588718208636125,5.132362061162903,5.614830298753401,1.5384845346752336
8.640041829247755,5.087458714697587,5.630215144100154,1.5989099073167967
8.690916416394732,5.039166516120707,5.6462042431733215,1.6445814380199488
8.741308081555939,4.988219223562707,5.662650057553521,1.6767232199150872
8.791190273791566,4.935378149814528,5.6794172897526725,1.6966201539371644
8.84054405528971,4.881401830321069,5.696383491292044,1.705569553887772
8.889358073592922,4.8270216336222544,5.7134391868309224,1.7048403200340758
8.937628289929144,4.772923281356529,5.730487590031263,1.6956403397544586
8.98535752274271,4.719733829761271,5.747443993428807,1.6790919852566042
9.032554861040323,4.668013425182136,5.764234913281373,1.6562150566693028
9.079234995292143,4.618251046962021,5.780797063848066,1.6279162266743366
9.125417505761764,4.570863451157947,5.797076226114809,1.5949839265936396
9.171126140273342,4.526196590247332,5.813026065380746,1.5580876187864956
9.216388106175815,4.4845288775189855,5.828606941568611,1.5177804793133198
9.261233394951004,4.446075769090717,5.843784746361744,1.4745046320515571
9.30569415264191,4.410995238096403,5.85852979268226,1.4285982057311553
9.349804105022875,4.3793938071932175,5.872815774739571,1.3803036128521091
9.393598043094807,4.351332883995798,5.886618810868092,1.3297765652766518
9.437111371934765,4.326835208825224,5.899916576520859,1.2770954413748599
9.480379724023019,4.305891276214543,5.912687530934607,1.2222707029054867
9.523438636785164,4.28846563257024,5.924910237963663,1.165254127046581
9.566323293110866,4.274502984084783,5.936562779234128,1.1059476717536998
9.609068322951714,4.2639340732090565,5.947622255951665,1.0442118328719079
9.651707663683805,4.256681300339888,5.958064374280384,0.9798733811672122
9.694274476687204,4.252664081280884,5.967863108092056,0.9127323885757187
9.736801117500013,4.251803941746265,5.976990431977812,0.8425684672214175
9.779319156917476,4.254029358809952,5.985416116650026,0.769146153645675
9.821859450505576,4.2592803667642,5.993107578186483,0.6922193755159608
9.864452254173218,4.267512952273822,6.000029771941643,0.6115349398815336
9.907127383695956,4.278703271865411,6.006145121340458,0.5268349815826877
9.94991441641461,4.292851734503075,6.011413471156285,0.4378583081394063
9.99284293375964,4.309987004069041,6.015792054237679,0.3443405734176873
10.03594280380033,4.330169991773834,6.019235459971855,0.24601320625062
10.079244503718067,4.3534979276728745,6.021695592034361,0.142601011159489
10.122779482994796,4.380108624444223,6.023121602145956,0.033818345041342804
10.166580569239239,4.410185076417473,6.023459785596369,-0.08063624574108978
10.210682420003414,4.443960573827175,6.022653423138959,-0.2010870715391358
10.255122025741686,4.481724558085813,6.020642552423567,-0.3278902125332822
10.299939271322545,4.52382950079007,6.017363650298234,-0.4614445382952116
10.345177566330445,4.570699160207056,6.012749204915282,-0.6022051498118094
10.390884557932516,4.622838658088066,6.006727153417164,-0.7506996628467655
10.437112944513396,4.680846931816274,5.999220156788696,-0.9075478872607772
10.48392141383156,4.745432258000441,5.9901446779160885,-1.0734856324861206
10.531375736411563,4.817431719749398,5.9794098215912275,-1.2493935908577254
10.579550053609058,4.89783570520821,5.96691588568265,-1.4363325200069301
10.62852841066114,4.987818776867468,5.952552560482581,-1.6355862536032837
10.678406598429815,5.088778518808783,5.936196697946548,-1.848714378800123
10.729294383617903,5.202384188092778,5.917709554158547,-2.077616626530031
10.781318225498831,5.330637003861022,5.896933387893247,-2.3246108810461745
10.834624595537441,5.475943321087726,5.873687279082786,-2.5925256657600384
10.889384028748319,5.641199891097956,5.847762022425186,-2.884804753073351
10.945796027659298,5.8298849900752225,5.8189139748944525,-3.2056134295565784
11.004094877560052,6.046136190226794,5.786857840598887,-3.5599169365514265
11.06455623946232,6.294765826784293,5.751258671233373,-3.953458777940374
11.127503897730163,6.581099434031366,5.711724083453969,-4.392472664540016
11.193314892070477,6.910381755046041,5.667799356808569,-4.882762275601528
11.262418709620938,7.286211487208748,5.618971734052554,-5.427382756560538
11.335280824493026,7.706966923566252,5.564697906486948,-6.021456439979028
11.412350493728688,8.1586082633955,5.504483342087158,-6.641853003357583
11.493936576362643,8.602823423649784,5.438064812053582,-7.230314538892411
11.57996481059914,8.965451982969066,5.365761666664659,-7.677092041696456
11.66961933042883,9.146331420153379,5.288990746247694,-7.835128983676623
11.761082644630363,9.07762497118293,5.210639456410927,-7.603205493551226
11.851858894342193,8.793197559307288,5.134607401475415,-7.025173588046499
11.939790869935266,8.40635852735958,5.06435566559495,-6.259633979390114
12.02385445520886,8.01949097084183,5.001759325801048,-5.452179778054143
12.104049364917278,7.683348036378734,4.947237528020507,-4.676644696280504
12.180882845281065,7.411246489425987,4.9004710810577015,-3.954041689844563
12.254995310175325,7.200041824134299,4.860930664159256,-3.2817967977832936
12.326995728416668,7.041593110063445,4.828112696181424,-2.6500066431319835
12.397411659517301,6.927253065342272,4.801612629750104,-2.0480020960318357
12.466684190170724,6.849220878680616,4.781132608789786,-1.4665050425315367
12.53517639895753,6.800733099799232,4.766467558364471,-0.8981284209400783
12.603183729955523,6.775889942424425,4.75748627415507,-0.3373366031178212
12.670942629379768,6.769406724373733,4.754112908123892,0.21972855758033683
12.738636696623505,6.7763871637942135,4.756310193699695,0.7754256427904427
12.806400568261447,6.792146524046161,4.7640644501275995,1.3307656199779134
12.874322033501908,6.812089686577355,4.777372106327379,1.8855422811603577
12.942442930367681,6.8316421947651955,4.796227529138982,2.4384552407412725
13.010759352315333,6.846230089717953,4.820612081546395,2.9872396631050346
13.079221653212512,6.851303079913931,4.850484478177446,3.528813122594843
13.14773468401165,6.8423941795814445,4.885772609403395,4.0594446872780106
13.216158625807465,6.815207463143706,4.926367056276175,4.5749457696082425
13.284310700438901,6.765724447333873,4.972116513972257,5.070877514425276
13.35196794491224,6.6903192426129445,5.02282528911651,5.542766281569723
13.41887113733837,6.585873161222871,5.078252951932208,5.986317513661313
13.484729868950598,6.449880724387806,5.1381161270688205,6.397618805812344
13.549228676194476,6.280540493523285,5.202092315126944,6.773324654622942
13.612034081129709,6.076825323522695,5.269825561673173,7.110817244215315
13.672802334364937,5.838527179640374,5.340933734115326,7.408338933456658
13.73118760616134,5.566271659567484,5.415017123449892,7.665092509362665
13.786850322757015,5.261497325086987,5.491668048543518,7.881305047087016
13.839465296007885,4.92639560643179,5.570481099014389,8.05825113827426
13.888729252072203,4.563809024142135,5.651063610397132,8.198232228567829
13.934367342313625,4.177088960167197,5.73304593268281,8.304511454780236
13.976138231915296,3.7699187522991497,5.816091047230612,8.381207670739036
14.013837419438287,3.346112471412649,5.899903123938003,8.433157565220313
14.047298544152413,2.909403119139512,5.984234699590206,8.465759694314347
14.076392575343808,2.463235119973506,6.06889229653335,8.484817630204992
14.101024926543543,2.0105744444910094,6.1537404728354,8.496400451023638
14.121130670988453,1.5537458160976305,6.238704477345636,8.506737333512921
14.13666812914943,1.0943011906245237,6.323771850680766,8.5221595746972
14.147611141055675,0.6329183809586335,6.408993446427738,8.549098775035482
14.153940324865262,0.1693247611369983,6.4944844341780925,8.594144739747904
14.155633572476631,-0.29776000693899424,6.580425881575572,8.664160537708442
14.152655972407242,-0.7706640683677128,6.667067486952656,8.766442777921956
14.144949331723565,-1.2527742838016656,6.754731914731876,8.908896298510845
14.132421588885547,-1.7484725986593446,6.843820877716984,9.100149797083702
14.114936862898954,-2.2628777933199222,6.934822375687822,9.349441098916275
14.092308084965754,-2.801110352236498,7.028316786676984,9.665882260217845
14.06429698144339,-3.3664633033410016,7.124975609279162,10.056253809981587
14.030632348409979,-3.956250491296777,7.225538147378979,10.519621378043446
13.99106984349701,-4.553349267801975,7.330734361159413,11.035981809985099
13.94553635081899,-5.112079317220629,7.441094179259264,11.546909327742398
13.894415557646784,-5.544638925218045,7.556563272536688,11.93651071738603
13.838969168394604,-5.735389012770492,7.675928379710548,12.050076329790677
13.781615278266898,-5.615527927978079,7.796429143008455,11.795202477326649
13.725459998987118,-5.24103320488762,7.9143811677817215,11.24678869721838
13.673049666938242,-4.748841147175217,8.026849054753905,10.585698743977416
13.62556125546649,-4.249007120715088,8.132706042193679,9.953215932550387
13.583071184259339,-3.790775814201506,8.232238201519182,9.408291980463027
13.545163426117323,-3.385161465746151,8.326321121323813,8.96010069278788
13.511311811459862,-3.0279612729558845,8.415922128251692,8.599352469340252
13.481032198730302,-2.7109057801925225,8.501915652945094,8.312894631177153
13.453923140928378,-2.425706607110467,8.585044599256866,8.088692971169245
13.429666074857273,-2.1651927538628044,8.665931528968558,7.917012357977553
