th1 (rad),w1 (rad/s),th2 (rad),w2 (rad/s)
4.88391917508923,1.4417716532890694,5.975377668358511,3.0423802215848887
4.898336891622121,1.5928742403195912,6.00580147057436,2.983939657284698
4.914265634025316,1.7430880809349667,6.035640867147207,2.9209433663988795
4.931696514834666,1.8923343889523359,6.064850300811196,2.8527500916141526
4.950619858724189,2.040526331442551,6.093377801727338,2.7787384017949797
4.971025122038615,2.187574987532146,6.121165185745288,2.698309052213829
4.992900871913936,2.3333958875005223,6.148148276267427,2.6108873717027294
5.0162348307889415,2.4779160921468666,6.174257149984454,2.5159255258723396
5.04101399171041,2.6210817629092356,6.199416405243177,2.412904474339548
5.0672248093395025,2.7628661620506403,6.223545449986572,2.3013354166367375
5.094853470960009,2.903278010750151,6.246558804152939,2.1807605075920224
5.1238862510675105,3.042370121860761,6.268366409228859,2.0507526209138165
5.154309952286118,3.1802482131763803,6.288873935437997,1.9109139531109838
5.186112434417882,3.3170797945680315,6.307983074969107,1.7608732940128153
5.219283232363562,3.453103004256395,6.325591807909235,1.600281852885141
5.253814262406126,3.588635238050805,6.341594626438086,1.4288076325744754
5.289700614786635,3.724081357023177,6.3558827027638305,1.246128507435149
5.326941428356866,3.8599411509153616,6.368343987838182,1.0519244150063845
5.36554083986602,3.996815538872135,6.378863231988246,0.8458694670890214
5.405508995254741,4.135410644424457,6.387321926659136,0.6276254056801375
5.446863101698986,4.276538288947158,6.393598180715937,0.39683880753780026
5.489628484588457,4.421110449049621,6.397566568791315,0.15314599387802838
5.533839589078953,4.5701235709314085,6.399098028730095,-0.10380793142815273
5.579540824788268,4.7246259531429295,6.3980599494158135,-0.37432559540892363
5.626787084319697,4.885657163338113,6.394316693461724,-0.6585730447740707
5.6756436559530785,5.054141977099449,6.387730963013984,-0.9564291179258587
5.726185075724073,5.230712055178751,6.378166671834725,-1.2672301202565834
5.77849219627586,5.415416877223385,6.365494370632159,-1.5893554270211816
5.832646365048094,5.607274859249389,6.349600816361947,-1.9195857750324272
5.8887191136405885,5.803617846983457,6.330404958611623,-2.2521712572408785
5.946755292110423,5.999226173068551,6.307883246039214,-2.577611693787985
6.006747553841109,6.185391440301185,6.282107129101334,-2.8813551134734743
6.068601468244121,6.349341947911222,6.253293577966599,-3.143047252676065
6.132094887723233,6.474882406304675,6.221863105439839,-3.337558131145187
6.19684371178628,6.54525517699539,6.188487524128387,-3.4392257329510043
6.262296263556234,6.548322666149484,6.154095266798877,-3.4294468169622134
6.327779490217728,6.481912449795022,6.119800798629255,-3.3045025701982866
6.392598614715679,6.355534135014801,6.086755772927272,-3.0781530899737324
6.456153956065827,6.186693397192078,6.055974242027534,-2.77639956139452
6.518020890037747,5.994444393375501,6.028210246413589,-2.4281504612010045
6.577965333971503,5.794392177386169,6.0039287418015785,-2.0578506351811034
6.635909255745364,5.596905982024002,5.983350235449768,-1.6826846275466805
6.691878315565604,5.407654496891946,5.966523389174301,-1.3131582948204334
6.745954860534523,5.228967513619002,5.953391806226097,-0.9549398667915218
6.798244535670713,5.061122070994884,5.943842407558182,-0.6106534243063283
6.848855756380662,4.903269016224269,5.937735873315119,-0.2811926327096241
6.897888446542904,4.754017071436217,5.934923946988023,0.03344080353847029
6.945428617257266,4.6117725914670915,5.935258355023407,0.3336452295264392
6.991546343171938,4.474925958416223,5.938594807318672,0.619949152221968
7.0362956027561,4.34194826509354,5.9447942988408915,0.8928742699450223
7.079715085407035,4.211437878247216,5.953723041540342,1.1528748424916222
7.121829464189507,4.082139995527233,5.965251789965258,1.400319503765774
7.16265086414478,3.952952140932542,5.979254985002916,1.6354957960179246
7.202180385554105,3.822922591479058,5.995609942963095,1.8586261130765396
7.240409611468896,3.691245354276036,6.01419620409386,2.0698885957453963
7.277322065011656,3.557253450329716,6.0348950900513145,2.269439293694591
7.312894599514953,3.4204112650239127,6.05758948298826,2.4574334886008424
7.3470987121651925,3.2803062202553774,6.082163817874268,2.634044985113728
7.379901774367746,3.1366397943038113,6.108504267725405,2.799482717141746
7.411268172310784,2.989217839236176,6.1364990948968225,2.95400435364805
7.441160350703146,2.8379401506279702,6.166039138433303,3.097926812088601
7.469539752209426,2.6827892888072715,6.1970184065541885,3.2316337475626264
7.496367645097498,2.5238187098170544,6.229334744029814,3.3555802064458167
7.521605832195669,2.3611403229915515,6.2628905460942725,3.470294726325259
7.545217235425585,2.1949116418253167,6.2975934933575255,3.5763792340646288
7.567166351843838,2.0253227312166024,6.333357285698172,3.6745071419818314
7.587419579156004,1.85258317577041,6.37010235711799,3.7654200681170558
7.605945410913708,1.6769093016672714,6.407756557799161,3.8499236095613156
7.62271450393038,1.4985118817844632,6.446255793894774,3.928882576672988
7.637699622748225,1.317584545470777,6.485544619661503,4.003216049047973
7.6508754682029325,1.134293107947896,6.525576780151983,4.073892538342359
7.662218399282412,0.9487660396195043,6.566315705535406,4.141925432927096
7.671706059678606,0.761086325870898,6.607734959864677,4.208368744880096
7.679316922937315,0.571285041307648,6.649818647313478,4.274312963811854
7.685029773350392,0.37933710397789405,6.692561776951597,4.340880516276519
7.688823144390171,0.1851599205767855,6.735970582114362,4.409219889553837
7.690674743595939,-0.011383966436249976,6.7800627810099,4.48049683678338
7.690560903931576,-0.21047849364078855,6.824867749377734,4.555880138226998
7.688456118995169,-0.4123372718010646,6.870426550760004,4.6365180152242695
7.684332746277158,-0.617174298715267,6.916791730912247,4.723499310215646
7.678161003290005,-0.825156199698766,6.964026724014404,4.817790789287301
7.669909441293017,-1.0363275057938592,7.012204631907276,4.920138333469166
7.659546166235078,-1.2504976667211936,7.061406015241968,5.030915687917091
7.647041189567866,-1.4670763505046815,7.111715172121139,5.149901154630368
7.63237042606282,-1.6848446334680849,7.163214183667443,5.275963616346175
7.615521979728139,-1.9016592635034297,7.2159738198309045,5.406651963769097
7.596505387093105,-2.1141144838847334,7.270040339468595,5.537719236565616
7.575364242254257,-2.3172423050384516,7.325417531834251,5.662690681862263
7.552191819203872,-2.5044205767888608,7.382044438652874,5.77270821852319
7.527147613435984,-2.6677466729822603,7.4397715208381054,5.857008741303378
7.500470146706162,-2.79912302190629,7.498341608251139,5.904381860984741
7.472478916487099,-2.8920440078814935,7.557385426860987,5.90560187389234
7.443558476408285,-2.943555003572997,7.61644144559991,5.856113314331331
7.4141229263725545,-2.955421716444949,7.675002578743223,5.757650029746585
7.384568709208105,-2.9337622329329744,7.732579079040689,5.617759895969806
7.355231086878776,-2.887299733495984,7.788756678000387,5.447451826307151
7.326358089543816,-2.825201020914617,7.843231196263458,5.258286856304932
7.298106079334669,-2.755459044259838,7.895814064826507,5.060218033597673
7.270551488892071,-2.6841706409279786,7.946416245162484,4.860647757591713
7.243709782482791,-2.615522760400452,7.995022722738401,4.664438310830836
7.217554554878787,-2.552133870727604,8.04166710584671,4.474390949213427
7.192033216171511,-2.4954799345499707,8.086411015338843,4.29182741474499
7.167078416826012,-2.446269511904328,8.129329289486293,4.11709408714372
7.142615721706969,-2.4047272414175525,8.17050023035773,3.9499375405529857
7.118568449292794,-2.3707904197067147,8.20999960576326,3.7897608352723484
7.0948605450957265,-2.344237999718074,8.247897214115984,3.6357884799361972
7.071418165098546,-2.324771873431018,8.284255098915345,3.4871678601365272
7.048170446364236,-2.312066260998318,8.319126777516711,3.343028915703405
7.025049783754253,-2.30579649121197,8.352557066673745,3.2025174205195057
7.001991818842133,-2.305654761913913,8.38458224087894,3.0648120877967897
6.978935271222994,-2.311357807875015,8.415230361756908,2.929132082690891
6.955821693144244,-2.3226496028897787,8.444521682583817,2.794739092085795
6.932595197115345,-2.3393010455193273,8.472469073504675,2.6609365324799032
6.909202186660152,-2.361107823773972,8.499078438829473,2.5270674864295057
6.885591108422412,-2.387887177350666,8.524349113693768,2.392512341605939
6.861712236648906,-2.4194739780561703,8.548274237109828,2.2566867266773656
6.837517496868344,-2.4557163653337,8.570841104376601,2.119040105395233
6.812960333215007,-2.4964710633314997,8.592031505430553,1.9790552470651674
6.787995622581692,-2.5415984429879757,8.611822057901204,1.8362487013998519
6.762579638151813,-2.590957361253115,8.630184544915203,1.69017234513115
6.736670064539282,-2.6443998000852758,8.647086268366515,1.5404160215244973
6.710226066538429,-2.701765334306099,8.66249042858176,1.3866112521844172
6.683208413195367,-2.7628754760137553,8.676356541103605,1.2284359568572596
6.655579658435229,-2.8275279714067163,8.688640900672178,1.0656200674570302
6.6273043787211625,-2.895491161248354,8.69929710134675,0.8979518655086378
6.598349467108679,-2.9664985562517243,8.708276620001836,0.725284807890785
6.568684481546161,-3.0402438201643633,8.715529468080744,0.5475445365480435
6.538282043344518,-3.116376392148364,8.721004913446224,0.3647356983305676
6.507118279423034,-3.194498011077892,8.72465227042953,0.17694813812618648
6.475173299312256,-3.274160421749269,8.726421751810792,-0.015638019277454618
6.442431695094763,-3.3548645405966306,8.726265371618018,-0.21274890562350304
6.4088830496887965,-3.4360613307688332,8.724137882561783,-0.4140155580382905
6.374522436381108,-3.517154579422381,8.719997726981399,-0.6189751176337732
6.339350890586884,-3.5975056827052008,8.71380797580506,-0.8270749093854772
6.303375833759832,-3.6764404289001256,8.705537226711206,-1.0376795802783902
6.266611429470831,-3.7532576348220315,8.695160430908421,-1.2500812765429572
6.22907885312261,-3.8272393465043724,8.682659618142992,-1.4635126174262383
6.1908064596575665,-3.897662177604549,8.66802449196873,-1.6771619933160917
6.151829837881521,-3.9638092445036666,8.651252872035569,-1.890190505359587
6.112191745436484,-4.0249820814970105,8.632350966981972,-2.1017496979002495
6.071941924621514,-4.080511894785602,8.61133347000297,-2.3109991365345333
6.0311368056736585,-4.1297695462034385,8.588223478637625,-2.5171228683502487
5.989839110211624,-4.172173745465177,8.563052249954122,-2.719343871703961
5.948117372756972,-4.207197064665727,8.535858811237082,-2.916935754258766
5.906045402110315,-4.234369556459665,8.506689453694495,-3.109231173413675
5.863701706545718,-4.2532799400904775,8.475597141960359,-3.295626709085366
5.821168907144813,-4.263574499064617,8.442640874869506,-3.4755841883689844
5.778533162154167,-4.264953994819552,8.407885032985815,-3.648628719333483
5.7358836222059715,-4.257169030362281,8.371398745792481,-3.814343916031047
5.693311931902349,-4.24001438961082,8.333255306632172,-3.9723649741802673
5.6509117880062405,-4.213322929768877,8.29353165689037,-4.1223703793684505
5.6087785587085515,-4.176959616803774,8.252307953096684,-4.264073095545413
5.5670089625405135,-4.130816271381127,8.20966722214123,-4.397212093876372
5.525700799826702,-4.0748075384566445,8.165695101202466,-4.521545045695265
5.484952724442135,-4.008868511651124,8.120479650745514,-4.636842923665546
5.4448640393256245,-3.9329543360190495,8.074111221508858,-4.742887136688175
5.405534495965434,-3.8470419814666426,8.026682350141977,-4.839469669662603
5.3670640761507675,-3.7511342254184,7.978287653445351,-4.926396511217165
5.329552733896583,-3.64526571015153,7.92902368833318,-5.00349443389125
5.293100076795068,-3.529510753070045,7.878988743994268,-5.070620947355663
5.257804969264368,-3.403992396785955,7.828282534520711,-5.127676985905986
5.223765045296508,-3.268892004859297,7.777005764661651,-5.174621632358224
5.191076125247915,-3.1244585577152857,7.725259548338069,-5.211487943592547
5.159831539670762,-2.971016703847038,7.673144668902143,-5.2383987553320495
5.130121372632291,-2.8089725959093133,7.6207606813488225,-5.255581234190087
5.102031646673198,-2.6388166070410053,7.568204869006921,-5.263378939466901
5.075643480602788,-2.461122187600646,7.515571079612252,-5.262260272711941
5.0510322587267815,-2.2765403808793674,7.462948476885133,-5.252822432501084
5.028266854917987,-2.085789847315399,7.410420252560122,-5.235790340191109
5.007408956444833,-1.8896426151456098,7.358062349158211,-5.212010426550055
4.988512530293377,-1.6889061366071152,7.3059422448927105,-5.182439621829902
4.971623468927306,-1.4844025358515052,7.254117848674412,-5.1481303189558325
4.956779443568791,-1.2769461470403085,7.202636545484853,-5.110212429697553
4.944009982098388,-1.0673205318506358,7.151534421187877,-5.069873887702731
4.933336776779881,-0.8562561265000364,7.10083568231085,-5.028341049810289
4.924774215514881,-0.6444095101747861,7.050552271812747,-4.986860409518818
4.918330120413133,-0.43234503594920126,7.000683667717559,-4.94668288514372
4.914006670053641,-0.22051925796374375,6.951216838866122,-4.909051715691277
4.911801477474003,-0.009268262978158692,6.9021263217092095,-4.87519473226778
4.9117087948442215,0.20120229592096897,6.853374374386532,-4.846321513646049
4.913720817803431,0.4108249362524101,6.8049111592500715,-4.823625716414365
4.917829067165955,0.6196765440621401,6.756674902085928,-4.808292717602121
4.924025832606576,0.8279838850730337,6.708591974909907,-4.801512633972396
4.932305671457306,1.0361293927909918,6.660576848570183,-4.804498789381234
4.942666965385216,1.2446582673037732,6.612531860676371,-4.818511781478024
4.955113548058254,1.4542879538198414,6.5643467428615905,-4.844889432199017
4.969656427596452,1.665921067148045,6.5158978485396,-4.8850830576188935
4.986315638267932,1.8806627606415363,6.467047017963411,-4.940700597146094
5.0051222658743475,2.099843332404037,6.41764001199195,-5.013557076402946
5.026120699198388,2.325046353072637,6.36750444122792,-5.105732399092238
5.0493711627291145,2.558141442969,6.316447117236998,-5.219635083413599
5.074952577158805,2.8013183182033,6.264250766402862,-5.3580672978966035
5.102965760340838,3.057113450299318,6.210670093423896,-5.524279441166858
5.1335368948438305,3.3284098274649114,6.155427299012227,-5.721987625659108
5.166820993118479,3.6183683731267493,6.098207422755636,-5.9552970805202134
5.203004676849747,3.9302062603587045,6.038654451950434,-6.228414211402737
5.242306739453334,4.266655004076972,5.9763703098364065,-6.544914942147042
5.284973289494104,4.628786242393556,5.910921160414936,-6.906133458436991
5.3312611519180395,5.013680902331428,5.841859825830566,-7.307935743740542
5.381397960941354,5.410264407129559,5.76878046839316,-7.734920708794743
5.435500605012649,5.793127791781264,5.691431261305213,-8.151772454086633
5.493431882930461,6.1168562153172665,5.6099135367643465,-8.495246888524473
5.554600445083634,6.319681867800334,5.524961067879102,-8.679074715283376
5.617797263761637,6.348644060935194,5.438170320726268,-8.628800378172084
5.681283704370989,6.198442098986342,5.351882316944548,-8.335702524043011
5.743268125360852,5.921614226310478,5.268525291704117,-7.870841010910657
5.8024842676239565,5.591565616566924,5.189816881595011,-7.333772983512189
5.858399923789626,5.263194138790202,5.116479151759889,-6.798291656249913
5.911031865177527,4.963917394080024,5.04849623519739,-6.300387572052395
5.960671039118328,4.702549736636295,4.985492359476866,-5.850704784189219
6.007696536484691,4.478914401176277,4.926985311634974,-5.447812931514468
6.052485680496454,4.289468011588841,4.872507182319829,-5.085894327460293
6.095380360612342,4.129886710148815,4.821648239045226,-4.758234540672539
6.13667922771383,3.996078781159956,4.7740658936385,-4.45856228825842
6.17664001552543,3.8845000310581788,4.729480270755916,-4.181448737860014
6.215485015836012,3.7921894440213273,4.687665783377316,-3.922337545145849
6.253406910276225,3.716705722318134,4.648442407925858,-3.6774502014771415
6.290573967499406,3.6560380774559182,4.611667905911086,-3.443664615744575
6.327134348273965,3.6085188266273946,4.57723125975364,-3.218402801045954
6.363219536540239,3.572746535089874,4.5450472317431805,-2.9995383359816326
6.398947001891138,3.5475211184636732,4.515051848383364,-2.785324569806338
6.434422213075774,3.5317897793603312,4.487198602685301,-2.5743411815413584
6.4697401108693775,3.524602054783932,4.461455190869888,-2.3654558278313367
6.504986131417217,3.525072398479014,4.437800632591575,-2.1577976230084035
6.540236855402007,3.5323491190577663,4.416222656361491,-1.950739444532732
6.575560346592585,3.5455889361620603,4.396715261916164,-1.7438863112622287
6.611016235954206,3.5639368176027353,4.379276398803541,-1.537067278760384
6.646655604130233,3.586511079639667,4.363905726015937,-1.3303284490296348
6.682520714926629,3.612393944514353,4.35060244152564,-1.1239248486190638
6.718644654371773,3.6406278336549343,4.33936319303945,-0.9183091472463839
6.755050932708323,3.67021761728459,4.330180101566986,-0.7141155234785374
6.791753108881169,3.700138838597567,4.3230389463322005,-0.5121374719664704
6.828754497267145,3.7293515986182655,4.3179175716125355,-0.31329899562571095
6.8660480132533275,3.756819364839938,4.314784581656278,-0.11861940417041217
6.903616206901727,3.781531514240623,4.313598387614574,0.0708272255830377
6.941431522044134,3.8025280166973676,4.314306659870405,0.25395608833472716
6.979456802211107,3.818924387660709,4.316846220753752,0.4297167345694112
7.017646046087714,3.8299349530967697,4.321143388099446,0.5971364098427105
7.055945395618682,3.8348926069295413,4.327114752197873,0.7553588639578529
7.094294321687977,3.833263591472443,4.334668340837451,0.9036761999786922
7.132626957602701,3.8246563436424696,4.343705102837238,1.0415519806218212
7.170873521039126,3.80882404391441,4.354120622643457,1.168634641525718
7.20896176147827,3.7856610905635972,4.365806969058714,1.2847611434251525
7.246818372383906,3.755194218258415,4.378654580492966,1.3899515991049074
7.28437031456649,3.7175693323611045,4.392554096484015,1.4843962371041988
7.321546007890102,3.673035315650572,4.407398058855057,1.5684364583234551
7.358276361046607,3.6219260905230772,4.423082423438292,1.64254189642608
7.394495621951838,3.564642117446464,4.439507842402553,1.7072853384896827
7.4301420431263026,3.5016323214256277,4.45658069578745,1.7633171521498527
7.4651583663405585,3.433377205553604,4.474213867308948,1.811340560745157
7.499492138396095,3.360373671187726,4.492327272916399,1.8520887655639484
7.533095875107972,3.28312184459707,4.5108481605720385,1.8863045791671937
7.565927093553943,3.202114025943391,4.529711206363711,1.9147229361596434
7.597948233813376,3.11782573465531,4.5488584357253075,1.9380564039397854
7.629126491159929,3.030708725174536,4.568238999764706,1.956983630843147
7.659433578411674,2.9411857839185482,4.587808836073137,1.9721405398533811
7.688845436250859,2.8496470852647113,4.607530241471671,1.984113995287443
7.717341907103506,2.756447874119312,4.627371381424545,1.9934376282074326
7.7449063858447,2.661907248467435,4.6473057577066195,2.0005894942610274
7.771525458329374,2.566307831567091,4.6673116526492295,2.005991246610968
7.797188536645045,2.4698961457544524,4.687371565115339,2.0100085294117234
7.82188749810259,2.372883524942325,4.707471650409456,2.012952328304756
7.845616333352013,2.2754474285967037,4.727601173692504,2.0150810494512883
7.86837080763798,2.1777330448296923,4.747751984187016,2.016603134748286
7.8901481380862775,2.0798550933971134,4.767918015534499,2.0176800561013977
7.910946689020249,1.98189976038755,4.788094816095513,2.0184295647162775
7.930765686624125,1.883926715052502,4.808279111742676,2.0189291016031814
7.949604953774649,1.7859711755280658,4.828468402758708,2.0192193025116567
7.96746466552993,1.6880460041890588,4.848660595783825,2.019307554187595
7.984345125571821,1.5901438251325968,4.8688536713257005,2.0191715791592877
