th1 (rad),w1 (rad/s),th2 (rad),w2 (rad/s),a1 (rad/s^2),a2 (rad/s^2)
1.7294813744408428,-2.597134757895884,3.415500404704661,-1.3309176589913385,-9.089930340013519,-5.0945773234261
1.703510026861884,-2.688034061296019,3.4021912281147477,-1.3818634322255996,-9.13713544343804,-5.806783648482791
1.6766296862489236,-2.7794054157303996,3.3883725937924916,-1.4399312687104275,-9.178392089254231,-6.543901499873091
1.6488356320916195,-2.8711893366229417,3.3739732811053873,-1.5053702837091585,-9.212069477898835,-7.305010725423864
1.6201237387253902,-2.9633100314019303,3.3589195782682957,-1.5784203909633971,-9.2361850477058,-8.088885755025895
1.5904906384113708,-3.0556718818789883,3.3431353743586616,-1.659309248513656,-9.24837066645195,-8.893944750788464
1.559933919592581,-3.1481555885435077,3.326542281873525,-1.7482486960215406,-9.245839919225435,-9.718195254528103
1.5284523637071459,-3.2406139877357623,3.3090597949133094,-1.8454306485668217,-9.22535765214975,-10.55917749531182
1.4960462238297882,-3.33286756425726,3.2906054884276412,-1.9510224235199398,-9.183213216254613,-11.413906938207543
1.4627175481872157,-3.4246996964198058,3.271095264192442,-2.0651614929020154,-9.115199164779504,-12.278818121907964
1.4284705512230176,-3.5158516880676007,3.250443649263422,-2.187949674121095,-9.016597479348864,-13.14971233689474
1.3933120343423415,-3.606017662861089,3.228564152522211,-2.3194467974900426,-8.882175720118601,-14.021712220907439
1.3572518577137307,-3.694839420062275,3.2053696845473105,-2.459663919699117,-8.706195791672812,-14.889226872138197
1.320303463513108,-3.781901377979003,3.1807730453503194,-2.608556188420499,-8.48243826483339,-15.745931574308045
1.2824844497333179,-3.866725760627337,3.1546874834661143,-2.766015504163579,-8.20424536479291,-16.584766658013596
1.2438171921270444,-3.948768214275266,3.1270273284244783,-2.931863170743715,-7.864585794226848,-17.397960352222025
1.204329509984292,-4.0274140722175344,3.0977086967170413,-3.1058427742659354,-7.456144468924138,-18.177080669430538
1.1640553692621165,-4.1019755169067755,3.066650268974382,-3.2876135809602407,-6.971439962435448,-18.91312137849906
1.1230356140930486,-4.17168991653113,3.0337741331647794,-3.4767447947452315,-6.402971941302575,-19.59662691193814
1.0813187149277372,-4.235719635944156,2.999006685217327,-3.6727110638646128,-5.743400075348301,-20.2178605910708
1.0389615185682957,-4.293153636697639,2.9622795745786807,-3.8748896697753206,-4.985754774456568,-20.767019792251226
0.9960299822013192,-4.343011184442204,2.9235306778809274,-4.0825598676978325,-4.123678574038111,-21.23450057301698
0.9525998703568972,-4.384247970182585,2.882705079203949,-4.294904873428003,-3.1516950007297018,-21.611212770634943
0.9087573906550713,-4.415764920189882,2.839756030469669,-4.511017001134352,-2.0654992339591054,-21.888944606507003
0.8645997414531725,-4.436419912529473,2.7946458604583255,-4.729906447199422,-0.8622617901217241,-22.06077330127452
0.8202355423278778,-4.44504253043069,2.7473467959863314,-4.950514180212167,0.4590672109142715,-22.12151506244949
0.7757851170235709,-4.4404518583215475,2.69784165418421,-5.171729330836662,1.897469805810138,-22.068204033449206
0.7313805984403554,-4.421477160263446,2.6461243608758434,-5.392411371171154,3.449609045437856,-21.900585480146287
0.687165826837721,-4.386981069809067,2.592200247164132,-5.611417225972617,5.109640388625607,-21.62160390526186
0.6432960161396303,-4.335884665922811,2.536086074904406,-5.827633265025235,6.869114738917872,-21.237862436185637
0.5999371694804022,-4.267193518533633,2.4778097422541534,-6.040011889387092,8.717004390539696,-20.76002653398718
0.5572652342950659,-4.180023474628236,2.4174096233602826,-6.247612154726964,10.639882856608972,-20.2031439033303
0.5154649995487836,-4.073624646062146,2.354933501813013,-6.449643593760267,12.622285892411226,-19.58685469777822
0.4747287530881621,-3.9474017871380336,2.2904370658754103,-6.645512140738049,14.647273357011024,-18.935472919905497
0.43525473521678176,-3.8009290535679234,2.2239819444680298,-6.834866869937104,16.697199798108986,-18.2779321606624
0.3972454446811025,-3.6339570555868335,2.155633275768659,-7.017646191543728,18.754686538933015,-17.64760664755697
0.36090587412523417,-3.4464101901975033,2.0854568138532215,-7.194122258019298,20.803771266679867,-17.082041103088105
0.32644177222325915,-3.238372477530705,2.0135155912730287,-7.364942669050179,22.831195122713748,-16.62264810774332
0.2940580474479521,-3.010060526303567,1.939866164582527,-7.531169150127612,24.827774782647946,-16.314456323826317
0.26395744218491646,-2.761782778477088,1.8645544730812509,-7.694313713365875,26.789799995492228,-16.206012843786752
0.2363396144001456,-2.4938847785221654,1.787611335947592,-7.856373841803743,28.720395386129045,-16.349552685975738
0.21140076661492394,-2.206680824660875,1.7090475975295547,-8.0198693686635,30.630784605965953,-16.801540379360613
0.18933395836831518,-1.9003729786012156,1.6288489038429197,-8.187884772457107,32.541383009787936,-17.623649117682533
0.170330228582303,-1.574959148503336,1.5469700561183486,-8.364121263633931,34.48259554971971,-18.884143967422478
0.15458063709726966,-1.230133193006139,1.4633288434820093,-8.552962703308156,36.49505512078049,-20.65941452570439
0.14227930516720827,-0.865182641798334,1.3777992164489277,-8.7595568485652,38.62869081023449,-23.03491910746537
0.13362747874922493,-0.47889573369598915,1.2902036479632757,-8.989906039639854,40.939230030810585,-26.103746500618332
0.12883852141226504,-0.06950343338788328,1.2003045875668772,-9.250943504646036,43.47901873271607,-29.9586975923701
0.12814348707838621,0.36528675393927745,1.1077951525204168,-9.550530480569737,46.27537384178626,-34.66882086900934
0.131796354617779,0.8280404923571401,1.0122898477147195,-9.89721868925983,49.28212996884198,-40.22095599026844
0.1400767595413504,1.3208617920455599,0.9133176608221212,-10.299428249162515,52.275706959316715,-46.386783448599544
0.153285377461806,1.843618861638727,0.8103233783304961,-10.76329608364851,54.6452555173019,-52.444554558974936
0.17172156607819328,2.390071416811746,0.702690417494011,-11.28774162923826,55.017593872948964,-56.668679628113935
0.19562228024631073,2.9402473555412354,0.5898130012016284,-11.8544284255194,50.77086804710727,-55.64817666370429
0.2250247538017231,3.4479560360123083,0.47126871694643435,-12.410910192156443,38.03901197186471,-44.23887816392622
0.25950431416184616,3.8283461557309555,0.3471596150248699,-12.853298973795706,13.926202935138337,-18.490025462445104
0.2977877757191557,3.967608185082339,0.21862662528691285,-13.038199228420156,-18.201946907421846,17.264278916473103
0.3374638575699791,3.7855887160081205,0.08824463300271129,-12.865556439255425,-47.041810996003925,48.259417745398544
0.3753197447300603,3.3151706060480812,-0.04041093138984295,-12.382962261801438,-63.22250367400233,62.671771899338296
0.4084714507905411,2.6829455693080577,-0.16424055400785734,-11.756244542808055,-67.48840512342521,62.22270655846315
0.4353009064836217,2.0080615180738057,-0.2818029994359379,-11.134017477223423,-65.49794971318185,54.74192029893258
0.45538152166435975,1.3530820209419872,-0.39314317420817213,-10.586598274234097,-61.48695346954269,45.77646028943784
0.4689123418737796,0.7382124862465602,-0.4990091569505131,-10.128833671339718,-57.35983764873007,37.66249708102034
0.4762944667362452,0.1646141097592595,-0.6002974936639103,-9.752208700529515,-53.717679337413216,31.03973800650951
0.4779406078338378,-0.37256268361487266,-0.6978195806692055,-9.441811320464419,-50.63433098500009,25.911281946966206
0.47421498099768905,-0.8789059934648735,-0.7922376938738497,-9.182698500994757,-48.00994220372051,22.100853251692982
0.4654259210630403,-1.3590054155020788,-0.8840646788837973,-8.961689968477828,-45.70548643126455,19.41293477310646
0.4518358669080195,-1.8160602798147243,-0.9736815785685755,-8.767560620746764,-43.58861730321983,17.677805932863805
0.4336752641098723,-2.2519464528469224,-1.0613571847760432,-8.590782561418125,-41.54714245439471,16.757054932058367
0.4111557995814031,-2.6674178773908697,-1.1472650103902244,-8.423212012097542,-39.49161742694622,16.53739451366599
0.3844816208074944,-3.062334051660332,-1.2314971305112,-8.257838066960883,-37.35475143706448,16.922398976957908
0.35385828029089106,-3.435881566030977,-1.3140755111808087,-8.088614077191304,-35.090129113028674,17.825254491290263
0.31949946463058126,-3.786782857161264,-1.3949616519527217,-7.910361532278401,-32.670866185594036,19.163364474412656
0.2816316360589686,-4.113491519017204,-1.4740652672755057,-7.718727887534274,-30.088181057478455,20.854900136067386
0.2404967208687966,-4.414373329591989,-1.5512525461508484,-7.5101788861736,-27.34970892023039,22.817131873779115
0.1963529875728767,-4.687870418794293,-1.6263543350125844,-7.282007567435809,-24.477417268877158,24.96627366579493
0.14947428338493376,-4.932644591483064,-1.6991744106869424,-7.032344830777859,-21.505080452540163,27.218513822660594
0.10014783747010311,-5.147695396008466,-1.769497858994721,-6.7601596925512535,-18.47537832820923,29.491870894408954
0.048670883510018456,-5.332449179290558,-1.8370994559202336,-6.465240983607164,-15.436768433346613,31.708507537383497
-0.004653608282887127,-5.486816863624024,-1.9017518657563053,-6.1481559082333295,-12.440326660938947,33.797162148161235
-0.05952177691912737,-5.611220130233414,-1.9632334248386385,-5.810184286751717,-9.536755853514498,35.695414011364015
-0.11563397822146151,-5.7065876887685585,-2.0213352677061556,-5.453230146638077,-6.7737333148319445,37.351570501562136
-0.1726998551091471,-5.774325021916878,-2.0758675691725363,-5.079714441622456,-4.193721175606168,38.72603960501299
-0.23044310532831588,-5.81626223367294,-2.126664713588761,-4.692454045572326,-1.832312281744922,39.79211593781633
-0.2886057276650453,-5.834585356490389,-2.1735892540444843,-4.294532886194163,0.2828610823023384,40.536158676166295
-0.3469515812299492,-5.831756745667366,-2.216534582906426,-3.8891712994325,2.1326638107351554,40.95717739438988
-0.40526914868662284,-5.810430107560014,-2.255426295900751,-3.479599525488601,3.7064748704262187,41.065872455676725
-0.463373449762223,-5.773365358855752,-2.290222291155637,-3.0689408009318337,5.0017408236975704,40.88320548884825
-0.5211071033507805,-5.723347950618777,-2.3209116991649554,-2.6601087460433512,6.0231410780602435,40.438604061736925
-0.5783405828569682,-5.663116539838175,-2.347512786625389,-2.255722705425982,6.781456330625557,39.76792995124726
-0.63497174825535,-5.595301976531919,-2.3700700136796486,-1.8580434059135094,7.292243657909348,38.91135672283228
-0.6909247680206692,-5.5223795399528255,-2.3886504477387835,-1.4689298386851866,7.574426388492447,37.911304225196304
-0.7461485634201974,-5.446635276067901,-2.4033397461256354,-1.0898167964332235,7.648902247960927,36.81056252391803
-0.8006149161808764,-5.370146253588292,-2.4142379140899677,-0.7217111711940432,7.537259346805405,35.650707238709664
-0.8543163787167594,-5.294773660120238,-2.421455025801908,-0.3652040988069465,7.260668796185285,34.470867161903485
-0.9072641153179617,-5.2221669721583845,-2.4251070667899777,-0.02049542718791164,6.838999171069782,33.306859957684594
-0.9594857850395455,-5.153776980447686,-2.4253120210618566,0.3125731723889343,6.290176391958405,32.19066857825276
-1.0110235548440223,-5.090875216528103,-2.4221862893379673,0.6344798581714619,5.629797223987225,31.150193273990197
-1.0619323070093034,-5.03457724428823,-2.415841490756253,0.9459817909113639,4.870999073324029,30.209181818716747
-1.1122780794521858,-4.98586725355499,-2.4063816728471394,1.2480736090985314,4.024596070013026,29.38721028529659
-1.1621367519877357,-4.9456212928548595,-2.3939009367561543,1.5419457119514972,3.0995146349153884,28.699551371732486
-1.2115929649162842,-4.9146261465057055,-2.3784814796366396,1.828941225668822,2.1036049746772387,28.156716588435568
-1.2607392263813413,-4.893590096758933,-2.3601920673799515,2.1105083915531777,1.044974251524976,27.763379279650472
-1.3096751273489307,-4.883140354243683,-2.3390869834644197,2.3881421843496824,-0.06590983138043427,27.51626255458505
-1.3585065308913675,-4.883799452557487,-2.315205561620923,2.663304809895533,-1.2129539731255672,27.400398790252837
-1.4073445254169423,-4.895928992288743,-2.2885725135219674,2.937308797798061,-2.3694489849327987,27.382946117725922
-1.4563038153398298,-4.919623482138071,-2.259199425543987,3.2111382589753203,-3.4906448801641083,27.403561959538635
-1.5055000501612106,-4.954529930939713,-2.2270880429542337,3.4851738785707065,-4.503248588275439,27.360443635039307
-1.5550453494706078,-4.999562416822467,-2.1922363041685267,3.7587783149210994,-5.291948388905267,27.092207145807233
-1.6050409736388325,-5.05248190071152,-2.1546485210193156,4.029700386379171,-5.685463330598797,26.359141917216974
-1.6555657926459477,-5.109336534017507,-2.114351517155524,4.293291805551341,-5.450131202954687,24.83511192290277
-1.7066591579861228,-5.163837846047055,-2.0714185991000105,4.541642924780369,-4.308435749136334,22.134505485754616
-1.7582975364465934,-5.206922203538418,-2.0260021698522066,4.7629879796379155,-2.008601440178495,17.910764263286257
-1.8103667584819776,-5.227008217940202,-1.9783722900558274,4.942095622270778,1.5382283711860527,12.049275609524075
-1.8626368406613796,-5.2116259342283415,-1.9289513338331197,5.062588378366019,6.092234688627742,4.899149822941349
-1.914753100003663,-5.150703587342064,-1.8783254500494595,5.111579876595433,11.02047753834195,-2.639141679505965
-1.9662601358770837,-5.040498811958645,-1.8272096512835052,5.0851884598003725,15.47346721948225,-9.365951467873376
-2.01666512399667,-4.885764139763822,-1.7763577666855015,4.9915289451216385,18.751544614464528,-14.30029271746744
-2.065522765394308,-4.698248693619177,-1.726442477234285,4.8485260179469645,20.58550242263955,-17.073949337726564
-2.1125052523304997,-4.492393669392781,-1.6779572170548154,4.677786524569699,21.129608259489206,-17.91851005015879
-2.1574291890244277,-4.281097586797889,-1.6311793518091184,4.498601424068111,20.75379364662913,-17.369544679227392
-2.200240164892407,-4.073559650331598,-1.5861933375684374,4.324905977275837,19.840156030187153,-15.978039898279752
-2.2409757613957226,-3.875158090029726,-1.542944277795679,4.16512557829304,18.68247592142142,-14.168103505125105
-2.27972734229602,-3.688333330815512,-1.5012930220127485,4.023444543241789,17.470856644338262,-12.215272462308503
-2.316610675604175,-3.5136247643721292,-1.4610585765803306,3.901291818618704,16.313501735570785,-10.277443535567507
-2.3517469232478962,-3.350489747016421,-1.4220456583941434,3.798517383263029,15.264451989628096,-8.434289562767825
-2.3852518207180604,-3.19784522712014,-1.3840604845615132,3.7141744876353506,14.345572740754971,-6.7185666397403345
-2.417230272989262,-3.0543894997125904,-1.3469187396851596,3.6469888212379473,13.56114429727366,-5.136954858289272
-2.447774167986388,-2.918778056739854,-1.3104488514727801,3.5956192726550547,12.90667362710683,-3.682704772833707
-2.4769619485537864,-2.7897113204687853,-1.2744926587462295,3.5587922249267177,12.373899657626383,-2.3428736432241015
-2.504859061758474,-2.6659723238925217,-1.2389047364969623,3.5353634884944767,11.953493629301136,-1.1022766420309102
-2.5315187849973992,-2.5464373875995103,-1.2035511016120175,3.5243407220741676,11.636430556923003,0.05446102504467878
-2.5569831588733942,-2.4300730820302805,-1.1683076943912758,3.5248853323246143,11.414619973658112,1.1419119953786498
-2.581283889693697,-2.3159268822936996,-1.1330588410680296,3.536304452278401,11.28113540625122,2.1734265836795292
-2.604443158516634,-2.203115528231187,-1.0976957965452456,3.558038718115196,11.23023269074811,3.1610073111949495
-2.626474313798946,-2.090813201323706,-1.0621154093640937,3.5896487912271455,11.257260573689553,4.115322898729032
-2.647382445812183,-1.9782405955868105,-1.0262189214518223,3.630802020214436,11.35851763152708,5.045775542405808
-2.6671648517680513,-1.8646554192715397,-0.9899109012496778,3.681259775638494,11.53108157750934,5.960573631076187
-2.6858114059607665,-1.7493446034964462,-0.9530983034932929,3.740865511949256,11.772621181083045,6.866782881046935
-2.703304851995731,-1.6316183916856157,-0.9156896483738004,3.8095333407597254,12.081191948152814,7.770339780102642
-2.719621035912587,-1.5108064722040875,-0.8775943149662031,3.887236738560752,12.455011398720394,8.676016624676391
-2.734729100634628,-1.3862563582168836,-0.8387219475805956,3.9739969048075157,12.892206603369486,9.587329845161523
-2.748591664216797,-1.2573342921831887,-0.7989819785325204,4.069870203259131,13.390524795281875,10.506384294717067
-2.761165007138629,-1.12342904423037,-0.7582832764999291,4.174934046206302,13.946997078067437,11.433646781285255
-2.7723992975809324,-0.9839590734496957,-0.7165339360378661,4.2892705140191545,14.557545598636393,12.367643215259964
-2.782238888315429,-0.8383836174633318,-0.6736412308976746,4.412946946171754,15.21652646526276,13.30457619427675
-2.7906227244900625,-0.6862183528107042,-0.629511761435957,4.545992708114522,15.916204883197478,14.237864646219556
-2.7974849080181694,-0.5270563039787294,-0.5840518343548118,4.688371354576717,16.646166461747832,15.157615479971621
-2.8027554710579565,-0.360594639361251,-0.5371681208090446,4.839947509376434,17.392680656846785,16.050050381439362
-2.806361417451569,-0.18666783279278318,-0.4887686457152803,5.0004480131908275,18.13805015676267,16.896930248083475
-2.808228095779497,-0.005287331225156483,-0.438764165583372,5.169417315671662,18.860004707351045,17.675046161334674
-2.8082809690917485,0.18331271584835399,-0.3870699924266554,5.346167777285009,19.5312294731485,18.355878981697032
-2.806447841933265,0.378625010579839,-0.3336083146538053,5.52972656710198,20.119154640269866,18.905567069546862
-2.802661591827466,0.5798165569825376,-0.2783110489827855,5.718782237797448,20.58616935492426,19.285357008855264
-2.796863426257641,0.7856782505317802,-0.22112322660481104,5.911635807886001,20.89044926782705,19.452734091756582
-2.789006643752323,0.9945827432100507,-0.16200686852595103,6.106163148803567,20.98758738368614,19.363420482621994
-2.7790608163202224,1.204458617046912,-0.10094523703791536,6.2997973536297875,20.83317261511513,18.974368062678664
-2.7670162301497534,1.4127903431980633,-0.03794726350161748,6.4895410342565745,20.38634959983266,18.24774010744753
-2.752888326717773,1.6166538391963898,0.02694814684094826,6.67201843533105,19.614206640845296,17.15566356135673
-2.736721788325809,1.8127959056048428,0.09366833119425876,6.843575070944617,18.49658845203127,15.685260857043007
-2.7185938292697602,1.9977617901251554,0.16210408190370493,7.000427679515047,17.030664111766075,13.843195113160498
-2.698616211368509,2.168068431242816,0.2321083586988554,7.138859630646652,15.23438270021492,11.658781737910935
-2.676935527056081,2.320412258244965,0.3034969550053219,7.255447448025762,13.147922488984708,9.184743607300355
-2.653731404473631,2.451891483134812,0.37605142948557957,7.3472948840987655,10.83246338591628,6.494990990782231
-2.629212489642283,2.560216116993975,0.4495243783265672,7.412244794006588,8.3660893752555,3.679373557543934
-2.6036103284723433,2.64387701074653,0.5236468262666331,7.449038529582027,5.8372526311152155,0.8360421092790793
-2.577171558364878,2.7022495370576824,0.5981372115624534,7.4573989506748175,3.3368110548760463,-1.9373516636832464
-2.5501490629943016,2.735617647606443,0.6727112010692016,7.438025434037985,0.9499832269729636,-4.552112947381446
-2.522792886518237,2.7451174798761726,0.7470914554095814,7.39250430456417,-1.250467389635024,-6.935252630954928
-2.495341711719475,2.7326128059798225,0.8210164984552232,7.323151778254621,-3.208876917106991,-9.033647042980265
-2.468015583659677,2.7005240368087526,0.8942480162377694,7.2328153078248185,-4.888768584099236,-10.815370651850152
-2.4410103432915893,2.65163635096776,0.9665761693160175,7.124661601306317,-6.2725458796697655,-12.268542956196347
-2.414493979781912,2.5889108921710626,1.0378227853290807,7.001976171744354,-7.359342631236742,-13.39839724278331
