th1 (rad),w1 (rad/s),th2 (rad),w2 (rad/s)
3.368357974235587,1.3690123253085447,5.154954010825377,0.2708699539343204
3.3820480974886724,1.3996269387934066,5.15766271036472,0.34767648505216586
3.3960443668766063,1.43125488600279,5.161139475215242,0.42337347007831855
3.4103569157366342,1.4639963323151701,5.165373209916025,0.4978927034693684
3.424996879059786,1.4979481515401942,5.170352136950719,0.5711580084151892
3.439976360575188,1.5332037107617602,5.176063717034871,0.6430850599818274
3.455308397682806,1.569852634946992,5.182494567634689,0.7135811818406286
3.4710069240322756,1.6079805533262939,5.189630379453095,0.7825451166576498
3.487086729565539,1.6476688301070916,5.197455830619671,0.8498667709969854
3.5035634178666095,1.6889942827082007,5.205954498329641,0.9154269364285609
3.5204533606936916,1.7320288914098554,5.215108767693926,0.9790969894239134
3.5377736496077903,1.776839505122162,5.224899737588165,1.0407385735665464
3.555542044659012,1.8234875488967,5.235307123323831,1.1002032685854515
3.573776920147979,1.8720287398550683,5.246309156009685,1.1573322517240732
3.59249720754653,1.922512819395006,5.257882478526926,1.2119559579580315
3.61172233574048,1.9749833108671815,5.270002038106506,1.2638937465408109
3.631472168849152,2.029477313398251,5.282640975571915,1.3129535822454395
3.6517669419831345,2.0860253441686876,5.295770511394369,1.35893174042921
3.6726271954248215,2.144651243232876,5.3093598287986605,1.4016125456129016
3.69407370785715,2.205372156884568,5.323375954254789,1.4407681535574408
3.716127429425996,2.2681986176081153,5.337783635790363,1.4761583867465327
3.738809415602077,2.3331347407946565,5.352545219657829,1.5075306326349005
3.7621407630100236,2.400178560617503,5.367620525984178,1.5346198128737019
3.7861425486161986,2.4693225297235535,5.382966724112914,1.5571484298365685
3.810835773913434,2.5405542096772638,5.39853820841128,1.5748266939854074
3.8362413160102067,2.613857181361588,5.414286475351133,1.5873527317648632
3.8623798878238227,2.6892122067734756,5.4301600026687815,1.5944128686179009
3.8892720098915574,2.7665986758388965,5.446104131354961,1.5956819751857767
3.9169379966499465,2.8459963740224747,5.462060951106818,1.59082385660705
3.945397960390171,2.92738760865687,5.477969189672889,1.579491654883274
3.9746718364767397,3.010759734143576,5.493764106221722,1.5613282223725744
4.004779433818175,3.0961081186069763,5.509377388445447,1.5359664104764728
4.035740515004245,3.183439597405488,5.524737052550212,1.5030292014181243
4.0675749109783,3.272776462373836,5.539767344564393,1.4621295926612157
4.100302675602038,3.3641610401129975,5.5543886404910054,1.412870123083422
4.133944286003168,3.4576609184347005,5.56851734172184,1.3548419077509894
4.168520895187515,3.5533748875885234,5.58206576079935,1.2876230245437637
4.2040546440634,3.651439672447773,5.594941991044787,1.2107760718548486
4.240569040787878,3.752037543433375,5.607049751763336,1.1238446937056126
4.278089416222212,3.8554049070400964,5.618288198700392,1.0263488495867576
4.3166434652926124,3.961841989626881,5.62855168719626,0.9177785958571564
4.356261885188881,4.0717237366205605,5.637729473154831,0.7975861517853093
4.396979122555087,4.185512045320591,5.645705334672684,0.6651760606245518
4.4388342430082925,4.303769417533988,5.652357095278929,0.519893349637772
4.481871937183633,4.427174029534489,5.657556028775307,0.36100978706675363
4.526143677478978,4.556536018997363,5.661166126645974,0.1877087069105737
4.571709037668952,4.6928143874475055,5.66304321371508,-0.0009304378311934258
4.618637181543427,4.837133144114458,5.663033909336768,-0.20594538239575383
4.667008512984571,4.990793874235112,5.660974455512811,-0.4284975674197953
4.716916451726923,5.155279276601245,5.656689479838613,-0.6698632392647798
4.768469244492936,5.3322374734823095,5.649990847445966,-0.9313935104072424
4.821791619227759,5.523428530292455,5.640676912341894,-1.2144156068837595
4.877025904530684,5.730600242427337,5.628532756273056,-1.5200269039484722
4.934331906954958,5.95523659084311,5.613332487233571,-1.8486997866786556
4.993884272863388,6.198086479605978,5.594845489366784,-2.1995651753920287
5.055865137659448,6.458335564822696,5.572849837612863,-2.569180865719494
5.120448493307675,6.732256310612661,5.547158028955669,-2.949556033666723
5.187771056413802,7.011250020051045,5.517662468619001,-3.325323789836618
5.2578835566143125,7.279589626274005,5.484409230720635,-3.670529644275264
5.330679452877052,7.513174221746117,5.447703934277882,-3.9469469259937027
5.405811195094514,7.6820502884569075,5.408234465017945,-4.107896302814977
5.482631697979083,7.75940923681444,5.367155501989796,-4.111468913499454
5.560225790347228,7.73481130235222,5.326040812854801,-3.9399301775864743
5.6375739033707495,7.621588777701998,5.286641511078936,-3.610848810528739
5.71378979114777,7.45016766054312,5.250533022973649,-3.1679014274966164
5.788291467753201,7.253160658229542,5.218854008698682,-2.659477922158838
5.860823074335496,7.05473571541518,5.192259229477093,-2.123023755502457
5.931370431489648,6.868425989120429,5.171028991922069,-1.5813929877978745
6.000054691380852,6.699644228709291,5.15521506204409,-1.0461040420565857
6.0670511336679445,6.548901507832367,5.144754021623524,-0.5218051659245285
6.132540148746268,6.414156814522396,5.139535969964279,-0.009624361256862168
6.196681716891492,6.292201595802899,5.139439726351711,0.4908089279553407
6.259603732849521,6.179387345054196,5.144347815631264,0.9802767366057357
6.321397606300063,6.071980609510337,5.154150582997321,1.4594372213726756
6.382117412395166,5.966327492129779,5.168744955211048,1.9285913856419252
6.441780687316464,5.858929216032894,5.188030869067467,2.3876107989831508
6.500369979476793,5.746481377396957,5.211906977057299,2.8359516526883923
6.557834793250763,5.625902420786447,5.2402664935841825,3.2727167489747857
6.6140938174586275,5.494362353999054,5.27299366107393,3.696745533056293
6.669037440998618,5.349314947991435,5.3099611164044935,4.106721159062301
6.722530590478533,5.188532454592249,5.351028327995117,4.501287478997053
6.774415915024455,5.010139599119483,5.396041202785088,4.879170309699245
6.82451731101565,4.81264248330919,5.44483290588208,5.2392977632500095
6.872643735848742,4.594947702905687,5.497225883514581,5.58091459575421
6.9185932128777985,4.356367273462159,5.553035029472123,5.903685864448544
6.96215688561242,4.096605768335971,5.612071888116608,6.207785897691624
7.00312294329578,3.8157273141592127,5.674149747093525,6.493969740678134
7.041280216437372,3.5141016532541287,5.739089444500306,6.763625781869339
7.0764212329699125,3.192330246924117,5.8067257023189995,7.018810014225361
7.108344535439154,2.851155254485926,5.876913802461253,7.262264040052597
7.136856087984014,2.4913561665424684,5.949536442861779,7.4974200329865415
7.161769649649439,2.113641097179269,6.024510643191645,7.7283957334915
7.182906060621232,1.718542868985622,6.10179460052656,7.959980050325598
7.200091489311088,1.3063354545376877,6.181394401029816,8.197602980141852
7.213154843856465,0.8769968759033446,6.263370430831234,8.447268614201468
7.221924812615498,0.43026563661967215,6.347843116973249,8.715399891304227
7.226227468981695,-0.0341212577673245,6.434997115886291,9.008485424183469
7.225886256404022,-0.5158441346788002,6.5250819701281255,9.332310343393061
7.220727815057233,-1.0127751594577143,6.618405073562056,9.690367062472841
7.210600063462656,-1.5186354586893307,6.7153087441867845,10.080778556993673
7.195413708875763,-2.0189585797866165,6.816116529756721,10.490896939236832
7.175224123077896,-2.485314135880755,6.921025499149089,10.88940924384794
7.150370981719089,-2.8702724043814474,7.029919591587569,11.219174439807647
7.121668257675275,-3.111234992358691,7.142111335985645,11.401724425824302
7.090555907751687,-3.1542317830999402,7.256128580243889,11.368533664616551
7.059013589920688,-2.99118237652463,7.369813916890054,11.110314638741047
7.029101766155441,-2.6721466893856745,7.480917063277465,10.692465786425078
7.002380299261584,-2.2721086953817036,7.587841721141715,10.210135342895198
6.979659212307767,-1.8511408495423654,7.689943074570667,9.736199887458527
6.961147803812343,-1.4423413742919224,7.7873050734452525,9.307229263430576
6.946724390069424,-1.0589603655041429,7.880377366079558,8.934329764936429
6.936134786414383,-0.7038561266244335,7.969720663728922,8.61609801473556
6.929096225148139,-0.3755028242091312,8.055881643876278,8.34646540041833
6.925341196906047,-0.0709553401834147,8.139346297880461,8.118359828372938
6.924631643504213,0.2128780437697863,8.22052989616419,7.925141564888233
6.926760423941911,0.47875960638957016,8.299781311813073,7.76104230881728
6.931548020005806,0.7289899198080347,8.377391734901245,7.621205390963568
6.938837919203887,0.965412957675452,8.45360378881088,7.501587964114993
6.948492048780642,1.1894694524876337,8.52861966845203,7.398831155792292
6.960386743305518,1.4022617939965107,8.602607980009953,7.310137551875398
6.974409361245483,1.6046164455396303,8.675709355528706,7.233167980381558
6.990455525700879,1.797139381406612,8.748041035332522,7.165958897738601
7.008426919514945,1.9802638480153816,8.819700624309908,7.1068579615919845
7.028229557995099,2.154291098942256,8.890769203925828,7.0544744407036
7.049772468984521,2.3194250829884733,8.961313948332863,7.0076412211135946
7.072966719814406,2.475802000987204,9.031390360544,6.965385607260329
7.097724739824279,2.6235154607563778,9.101044216616604,6.926906611571534
7.1239598944318425,2.7626377634436126,9.17031328273232,6.891556881163167
7.151586272066279,2.893237692162265,9.23922885154395,6.858827802475412
7.180518648987902,3.0153950582742706,9.307817129568704,6.828336656352454
7.210672599570644,3.129212191283792,9.37610049613223,6.799814976316973
7.241964721483482,3.234822528340856,9.4440986458954,6.773097500141058
7.274312946766891,3.3323964595129234,9.51182962089681,6.748111305153842
7.30763691136202,3.42214460517666,9.579310733948349,6.724864884315558
7.341858357413787,3.5043187323400553,9.646559382791505,6.70343705442888
7.376901544737187,3.5792105487575903,9.713593753335793,6.683965690725244
7.412693650224763,3.647148640359356,9.780433410243045,6.666636354404433
7.449165136628356,3.708493833833352,9.84709977378709,6.651670923259329
7.48625007496669,3.763633269408203,9.913616483019682,6.639316353103658
7.523886407660772,3.8129734582874617,9.98000964655072,6.629833693224824
7.562016142243647,3.8569325758782944,10.046307983482968,6.623487457217197
7.60058546800243,3.895932208394064,10.112542858055141,6.620535416478269
7.639544790086371,3.930388729945547,10.178748212219924,6.6212188425894345
7.678848677385827,3.960704443673947,10.244960400645818,6.625753181684934
7.718455721822567,3.9872585777163283,10.311217932462666,6.634319103149118
7.75832830759973,4.01039818857626,10.377561123494157,6.647053830381046
7.7984322894854925,4.030428994282094,10.444031661797968,6.664042636179133
7.838736579428313,4.047606140772998,10.51067208815976,6.685310372388843
7.879212640836044,4.062124900299499,10.577525191883648,6.710812905530804
7.919833889839039,4.074111313237788,10.644633320938956,6.740428349996201
7.960575002971416,4.0836128176006925,10.712037604438919,6.773948031194809
8.001411131147423,4.090588966714109,10.779777084750867,6.811067176335028
8.042317020814563,4.094902417894611,10.847887756514217,6.851375424217762
8.08326604499351,4.096310485787283,10.916401510756394,6.894347371406934
8.124229149851383,4.094457694145852,10.985344984470464,6.939333533404814
8.16517372679284,4.088869927362229,11.054738319804512,6.9855522967593195
8.206062426066463,4.078950971490074,11.124593842772105,7.032083667772273
8.246851935781365,4.063982430418215,11.194914679449829,7.077865874928131
8.287491760085548,4.043128183218664,11.26569333819911,7.121696134086284
8.327923041917733,4.015444678585694,11.336910299539973,7.162237102751144
8.368077488703591,3.9798983937968546,11.408532670567483,7.198030680969812
8.40787647264156,3.935391659663273,11.480512977377181,7.227520794321399
8.447230389238193,3.8807977056458127,11.552788185320395,7.249086541210964
8.48603836629465,3.8150051549791906,11.625279050732505,7.261086526551501
8.524188417844442,3.7369712706099403,11.69788991599802,7.261914284734586
8.56155813055054,3.645782044465148,11.770509058845366,7.250063416794752
8.598015950995192,3.540715837906775,11.843009693013315,7.224199513196718
8.63342310937426,3.42130591393071,11.915251688145283,7.1832342926623545
8.667636168513567,3.287396126255245,11.987084031071905,7.126395949135852
8.70051012977612,3.1391835585218395,12.058347990563265,7.053288816477878
8.731901965361338,2.9772423096010696,12.128880878728044,6.963935469805932
8.76167438845735,2.8025240338138424,12.198520233426104,6.858795496045296
8.789699628795487,2.6163331860829397,12.267108188386556,6.738757373737965
8.815862960656316,2.420277864583188,12.334495762123936,6.605102921031468
8.840065739302148,2.2162001658776767,12.40054679133425,6.459447081806468
8.862227740960924,2.006092480577336,12.465141262152315,6.303658789447258
8.882288665766698,1.7920076677101404,12.528177850046788,6.139770700983384
8.9002087424438,1.5759712953380636,12.589575557056621,5.969886376214934
8.91596845539718,1.3599031642201966,12.64927442081877,5.796092939685811
8.929567487039384,1.1455534453484133,12.707235350215628,5.620385654260417
8.941023021492867,0.9344564190397711,12.763439206758232,5.444608592068239
8.950367585683265,0.727902475498386,12.817885292678914,5.270413201238693
8.95764661043825,0.5269270958661554,12.870589424691302,5.099234448867406
8.962915881396912,0.33231418830360476,12.921581769179976,4.9322826340904316
8.966239023279948,0.1446104507904612,12.970904595520881,4.770548004706221
8.967685127787853,-0.03585270871028581,13.018610075567944,4.61481493448198
8.96732660070075,-0.20893289197472106,13.064758224912763,4.465682500324338
8.965237271781003,-0.37464874751516714,13.109415049916008,4.32358868239881
8.961490784305852,-0.5331523804507146,13.152650936739995,4.188835948626953
8.956159260501344,-0.6847035753097893,13.194539296226266,4.061616561645641
8.949312224748246,-0.8296467297524394,13.235155461842721,3.9420364834220707
8.941015757450721,-0.9683909606320642,13.274575826676942,3.8301372075503104
8.931331847844401,-1.1013935191943989,13.312877198752446,3.7259152061395917
8.920317912652457,-1.229146430138207,13.350136350813841,3.6293389394020283
8.908026448351075,-1.352166132475186,13.386429740207861,3.54036355378461
8.894504787026323,-1.470985829084687,13.421833375745708,3.4589435050361748
8.879794928735476,-1.5861502280998356,13.45642281079607,3.3850434024132956
8.863933426454478,-1.6982123670324034,13.490273244820203,3.318647393786272
8.846951302784154,-1.807732237251801,13.523459718758065,3.259767410196972
8.828873980411636,-1.915276962377709,13.556057392860035,3.2084505706265847
8.80972121078786,-2.0214223218426532,13.5881418985663,3.164786018205245
8.789506987569434,-2.126755444160062,13.619789758748354,3.1289114193264975
8.768239433127833,-2.2318785173512166,13.65107887294162,3.1010193049545642
8.745920647954321,-2.3374133694893717,13.682089065991166,3.08136336221747
8.722546514259427,-2.4440067504919503,13.712902699613341,3.0702646814846943
8.698106446754508,-2.5523360818476077,13.743605346428188,3.068117807917589
8.672583085936033,-2.6631153095335627,13.774286524507364,3.075396201616128
8.645951932840697,-2.7771002578547646,13.805040486523525,3.0926563202564212
8.618180930262149,-2.8950924759691032,13.83596704972609,3.1205389126501997
8.589230005502458,-3.0179398964784676,13.867172438852592,3.159765110650257
8.559050606537673,-3.146531536449328,13.898770089959093,3.21112331629717
8.52758529117318,-3.281781744645134,13.930881323122065,3.275440387724019
8.494767473726728,-3.424596833461385,13.963635726999305,3.353526805806978
8.460521505392114,-3.575812981298633,13.997170995057376,3.446079864145351
8.424763375579127,-3.7360888148715268,14.031631793698828,3.5535211427632
8.387402487430412,-3.905729441448431,14.06716700512646,3.675735128594058
8.348345193015929,-4.084413044137358,14.103924356412401,3.811667901499392
8.307501062574556,-4.270792868633848,14.142041035427395,3.958747405460346
8.264793133888217,-4.461971079280177,14.181628509481998,4.112120650280418
8.220173423095416,-4.652912236681947,14.222749715984802,4.263804691600793
8.173644300728595,-4.836011138665665,14.26538776290081,4.402057289609172
8.125284189341938,-5.001238446565022,14.3094083357969,4.51157005699406
8.075271804876287,-5.137406842804159,14.354524036366842,4.575258034516727
8.023897736448246,-5.234793846451586,14.40027661671201,4.577988198461205
7.97154979798373,-5.288396738565937,14.446056498696622,4.511230125393445
7.918665830598071,-5.3000538397864,14.491168799950557,4.376131408248832
7.865665292200207,-5.277897263988137,14.534930114033045,4.182830452160777
7.8128863195603255,-5.233432891331854,14.576758418554654,3.9463947358873583
7.760551990647007,-5.178150301494313,14.616222365913528,3.682051511435824
7.708770487632063,-5.1213304120582155,14.653042881027886,3.402069552173323
7.657557183511481,-5.069390266984604,14.687063576549619,3.114791919247194
7.606863280841635,-5.026210174706267,14.718211495742091,2.8250572874116613
7.556601179094573,-4.993802196939618,14.746462068616207,2.535116317691213
7.5066631571251765,-4.972947716800769,14.77181323179312,2.245520237152106
7.456933679957169,-4.963676116704886,14.79426843416464,1.955799311544852
7.40729691879012,-4.965581456480866,14.81382642728009,1.6649241351541408
7.357641104225311,-4.978014499931251,14.83047566863163,1.3716002176972233
7.307860959225999,-5.00018984190346,14.844191670808602,1.0744504809286262
7.257859060806965,-5.031238809383003,14.854936175617889,0.7721280233838059
7.207546672713135,-5.070229014329531,14.862657455851727,0.46338795183895726
7.156844382569839,-5.116163964114566,14.867291335370115,0.14713651980097675
7.1056827429286935,-5.167971160948796,14.868762700568125,-0.1775314549511821
7.054003031319206,-5.224484057041523,14.866987386018613,-0.5113006858157053
7.001758190748791,-5.284421456274227,14.861874379160456,-0.8546059113336368
6.948913976186049,-5.346366990487342,14.85332832004712,-1.2076037170186085
6.895450306281175,-5.408750820231133,14.841252282876935,-1.5701460081833274
6.841362798078864,-5.469835494101337,14.825550822795101,-1.9417564313369244
6.78666444313785,-5.527707795786389,14.806133258481731,-2.321611712712903
6.7313873651799865,-5.5802783076409295,14.782917141354602,-2.708530294510515
6.6755845821035775,-5.625290250621565,14.755831838409497,-3.1009708091566486
6.619331679597362,-5.660338876756039,14.72482213031793,-3.4970428344482896
6.562728290829802,-5.682902271347518,14.689851701973447,-3.8945320212525094
6.505899268116327,-5.69038387034448,14.650906381760922,-4.2909411044993995
6.448995429412882,-5.680166334085118,14.607996970715929,-4.683547544770642
6.392193766072031,-5.649675671323437,14.561161495268223,-5.069477665053469
6.335697009358797,-5.596453705240032,14.510466718617689,-5.445796209343897
6.279732472306397,-5.518236136068884,14.45600875652425,-5.809609305661398
6.2245501109457075,-5.413032596639006,14.397912663467636,-6.1581778909074405
6.170419784979318,-5.279204238276126,14.336330884558562,-6.4890377576383464
6.117627742596556,-5.11553357613051,14.271440506982179,-6.800121530757202
6.066472406835251,-4.921280669557016,14.203439291674608,-7.089877137684614
6.01725960013968,-4.696219380844619,14.132540520297761,-7.357376836122459
5.970297406331234,-4.440647650580299,14.058966751936536,-7.602410825034525
5.925890929825431,-4.155366638671888,13.98294264368619,-7.825560142771272
5.884337263438712,-3.8416252936484305,13.904687042258477,-8.028245166869572
5.845921010502228,-3.501029334709191,13.824404590589781,-8.21274864895127
5.810910717155136,-3.135416447489782,13.742277104100268,-8.38221570285043
5.779556552680238,-2.74670221303957,13.658454947071764,-8.540637133343804
5.752089530549842,-2.3367033673172664,13.573048575738326,-8.692826377825675
5.728722496876669,-1.906946034237889,13.48612031196007,-8.844403466592597
5.70965303653429,-1.458466598015168,13.397676277294144,-9.001801057545647
