th1 (rad),w1 (rad/s),th2 (rad),w2 (rad/s)
2.2389032603594723,-0.5979023873463741,3.6755743005888424,-1.109895307609443
2.2329242364860087,-0.672492964229473,3.664475347512748,-1.0535850174359405
2.226199306843714,-0.7481014181228899,3.6539394973383885,-0.9986303728405151
2.218718292662485,-0.824668588259377,3.6439531936099834,-0.9452117180509291
2.2104716067798913,-0.9021370729421847,3.634501076429474,-0.8935173504120713
2.2014502360504693,-0.9804520267648811,3.6255659029253535,-0.8437429183557656
2.1916457157828204,-1.0595619644690142,3.6171284737417957,-0.7960908436743881
2.1810500961381303,-1.1394195593812284,3.609167565305052,-0.7507697819145338
2.169655900544318,-1.2199824240333665,3.6016598674859064,-0.7079941343733794
2.1574560763039843,-1.3012138603270926,3.5945799261421727,-0.6679836245223183
2.1444439377007134,-1.3830835664484773,3.5879000898969493,-0.6309629506671177
2.1306131020362287,-1.465568287656625,3.581590460390278,-0.5971615252432846
2.1159574191596624,-1.5486523980490914,3.5756188451378454,-0.5668133092994064
2.1004708951791713,-1.6323284004243106,3.5699507120448515,-0.5401567484014076
2.084147611174928,-1.7165973313871405,3.5645491445608375,-0.517434813363603
2.0669816378610566,-1.8014690588364324,3.5593747964272016,-0.498895145853093
2.0489669472726924,-1.8869624588799923,3.5543858449686705,-0.4847903050074928
2.0300973226838925,-1.9731054589784338,3.5495379419185955,-0.47537810674786474
2.010366268094108,-2.059934933653251,3.544784160851117,-0.47092204246438757
1.9897669187575757,-2.147496438330629,3.540074940426473,-0.4716917582150353
1.9682919543742694,-2.235843765758578,3.5353580228443224,-0.477963569526648
1.9459335167166836,-2.325038307868878,3.530578387149056,-0.4900209803473444
1.9226831336379948,-2.415148203914268,3.5256781773455828,-0.5081551676987812
1.8985316515988522,-2.506247253181238,3.520596625668595,-0.5326653861548122
1.8734691790670397,-2.5984135675847155,3.515269971807047,-0.5638592384844766
1.8474850433911925,-2.691727936067729,3.509631379422202,-0.6020527507250185
1.8205677640305151,-2.7862718690927717,3.5036108519149516,-0.6475701817229135
1.7927050453395874,-2.8821252878307684,3.4971351500977224,-0.7007434889923815
1.7638837924612798,-2.9793638192210645,3.4901277152077985,-0.7619113648785403
1.7340901542690692,-3.0780556552793854,3.482508601559013,-0.8314177498835361
1.7033095977162753,-3.178257933361061,3.4741944240601774,-0.9096097241744608
1.6715270183826647,-3.2800125941421996,3.465098326818433,-0.9968346744701333
1.6387268924412428,-3.3833416765642497,3.455129980073732,-1.0934366326162197
1.6048934756756004,-3.488242014689607,3.4441956137475698,-1.199751685307942
1.5700110555287043,-3.59467931118907,3.4321980968944903,-1.3161023628717263
1.5340642624168137,-3.7025815768862156,3.419037073265773,-1.4427909301395252
1.4970384466479516,-3.811831946212602,3.404609163964378,-1.5800915256122827
1.4589201271858256,-3.922260905206576,3.388808248708255,-1.7282411275352898
1.4196975181337599,-4.033638002150308,3.3715258374329022,-1.887429368076747
1.3793611381122568,-4.145663150986384,3.3526515437521347,-2.0577872698098143
1.337904506602393,-4.25795768362383,3.3320736710540366,-2.239375041613913
1.2953249297661547,-4.370055357803758,3.3096799206378975,-2.432169142342432
1.2516243761881172,-4.481393580316616,3.285358229214473,-2.6360488973647658
1.206810440384951,-4.591305158390414,3.2589977402408254,-2.850783031418525
1.160897388801047,-4.699010941936918,3.23048990992664,-3.0760165562172372
1.1139072793816778,-4.803613762944301,3.199729744364468,-3.311258517680592
1.0658711417522349,-4.904094112984916,3.166617159187662,-3.555871160663759
1.0168302006223857,-4.999308023890073,3.1310584475810246,-3.809061105318253
0.966837120383485,-5.087987629843526,3.092967836527842,-4.069873147918556
0.9159572440850497,-5.1687448926415085,3.0522691050486563,-4.3371873026463925
0.8642697951586347,-5.240078967809017,3.0088972320221923,-4.609719695349817
0.8118690054805445,-5.3003876795043565,2.9628000350686943,-4.886027914009855
0.7588651286855009,-5.347983556153435,2.9139397559285958,-5.164521421934334
0.7053852931239666,-5.38111485088277,2.8622945417092525,-5.443477653277429
0.6515741446151389,-5.397991917476147,2.8078597651764783,-5.7210644327759015
0.5975942254403774,-5.39681921025052,2.750649120848719,-5.995369376166834
0.5436260333378722,-5.375832991624739,2.690695427087051,-6.264436902428051
0.4898677034216248,-5.333344524795113,2.6280510580627703,-6.526313376578353
0.43653425817367364,-5.2677880635639935,2.5627879242969867,-6.779100646433842
0.3838563775380337,-5.177772305101529,2.494996917832648,-7.021017787064834
0.3320786544870184,-5.062133154438379,2.424786739962,-7.250470195406108
0.2814573229426346,-4.9199847205163465,2.352282038007939,-7.466124304209404
0.23225747573747113,-4.750764540090273,2.277620794965845,-7.666985196152673
0.1847498303365684,-4.554268280120913,2.2009509430043184,-7.8524734582327005
0.13920714753535926,-4.33066880504273,2.1224262084219916,-8.022496950593876
0.09590045948493195,-4.0805147012327545,2.0422012389160527,-8.177513026485599
0.0550953124726044,-3.804704240506942,1.9604261086511967,-8.318577351416154
0.017048270067534982,-3.5044323165278923,1.8772403351370353,-8.447376947562784
-0.017996053097743943,-3.1811099133152827,1.7927665656614074,-8.566247394528467
-0.04980715223089677,-2.836257818291723,1.7071040917161227,-8.678177036206911
-0.078169730413814,-2.4713781397909864,1.6203223213540536,-8.786804223327437
-0.10288351181172387,-2.087808322713146,1.5324542791207794,-8.896416646451213
-0.12376159503885532,-1.6865625322696518,1.4434901126562671,-9.01196428398385
-0.14062722036155184,-1.268164562611973,1.3533704698164286,-9.139099030594238
-0.15330886598767157,-0.8324753869902055,1.2619794795104862,-9.284254177923437
-0.16163361985757363,-0.3785184947105923,1.1691369377312517,-9.454774438192802
-0.16541880480467955,0.09568969744431394,1.0745891933493237,-9.659099054386479
-0.1644619078302364,0.5932820797966785,0.9779982028054589,-9.906978723346128
-0.15852908703226962,1.1185922105279074,0.8789284155719976,-10.209651590256177
-0.14734316492699054,1.6769481175307752,0.7768318996694359,-10.579766168378132
-0.1305736837516828,2.273795791720964,0.6710342379856545,-11.030507634242047
-0.10783572583447315,2.912181780021328,0.560729161643234,-11.572620788770928
-0.07871390803425987,3.586489334032289,0.4450029537555248,-12.206443967864619
-0.04284901469393698,4.268663323030571,0.32293851407687857,-12.903696506501559
-0.00016238146363126843,4.883827365780872,0.193901549011863,-13.5744389889679
0.04867589219417746,5.287849095339341,0.05815715912218397,-14.035757863407545
0.10155438314757087,5.305335732958091,-0.08220041951189147,-14.061590954715019
0.15460774047715178,4.879900062517121,-0.22281632905904167,-13.583840986475236
0.20340674110232299,4.165076660516128,-0.35865473892379407,-12.809914305647164
0.24505750770748427,3.3695739120651393,-0.4867538819802657,-12.009941349034694
0.2787532468281357,2.607792058132838,-0.6068532954706126,-11.321492037585125
0.30483116740946403,1.9106617871072673,-0.7200682158464639,-10.771789289653162
0.3239377852805367,1.274841390672338,-0.8277861087429955,-10.34585569542146
0.33668619918726006,0.6885310401318931,-0.9312446656972101,-10.020261675172431
0.343571509588579,0.14018633062385588,-1.0314472824489345,-9.773557723965913
0.34497337289481755,-0.3793407975011719,-1.1291828596885936,-9.588213488970322
0.34117996491980584,-0.8766645977846159,-1.2250649945782968,-9.4501963670056
0.3324133189419597,-1.3562140349792229,-1.3195669582483527,-9.348127309396489
0.31885117859216744,-1.820627057474336,-1.4130482313423176,-9.272532667208893
0.30064490801742405,-2.271089078849176,-1.5057735580144065,-9.21528917874203
0.2779340172289323,-2.7076119214424508,-1.5979264498018269,-9.169248344735088
0.2508578980145078,-3.1292722308406535,-1.6896189332491778,-9.12800526257103
0.21956517570610126,-3.534428526885889,-1.780898985874888,-9.08577833034962
0.18422089043724238,-3.9209298814743327,-1.8717567691783843,-9.03737084946035
0.14501159162249905,-4.286321779426945,-1.9621304776729878,-8.978188907697456
0.1021483738282296,-4.628047832831155,-2.051912366749962,-8.904291911570137
0.055867895499918045,-4.943640644133442,-2.1409552858656635,-8.81245385195216
0.006431489058583623,-5.230891953707558,-2.229079824385185,-8.700215975695619
-0.04587743047849196,-5.487991678113773,-2.316081984142141,-8.565915679170343
-0.10075734725962969,-5.713627494959446,-2.4017411409338445,-8.408682128375311
-0.15789362220922415,-5.90704065901779,-2.4858279622175976,-8.228395657737348
-0.21696402879940205,-6.068038701599651,-2.5681119187949712,-8.0256142908136
-0.27764441581539856,-6.196970374039885,-2.648368061703107,-7.801475614014503
-0.3396141195557974,-6.294671637672931,-2.7263828178432523,-7.557584929991405
-0.4025608359325267,-6.3623931185691385,-2.8019586671431664,-7.295900917634703
-0.46618476711821805,-6.401719212167679,-2.8749176763195137,-7.018628310480027
-0.5302019592398949,-6.4144873530259225,-2.945103959424314,-6.72812413925643
-0.5943468327701541,-6.402713496347614,-3.012385200816878,-6.426820736913131
-0.6583739677336302,-6.368527234159858,-3.0766534081860093,-6.117165707327452
-0.7220592400752288,-6.3141176825715615,-3.1378250652592836,-5.801576869913237
-0.7852004169009444,-6.241689604769015,-3.195840833958416,-5.482408975348495
-0.8476173129486346,-6.153428251895306,-3.250664923711901,-5.161928672240293
-0.9091515954675877,-6.051471038275076,-3.302284210434304,-4.842294578497532
-0.9696663058503385,-5.937884265175697,-3.350707156219279,-4.52554010800277
-1.0290451485020955,-5.814643490026195,-3.395962557299307,-4.213557666415334
-1.0871915834023576,-5.683616640470886,-3.4380981339634604,-3.9080837510430184
-1.1440277498070663,-5.546549463816131,-3.4771789714738905,-3.6106852245737437
-1.1994932444452278,-5.405053293986321,-3.513285823719628,-3.3227475035888916
-1.253543777385091,-5.260595364268634,-3.546513298755517,-3.0454655926852143
-1.3061497310277774,-5.114491986305321,-3.576967954682369,-2.779838834073474
-1.3572946508908306,-4.967904873889635,-3.604766343023104,-2.5266699935838655
-1.4069736996297268,-4.8218407521093996,-3.6300330429589427,-2.2865689459038423
-1.455192107150821,-4.677154203655504,-3.652898732417981,-2.0599608336593125
-1.501963649187376,-4.534553508118051,-3.673498340754574,-1.8470982233029742
-1.5473091842685565,-4.394609061474487,-3.6919693229876036,-1.648076512028517
-1.5912552748833013,-4.257763843900369,-3.7084500881078886,-1.4628516773333171
-1.633832913322305,-4.124345343654568,-3.7230786048812217,-1.2912594064589054
-1.6750763667588509,-3.9945783411468003,-3.7359911989458108,-1.133034682698527
-1.715022150170319,-3.8685980006499903,-3.747321545772796,-0.9878310158148618
-1.7537081301768187,-3.7464627936699166,-3.7571998559309447,-0.8552386575620872
-1.791172758113518,-3.6281668731293144,-3.7657522425065655,-0.7348013151690217
-1.8274544268448112,-3.513651618230303,-3.773100255658256,-0.6260310449729278
-1.8625909430271141,-3.402816166000271,-3.779360566107985,-0.5284211606645414
-1.8966191046871168,-3.2955268303155987,-3.7846447777146306,-0.44145711736282867
-1.9295743729902728,-3.1916253789751687,-3.7890593488882587,-0.36462543069779296
-1.9614906267800245,-3.090936193043067,-3.7927056031952366,-0.29742075979929394
-1.992399988710455,-2.993272370897344,-3.7956798107932297,-0.23935132760228323
-2.0223327124194284,-2.8984408640327675,-3.7980733240692524,-0.18994287550440891
-2.051317121059756,-2.80624674504032,-3.7999727528242966,-0.14874135685298479
-2.079379588510159,-2.7164967128174924,-3.8014601663928262,-0.1153145694702796
-2.106544555638334,-2.6290019382903,-3.802613312087529,-0.08925291534668742
-2.132834575021237,-2.5435803477832404,-3.803505841240996,-0.07016945890794793
-2.1582703784990698,-2.460058432322241,-3.8042075358300753,-0.057699436315090925
-2.182870962822292,-2.3782726608948455,-3.8047845301932264,-0.05149934882131158
-2.2066536894312403,-2.298070564984924,-3.8052995236814393,-0.05124575444834771
-2.2296343950810895,-2.2193115512272548,-3.8058119812259226,-0.0566338548567595
-2.2518275105933623,-2.1418674892449325,-3.80637831977449,-0.06737595862490237
-2.2732461854858115,-2.065623112919197,-3.807052079360739,-0.0831998883299089
-2.2939024166150035,-1.9904762656459012,-3.807884078244038,-0.10384738678751919
-2.3138071792714623,-1.9163380136097192,-3.808922552111913,-0.12907256740560374
-2.3329705594075594,-1.8431326457435442,-3.810213277785969,-0.15864044464017543
-2.3514018858649948,-1.7707975747768603,-3.8117996822323708,-0.19232557280163914
-2.3691098616127633,-1.6992831505219181,-3.813722937960387,-0.22991081474382535
-2.3861026931179823,-1.6285523941879267,-3.8160220461078254,-0.27118625610656427
-2.4023882170598614,-1.5585806609258506,-3.818733908668891,-0.3159482756359849
-2.41797402366912,-1.4893552368578782,-3.821893391425251,-0.36399877757310206
-2.4328675760376988,-1.4208748764034687,-3.8255333792009822,-0.41514458811148197
-2.4470763248017335,-1.3531492856497205,-3.829684825082097,-0.46919701443698475
-2.460607817658231,-1.2861985577086212,-3.834376795226467,-0.5259715618542748
-2.473469803235317,-1.2200525663523187,-3.83963651084501,-0.5852878019641715
-2.4856703288988404,-1.1547503246322521,-3.8454893888646517,-0.6469693827736253
-2.497217832145163,-1.0903393156012118,-3.851959082692388,-0.7108441699822698
-2.508121225301175,-1.0268748026227004,-3.8590675243922106,-0.7767445074728612
-2.518389973327402,-0.9644191270432707,-3.866834969466939,-0.8445075842026495
-2.528034164597835,-0.9030410012126678,-3.8752800453089655,-0.913975894202879
-2.5370645746099614,-0.8428148049693653,-3.8844198042509945,-0.9849977761900504
-2.545492722659655,-0.7838198937799896,-3.894269782012895,-1.0574280193178112
-2.553330921597455,-0.7261399267479,-3.904844062206073,-1.1311285217972498
-2.560592320864934,-0.6698622227043292,-3.9161553474240454,-1.2059689894390546
-2.5672909430919773,-0.6150771525737962,-3.928215037318436,-1.2818276615894526
-2.573441714617715,-0.5618775761630506,-3.9410333139343305,-1.3585920524249546
-2.5790604903793457,-0.5103583314477718,-3.95461923445858,-1.4361596961369631
-2.5841640736938234,-0.4606157843016508,-3.96898083141995,-1.5144388851888768
-2.5887702315368397,-0.41274744639867006,-3.9841252202718387,-1.593349391588043
-2.5928977060008265,-0.366851668687856,-4.000058714187719,-1.672823162009169
-2.596566222687705,-0.3230274173575064,-4.0167869458078105,-1.7528049786576108
-2.59979649686128,-0.28137413854479165,-4.034314995594387,-1.8332530789828654
-2.602610238246728,-0.241991717186973,-4.052647526384216,-1.9141397287403086
-2.6050301554185977,-0.20498053434299213,-4.071788923671619,-1.9954517444271835
-2.607079960762028,-0.17044162604021112,-4.091743441115891,-2.077190962737632
-2.60878437702243,-0.13847694523069493,-4.112515350743267,-2.159374656317806
-2.610169146474737,-0.10918972678953948,-4.134109097306444,-2.2420358966601945
-2.6112610437426325,-0.08268495366845852,-4.156529456273046,-2.3252238663417
-2.612087893279317,-0.05906992033749778,-4.179781694936463,-2.409004123852886
-2.612678592482692,-0.03845488749714031,-4.203871736174992,-2.493458824844807
-2.6130631413576633,-0.020953819689272648,-4.228806324423441,-2.578686903583898
-2.613272679554556,-0.006685194813627662,-4.2545931934592796,-2.6648042175943734
-2.6133395315026924,0.004227128438454252,-4.281241235635223,-2.7519436567093236
-2.613297260218308,0.011653002741539787,-4.308760672202316,-2.8402552148567892
-2.6131807301908925,0.015455065648006635,-4.337163224350884,-2.9299060186599615
-2.6130261795344123,0.01548782147811177,-4.366462284537484,-3.02108030107811
-2.612871301319631,0.01159676522269074,-4.3966730875482645,-3.1139793005518004
-2.6127553336674043,0.003617590477797649,-4.427812880553782,-3.2088210560698522
-2.6127191577626263,-0.00862446589800994,-4.459901091114481,-3.305840055790155
-2.6128054024216065,-0.025315076148015273,-4.492959491672383,-3.4052866807678006
-2.6130585531830866,-0.04665098758501069,-4.527012358480061,-3.5074263653107187
-2.613525063058937,-0.07283979718955273,-4.562086622133168,-3.612538370727138
-2.6142534610308323,-0.10409920305751211,-4.598212005840439,-3.72091403889466
-2.6152944530614075,-0.1406555679723111,-4.635421146229386,-3.8328543552715386
-2.6167010087411304,-0.1827415904939172,-4.673749689782102,-3.9486666068472993
-2.6185284246460694,-0.23059283156610327,-4.713236355850575,-4.068659868479264
-2.6208343529617304,-0.28444278968267617,-4.753922954535367,-4.193138990979809
-2.6236787808585573,-0.34451615597999086,-4.795854344445165,-4.32239669705527
-2.6271239424183572,-0.4110198146417347,-4.839078311415718,-4.456703319225001
-2.6312341405647746,-0.48413108856956555,-4.8836453446079675,-4.596293642242406
-2.6360754514504703,-0.5639826739517201,-4.929608281030392,-4.741350250331314
-2.6417152781899875,-0.650643674061556,-4.977021783533705,-4.891982741522863
-2.648221714930603,-0.7440961535987741,-5.025941610948934,-5.048202180258921
-2.6556626764665907,-0.8442067209186113,-5.076423632751523,-5.209890248292739
-2.664104743675777,-0.9506928486814528,-5.128522535234451,-5.376762768252034
-2.6736116721625915,-1.0630840177023273,-5.1822901629169715,-5.548327672570117
-2.684242512339615,-1.1806783771580764,-5.237773439642672,-5.723838141717333
-2.696049296111196,-1.3024965206241752,-5.295011821059846,-5.902242609990874
-2.7090742613174377,-1.427235228426732,-5.354034247159754,-6.082134686847267
-2.723346613601705,-1.5532256214738134,-5.414855594028227,-6.261707767732099
-2.738878869816443,-1.6784020157869484,-5.477472671705548,-6.438721110144548
-2.7556628899743125,-1.800289616772979,-5.541859882806993,-6.610486164907443
-2.7736657861420424,-1.9160206036892728,-5.607964744456067,-6.773883496597521
-2.792825992178935,-2.022388468851558,-5.675703579422042,-6.925420983288615
-2.8130498768674506,-2.115948890658063,-5.744957789254928,-7.061342280901632
-2.834209365774031,-2.193171195939489,-5.8155712120639445,-7.177789971164517
-2.856141077733426,-2.2506372883883192,-5.88734911177559,-7.271020049979697
-2.878647450617309,-2.285275324962928,-5.960059312275387,-7.337654059457574
-2.9015002038669384,-2.2946051198233337,-6.033435852869963,-7.374944097154012
-2.9244462550651718,-2.2769640308932595,-6.107185293841503,-7.381017173953553
-2.9472158953741046,-2.2316790878928345,-6.180995465581039,-7.355062312513672
-2.9695326862530327,-2.1591556247974504,-6.254546088706175,-7.2974287515599014
-2.9911242425010074,-2.0608648127636933,-6.327520376221774,-7.2096166741244945
-3.0117328906286445,-1.9392296945543026,-6.399616542963019,-7.0941601754852215
-3.0311251875741876,-1.7974270364128229,-6.470558144717872,-6.954420838004514
-3.0490994579383157,-1.6391356866601259,-6.540102353097917,-6.794324203168045
-3.065490814804917,-1.4682679128534104,-6.608045595129598,-6.618077327564402
-3.080173493933451,-1.288717820164314,-6.674226368405241,-6.429903026135709
-3.093060672135094,-1.1041523795940862,-6.7385253986665985,-6.233817460379016
-3.104102195931035,-0.9178591156918445,-6.800863573270389,-6.033465864261103
-3.1132807870879535,-0.7326533755107353,-6.861198231913,-5.832019747782059
-3.1206073208430607,-0.5508395519837241,-6.919518429390821,-5.632130123035907
-3.126115716362898,-0.3742155547267767,-6.97583973062118,-5.43592603818466
-3.1298578719101657,-0.20410799315708958,-7.030198991003027,-5.245045749273088
-3.1318989518417366,-0.04142611958968101,-7.082649448495758,-5.060688357051481
-3.132313213037633,0.11327543158711254,-7.1332563320662725,-4.883675675318827
-3.131180458721762,0.2597325443716577,-7.182093088819461,-4.71451660839139
-3.1285831332780454,0.39791112696944475,-7.229238254903375,-4.5534687943401035
-3.124604022008351,0.5279531045839928,-7.274772942846776,-4.400594382546253
-3.119324490962511,0.6501302013975978,-7.318778886672239,-4.255808432264588
-3.1128231889485347,0.7648057261747759,-7.361336970994885,-4.118919549496709
