th1 (rad),w1 (rad/s),th2 (rad),w2 (rad/s)
6.193353896949125,-0.4485775745221326,2.563531577435165,-0.1711569908165461
6.188868121203903,-0.47349844970622157,2.5618200075269995,-0.24765738893866177
6.184133136706841,-0.49785949295588156,2.5593434336376126,-0.32393767210999214
6.179154541777282,-0.5216044000774294,2.5561040569165128,-0.40000631478985316
6.173938497776508,-0.5446781298416101,2.5521039937686143,-0.4758723789565977
6.1684917164780915,-0.5670266097256682,2.5473452699790484,-0.5515452205861597
6.162821450380835,-0.5885964331026728,2.541829817773187,-0.6270341840116641
6.156935486049808,-0.6093345494901614,2.5355594759330704,-0.7023482857593921
6.150842140554906,-0.6291879496874182,2.5285359930754763,-0.7774958897805082
6.144550261058032,-0.6481033479114731,2.520761034177671,-0.852484376409141
6.138069227578917,-0.6660268633863676,2.5122361904135797,-0.9273198078773442
6.1314089589450536,-0.6829037042465431,2.5029629923348065,-1.002006593805891
6.124579921902588,-0.6986778570789239,2.4929429263967475,-1.0765471607639894
6.117593143331798,-0.7132917859417864,2.482177454789108,-1.1509416307447524
6.11046022547238,-0.7266861452503335,2.4706680384816604,-1.2251875142263957
6.1031933640198766,-0.7387995114930002,2.4584161633393964,-1.2992794243664034
6.095805368904947,-0.7495681393175737,2.4454233690957325,-1.373208819786136
6.088309687511771,-0.7589257480750564,2.431691280897871,-1.4469637843186154
6.08072043003102,-0.766803345398345,2.4172216430546847,-1.5205288529772139
6.073052396577037,-0.7731290947823037,2.4020163545249127,-1.593884894214638
6.065321105629214,-0.777828234375493,2.386077505582766,-1.6670090592292321
6.057542823285459,-0.7808230542400503,2.369407414990474,-1.739874809581604
6.049734592743059,-0.782032939129321,2.352008666894658,-1.8124520346457398
6.0419142633517655,-0.78137448331531,2.3338841465482005,-1.8847072703689685
6.0341005185186125,-0.7787616831135938,2.3150370738445107,-1.9566040303884717
6.026312901687477,-0.7741062114509288,2.295471033540626,-2.0281032596876543
6.018571839572967,-0.767317777059258,2.2751900009437493,-2.0991639196231384
6.010898661802375,-0.7583045686333858,2.254198361747518,-2.169743711279119
6.003315616116041,-0.7469737815534752,2.2325009246347265,-2.239799941701
5.995845878300506,-0.7332322215695588,2.2101029252177167,-2.3092905346466397
5.98851355608481,-0.7169869762266091,2.1870100198712503,-2.3781751841308476
5.981343686322544,-0.6981461408631526,2.163228268029942,-2.4464166453296396
5.9743622249139126,-0.6766195818673436,2.1387641015766454,-2.513982153503454
5.9675960290952395,-0.6523197156787771,2.113624280041611,-2.5808449576867623
5.961072831938452,-0.6251622779670297,2.087815830464743,-2.6469859522101338
5.954821209158782,-0.5950670537021514,2.061345970942642,-2.712395385937406
5.94887053862176,-0.5619585356661138,2.034222017083268,-2.777074626702762
5.943250953265099,-0.5257664765334615,2.0064512708162403,-2.8410379571113262
5.937993288499764,-0.4864262981387628,1.978040891245127,-2.9043143778981886
5.933129025518377,-0.4438793210612851,1.948997747466145,-2.9669493966653393
5.928690232307764,-0.39807277823685294,1.9193282534994918,-3.029006783221525
5.924709504525395,-0.3489595779103951,1.8890381856672764,-3.090570278056882
5.9212199087462905,-0.2964977837309842,1.8581324828867076,-3.1517452477376393
5.91825493090898,-0.2406497829241866,1.8266150304093312,-3.2126602901769905
5.915848433079739,-0.18138111691670697,1.7944884275075612,-3.2734688037331066
5.914034621910572,-0.1186589521109257,1.76175373947023,-3.334350546767072
5.912848032389463,-0.05245017121687326,1.7284102340025593,-3.3955132285110285
5.912323530677294,0.01728093289801419,1.694455101717449,-3.4571941877213797
5.912496340006274,0.0905753790559061,1.659883159840235,-3.5196622325587734
5.913402093796833,0.1674826560028822,1.6246865375146473,-3.583219733486
5.915076920356862,0.24806434305238523,1.5888543401797872,-3.6482050808888964
5.917557563787386,0.33239822786000783,1.5523722893708982,-3.714995640952467
5.920881546065986,0.42058296856879596,1.5152223329613737,-3.7840113675843683
5.925087375751674,0.5127433642397116,1.47738221928553,-3.855719255529472
5.930214809394071,0.6090363184763898,1.4388250267302352,-3.9306388509662975
5.936305172578835,0.7096576062964086,1.3995186382205722,-4.0093490713628155
5.943401748641799,0.8148495827966077,1.359425147506944,-4.09249662617581
5.951550244469765,0.9249100020175322,1.318500181245186,-4.180806372751836
5.960799344489941,1.0402021413751368,1.2766921175176675,-4.27509398340122
5.971201365903693,1.161166442569485,1.2339411776836553,-4.376281330479108
5.982813030329388,1.2883338674839462,1.1901783643788642,-4.485414996363173
5.995696369004228,1.4223410958575464,1.1453242144152325,-4.603688244622658
6.009919779962803,1.56394750139319,1.099287331969006,-4.732466570403054
6.025559254976734,1.7140534240196814,1.0519626662649755,-4.8733164353896115
6.042699789216931,1.8737184023833964,1.0032295019110793,-5.028035708504907
6.061436973240765,2.0441763594762388,0.9529491448260302,-5.198682157048439
6.081878736835527,2.226841536660857,0.9009623232555458,-5.387592091895568
6.1041471522021356,2.423292946327341,0.8470864023365902,-5.5973731671277855
6.128380081665409,2.6352139210376575,0.7911126706653123,-5.830840113394318
6.154732220875785,2.8642429427266376,0.7328042695313691,-6.09083419096187
6.183374650303052,3.1116560026261246,0.6718959276217504,-6.379817417470228
6.214491210329313,3.377741494795419,0.6080977534470482,-6.699049940133494
6.248268625277267,3.6606444511805534,0.5411072540457132,-7.047040111967282
6.284875069789073,3.9543819857468754,0.4706368529260404,-7.4168477575604435
6.324418889646542,4.245820513013645,0.396468375350436,-7.791934042482681
6.366877094776679,4.511087844214852,0.31854903492560915,-8.141183122051057
6.411987973218827,4.713861626797622,0.23713720370509858,-8.416437880210463
6.459126589486804,4.81091359784683,0.15297282490299396,-8.559968545594586
6.507235725465272,4.769415264754122,0.0673731394470481,-8.528098538810031
6.554929878112814,4.5882526523727485,-0.017907845941052214,-8.320258273706637
6.6008124046365415,4.301968014387709,-0.10111042867811858,-7.984015740466244
6.643832084780419,3.960270946903501,-0.18095058608278103,-7.586697789750045
6.683434794249454,3.6045351147485145,-0.2568175639802815,-7.183385518503915
6.719480145396939,3.2592560317839685,-0.32865141916532065,-6.805746747247093
6.752072705714778,2.935193588301276,-0.3967088866377916,-6.466768244082504
6.781424641597791,2.635112850336458,-0.4613765690786166,-6.1687899193292814
6.807775770101156,2.357995771864024,-0.5230644682719094,-5.909274914231253
6.831355727819796,2.1013787304855494,-0.582157217414222,-5.683948437073944
6.852369515124652,1.8624734866184856,-0.6389967017849615,-5.488261777483637
6.8709942499908365,1.6386452159370561,-0.6938793195597979,-5.317986589720361
6.887380702150207,1.4275835750741777,-0.7470591854570015,-5.169402877881419
6.901656537900949,1.2273375297415545,-0.7987532142358157,-5.039312601998526
6.9139299131983645,1.036294945351875,-0.8491463402558009,-4.924987013354906
6.924292862651884,0.8531436112891324,-0.89839621038935,-4.824095523850355
6.932824298764775,0.6768294302269106,-0.9466371656278536,-4.734635885996559
6.939592593067044,0.5065178918803694,-0.9939835244878192,-4.654872860838996
6.944657771985847,0.34156067285914793,-1.0405322530962091,-4.583287109597306
6.948073378714438,0.18146739804516232,-1.0863651241921821,-4.518533855429587
6.94988805269489,0.025881919414882437,-1.131550462746478,-4.4594101128385555
6.9501468718890385,-0.12543771074584406,-1.1761445638748635,-4.404829143102628
6.94889249478158,-0.27263636282391257,-1.2201928553058898,-4.353800889249554
6.9461661311533405,-0.4157767272885894,-1.2637308641983853,-4.305417308421436
6.942008363880454,-0.5548525307873345,-1.3067850372825998,-4.25884168468237
6.93645983857258,-0.6898004842624761,-1.3493734541294236,-4.213301147057541
6.929561833729956,-0.8205112582029793,-1.391506465599999,-4.168081731033696
6.921356721147926,-0.9468396779481841,-1.4331872829103358,-4.1225254102169275
6.9118883243684435,-1.068614246688633,-1.4744125370125052,-4.0760285945504116
6.901202181901557,-1.1856460355860554,-1.5151728229580093,-4.028041649101044
6.889345721545697,-1.2977369291482252,-1.5554532394490197,-3.9780690388677367
6.8763683522542145,-1.4046871793386084,-1.595233929837697,-3.925669754996579
6.862321480460828,-1.506302203218473,-1.6344906273876627,-3.870457729311056
6.847258458428644,-1.6023985550162443,-1.6731952046807732,-3.81210199866194
6.8312344728784815,-1.6928090125422652,-1.7113162246673925,-3.75032643822081
6.814306382753059,-1.7773867372959757,-1.7488194890496007,-3.6849089421265226
6.796532515380099,-1.8560084943747617,-1.785668578470866,-3.615679988529262
6.777972430436351,-1.9285769489914877,-1.8218253783561584,-3.542520581216948
6.758686660946436,-1.995022087613414,-1.857250584168328,-3.4653596087401426
6.738736440070302,-2.055301840307045,-1.8919041802557295,-3.384170701722633
6.718183421667232,-2.109402004237937,-1.9257458872729558,-3.2989686980108863
6.697089401624853,-2.157335584631687,-1.9587355742530648,-3.209805842556759
6.675516045778536,-2.199141677927287,-1.9908336326786324,-3.1167678545223954
6.6535246289992624,-2.2348840222876665,-2.0220013112238564,-3.019969989054667
6.631175788776385,-2.2646493337741833,-2.052201011114403,-2.9195532072643333
6.608529295438643,-2.288545533622622,-2.0813965431870463,-2.815680547435121
6.585643840102417,-2.306699954824456,-2.1095533486613975,-2.7085337658863082
6.562576840554173,-2.3192575964137396,-2.1366386863202607,-2.598310289700076
6.539384264590035,-2.326379473237034,-2.1626217892172614,-2.4852204979439185
6.516120469857665,-2.3282410890960965,-2.1874739941967007,-2.369485324920314
6.492838058966703,-2.3250310432605183,-2.211168847445904,-2.25133415973671
6.4695877485340985,-2.316949765364785,-2.233682189043271,-2.1310030019839727
6.44641825088045,-2.3042083621929508,-2.254992219063111,-2.0087328239384266
6.423376167258521,-2.2870275520465317,-2.275079547302495,-1.884768085437333
6.400505891738056,-2.265636658234109,-2.2939272281568686,-1.7593553480488688
6.377849525155715,-2.2402726324305635,-2.3115207816373573,-1.6327419397292597
6.355446798831409,-2.2111790807723946,-2.3278482010346497,-1.5051746290119137
6.333335008023685,-2.178605270008042,-2.342899947324769,-1.3768982779785572
6.311548955323604,-2.142805097166433,-2.3566689301045547,-1.2481544548530925
6.29012090435194,-2.104036013379588,-2.3691504746530856,-1.1191799990877191
6.269080544218144,-2.0625579000505967,-2.380342274643963,-0.9902055434017947
6.248454965217638,-2.0186319029033837,-2.390244330077981,-0.8614540076253786
6.228268646188604,-1.972519236072336,-2.3988588701542346,-0.7331390877786232
6.208543453827881,-1.9244799738774967,-2.406190261032021,-0.6054637701452893
6.1892986540891055,-1.8747718519913394,-2.4122448987334737,-0.47861890392023154
6.170550935569192,-1.8236491021679442,-2.417031087772676,-0.352781867260918
6.152314444547513,-1.771361345530755,-2.4205589064452853,-0.22811536036293356
6.1346008310922056,-1.718152568672839,-2.4228400600489146,-0.10476635577435946
6.117419305405477,-1.6642602046850308,-2.4238877236066583,0.017134769048426868
6.100776703358626,-1.609914337941623,-2.423716375916174,0.13747489848961922
6.08467755997921,-1.5553370473411874,-2.422341626931278,0.256158633746312
6.069124189505798,-1.5007418980471816,-2.419780040593815,0.3731085326279705
6.054116770525327,-1.446333586922977,-2.4160489552675353,0.4882651383094069
6.039653434656097,-1.3923077421080414,-2.4111663038844413,0.6015868081172838
6.025730357235017,-1.3388508727926767,-2.4051504358032685,0.7130493594963823
6.0123418485070905,-1.2861404614196212,-2.398019942208305,0.8226455552615514
5.999480443892894,-1.234345187412822,-2.389793486655689,0.9303844539761266
5.987136992018766,-1.18362526918664,-2.380489642115928,1.0362906537832697
5.9753007393269,-1.1341329096462514,-2.3701267355780953,1.1404034593096342
5.963959410230437,-1.0860128296274312,-2.358722700984999,1.242776001481182
5.953099281934163,-1.0394028736789709,-2.3462949409701874,1.3434743394039115
5.942705253197373,-0.9944346731747983,-2.3328601975761485,1.4425765720589332
5.932760906465625,-0.9512343528509472,-2.318434431855559,1.5401719856422955
5.923248562937116,-0.9099232683843972,-2.303032711999136,1.6363602601410399
5.914149330253272,-0.870618764457992,-2.286669109397726,1.7312507563584207
5.905443142608692,-0.8334349447874637,-2.269356601834142,1.8249619022405366
5.897108793160817,-0.7984834477339127,-2.2511069828117365,1.91762069514404
5.889123958683478,-0.7658742233119065,-2.231930775860296,2.009362334721488
5.881465216450359,-0.7357163095666237,-2.2118371525130813,2.1003299994596882
5.874108053354693,-0.7081186083810497,-2.1908338525184843,2.1906747786315433
5.867026867270882,-0.6831906627414434,-2.1689271047321688,2.2805557705309853
5.860194960643468,-0.6610434392936027,-2.146121547026859,2.3701403573443853
5.853584526250532,-0.6417901216164481,-2.122420143453415,2.4596046668325786
5.847166625034367,-0.6255469209612008,-2.097824096785089,2.549134231083924
5.840911155824755,-0.6124339121644773,-2.0723327544742496,2.638924852835351
5.834786816703111,-0.6025759029066657,-2.045943505945896,2.729183690068502
5.828761057674044,-0.5961033442458481,-2.018651669045211,2.8201305695049643
5.822800024231586,-0.5931532890954594,-1.9904503633501613,2.911999538846025
5.816868491340631,-0.5938704025486331,-1.9613303679617011,3.0050406655207484
5.810929787315144,-0.5984080229533991,-1.9312799613064937,3.0995220854015053
5.8049457070856105,-0.6069292643082594,-1.9002847404524787,3.1957322970224187
5.798876414442528,-0.6196081372170977,-1.8683274174822546,3.2939826831732466
5.792680333070357,-0.6366306448187757,-1.8353875906505221,3.394610219116451
5.786314026622169,-0.6581957780362447,-1.8014414884593577,3.497980290191066
5.779732068841807,-0.6845162855329036,-1.766461685557447,3.6044894837853594
5.772886905986478,-0.7158190194581147,-1.7304167907195935,3.7145681303024185
5.765728715791896,-0.7523445457452094,-1.6932711094165693,3.8286822277584673
5.758205270334444,-0.7943455385360755,-1.6549842871389846,3.947334169404624
5.750261814949083,-0.8420832244128802,-1.6155109454449383,4.07106136504083
5.741840982704955,-0.895820763053294,-1.57480033179453,4.20043134839073
5.732882775074422,-0.9558118893405614,-1.5327960183106228,4.33603121463599
5.723324656181016,-1.0222823200965492,-1.489435706164263,4.478448123485797
5.71310183298005,-1.0954002494101522,-1.444651224929405,4.628235993317223
5.7021478304859485,-1.1752306191939261,-1.3983688649962327,4.785861248877179
5.69039552429401,-1.261665703765264,-1.3505102525074608,4.951617473157566
5.677778867256357,-1.3543220201407016,-1.300994077775885,5.125495194754054
5.664235647054951,-1.452391288151433,-1.2497391258283446,5.306989606408076
5.649711734173437,-1.5544328275028279,-1.1966692297642638,5.494828029426202
5.634167405898408,-1.6581002180299775,-1.1417209494700018,5.686605580936657
5.617586403718108,-1.759813453053519,-1.0848548936606353,5.878341593397668
5.599988269187572,-1.854429861242586,-1.0260714777266586,6.064025631802705
5.581443970575147,-1.9350418376692688,-0.9654312214086316,6.235323276018565
5.562093552198454,-1.9931266220810884,-0.9030779886484459,6.381744742758327
5.542162285977643,-2.019329946413039,-0.8392605412208627,6.491658188277471
5.521968986513512,-2.005046376911037,-0.774343959338088,6.554369507655499
5.501918522744401,-1.944542962389766,-0.708800264261533,6.562925279180851
5.482473093120504,-1.836795691625189,-0.6431710114697244,6.51651355561354
5.464105136204252,-1.6860035767485826,-0.5780058759135891,6.4210697679094135
5.447245100436766,-1.500371767245133,-0.5137951782344949,6.287562210777863
5.432241382764315,-1.2898226200758496,-0.4509195561267163,6.128882578299861
5.419343156563556,-1.0638098578148383,-0.3896307303437177,5.956942031066623
5.408705057985408,-0.8300143826185051,-0.3300613100330515,5.781002432565728
5.400404914159223,-0.5939833025995792,-0.2722512857073942,5.607288567068496
5.3944650811332275,-0.35936393309364634,-0.21617840003670924,5.439383956391543
5.390871441802291,-0.12836219992229883,-0.1617845604727938,5.278901330590754
5.389587819803069,0.09780108194590276,-0.10899554716688625,5.126125964645253
5.390565830622528,0.318526429119675,-0.057734287520433726,4.98051819810435
5.393751094913725,0.5335773731608258,-0.007929105539390226,4.841065285008991
5.399086868645333,0.7429099905735178,0.04048154731069969,4.706511740128723
5.406515968551068,0.9465665511432453,0.08754666471198691,4.575503452411117
5.415981634062501,1.1446128244447298,0.13330169923609808,4.446674881988166
5.427427762306948,1.337103957226261,0.17776844805597974,4.318700426557778
5.440798801879211,1.5240686129223486,0.22095545232155753,4.190324009477929
5.456039488008434,1.7055046099499078,0.2628586924163368,4.060375813733484
5.473094534107934,1.8813817105804584,0.30346245055367166,3.927781619754193
5.4919083512137385,2.05164878040128,0.3427402667512136,3.791567957299166
5.5124248390177515,2.216243526783115,0.3806559463242053,3.650864860144409
5.534587274285583,2.3751036357805053,0.4171645949256494,3.5049071301174095
5.5583383106433875,2.528178500604524,0.45221366622682346,3.353034481055291
5.583620095649433,2.6754409638695553,0.48574401103737636,3.1946906192621984
5.610374505288129,2.8168986398900877,0.5176909172299984,3.0294211468727084
5.63854349168703,2.952604480011835,0.5479851286987255,2.856870099493894
5.668069536487148,3.0826663163349246,0.5765538296936644,2.6767749191201933
5.698896199650497,3.20725518047474,0.6033215788848664,2.4889596981965587
5.7309687514552445,3.326612250669425,0.628211175866832,2.2933265982411037
5.7642348739619385,3.4410543340418576,0.651144441849243,2.0898454384741028
5.798645417302357,3.550977838582911,0.672042896233984,1.8785415617875143
5.834155195688186,3.6568612251727797,0.6908283118518592,1.659482216136009
5.870723807939913,3.7592659434876796,0.7074231340132193,1.4327618428507924
5.90831646737479,3.8588358318527094,0.7217507524417273,1.1984868503310238
5.946904825693316,3.956294878100428,0.7337356209450375,0.9567606935701791
5.98646777447432,4.052443064260175,0.7433032278807393,0.7076704146825985
6.0269922051169225,4.1481497049397325,0.7503799320275653,0.4512762889049462
6.06847370216632,4.244343166467489,0.7548926949166147,0.1876069621972915
6.110917133830995,4.3419950151042634,0.7567687645385877,-0.08333639017299455
6.154337083982037,4.44209533271822,0.7559354006368577,-0.3615615904209642
6.1987580373092195,4.5456139411060725,0.752319784732648,-0.6470446873480962
6.244214176720281,4.653439320434991,0.7458493378591671,-0.9396549128706937
6.290748569924631,4.7662828328358104,0.7364527887304602,-1.2390277445034665
6.338411398252989,4.884530447893128,0.7240625112854255,-1.5443611519997462
6.38725670273192,5.008018340133568,0.708618899765428,-1.8541023738396047
6.437336886133255,5.135705557053078,0.690077876027032,-2.1654888143511997
6.488693941703786,5.265224432040784,0.66842298788352,-2.4739182515767992
6.541346186024193,5.392324321795438,0.6436838053677519,-2.772174244694478
6.595269429242148,5.5103137435214,0.6159620629208071,-3.0496606352367586
6.650372566677362,5.609774082303285,0.5854654565684395,-3.2920376064495587
6.706470307500394,5.679031157303052,0.5525450805039439,-3.481951923521403
6.763260619073425,5.70593557673978,0.5177255612687299,-3.6016398981013915
6.820319974840823,5.6810445958785705,0.481709162287716,-3.6375224120259197
6.877130420799609,5.601152891778222,0.4453339381674568,-3.5852772337815333
6.933141949717391,5.4710921383833275,0.40948116582964145,-3.4524122327739164
6.987852871101224,5.302324398323008,0.3749570435019023,-3.2562284830502652
7.040876115084454,5.109117360940622,0.3423947586713996,-3.0182925739829476
7.09196728869386,4.904682132589658,0.3122118329315701,-2.7588221585747266
7.141014110019757,4.6990103118144795,0.28462361134582287,-2.4934877134253806
