th1 (rad),w1 (rad/s),th2 (rad),w2 (rad/s)
3.114022744109447,1.8314157754220735,3.634914634046935,-2.222005056188605
3.1323369018636673,1.826119640454056,3.612694583485049,-2.1876947183411595
3.150598098268208,1.8216056777389358,3.5908176363016375,-2.1546220821841624
3.168814155045597,1.8180846484499629,3.569271415479796,-2.1230188505150043
3.1869950015300965,1.8157767811523717,3.5480412269746457,-2.093132996767895
3.20515276934162,1.8149074831828713,3.5271098970069668,-2.0652223885552345
3.223301844173449,1.8157021048501116,3.5064576731214143,-2.0395470582248736
3.2414588652219503,1.8183798947689678,3.4860622025391654,-2.0163603054658648
3.25964266416964,1.8231473588547653,3.4658985994845066,-1.9958989234405697
3.2778741377581877,1.8301913032962416,3.4459396102501008,-1.9783729378011514
3.29617605079115,1.839671897241263,3.426155880872089,-1.9639553287098204
3.3145727697635627,1.8517161292680746,3.406516327584991,-1.9527722627869677
3.3330899310562434,1.8664120497170378,3.3869886049571214,-1.9448943899197828
3.3517540515534137,1.8838041864630233,3.3675396610579234,-1.9403297557879584
3.3705920934180438,1.9038904930146323,3.3481363635000436,-1.9390188421919636
3.3896309983481903,1.9266211331694878,3.328746175078124,-1.9408321711616714
3.408897209679885,1.9518993240910179,3.3093378533665074,-1.9455707928358161
3.428416202920795,1.9795843488682836,3.289882145438149,-1.9529698201934922
3.448212046409478,2.009496712481049,3.270352447236214,-1.9627049789181839
3.468307013534288,2.041425258658787,3.2507253974470323,-1.9744019180348416
3.488721266120876,2.075135902780599,3.2309813782666836,-1.9876477955240655
3.509472625148682,2.110381487118502,3.211104900311443,-2.0020044404388124
3.5305764400198667,2.146912152108507,3.1910848559070546,-2.0170222313702193
3.5520455615409516,2.184485562151165,3.1709146335933522,-2.0322537505062432
3.5738904171624633,2.2228763406332557,3.15059209608829,-2.0472662927835796
3.5961191805687958,2.2618841583796643,3.130119433160454,-2.0616524335877746
3.618738022152592,2.301340070772033,3.109502908824576,-2.0750380694793296
3.6417514228603127,2.341110887800783,3.0887525281297825,-2.0870876113621972
3.6651625317383205,2.3811015585940107,3.0678816520161605,-2.097506286377106
3.6889735473242604,2.421255728490516,3.0469065891523894,-2.106039752660108
3.7131861046091656,2.461554760507712,3.025846191625788,-2.1124714189064453
3.7378016522142428,2.5020155928049554,3.004721477436724,-2.1166179724528043
3.7628218081422924,2.5426878292775377,2.9835552977121957,-2.1183236550445144
3.7882486864350677,2.58365044034372,2.9623720611617506,-2.1174537967017617
3.814085190838505,2.6250083989154342,2.941197523194733,-2.113888044327763
3.8403352748276594,2.6668895072148358,2.9200586427514557,-2.107513623732267
3.8670041698998077,2.709441596436488,2.898983506514133,-2.098218869879033
3.8940985858641723,2.7528302127316655,2.8780013178153427,-2.0858871639105128
3.921626887991489,2.797236845231529,2.857142446176238,-2.0703913350168603
3.9495992564438045,2.8428577070625476,2.8364385328260693,-2.0515885239793477
3.97802783351443,2.8899030482607175,2.8159226475862758,-2.0293154632925803
4.0069268639970375,2.938596958317416,2.79562949295335,-2.003384104167153
4.036312833580212,2.989177603185695,2.7755956519116785,-1.9735775105651774
4.066204609612068,3.0418978341488745,2.7558598768060265,-1.9396459418244532
4.096623587953557,3.097026101358808,2.7364634173877818,-1.9013030559790591
4.1275938489671455,3.1548476007424413,2.7174503868279913,-1.8582221839488018
4.15914232497457,3.2156655773258844,2.6988681649885033,-1.810032649572274
4.1912989807478285,3.2798026990809075,2.6807678384927804,-1.7563161420693782
4.224097007738638,3.347602401604334,2.6632046770720867,-1.6966031867825642
4.257573031754681,3.419430083877927,2.646238645204261,-1.6303698084671516
4.29176733259346,3.495674007721294,2.6299349471195894,-1.5570345409991047
4.3267240726706735,3.5767457171996413,2.6143646017095983,-1.4759560104655356
4.36249152984267,3.663079748343373,2.599605041604943,-1.3864314075037127
4.399122327326103,3.7551323438261157,2.585740727529906,-1.2876962712468334
4.436673650764364,3.8533788225316044,2.5728637648174377,-1.1789261318248443
4.47520743898968,3.9583091827635486,2.561074503499189,-1.0592406991419192
4.514790530817316,4.070421445467752,2.55048209650777,-0.9277114366713849
4.555494745271994,4.1902121794232405,2.541204982141056,-0.7833735081933727
4.597396867066227,4.318163608425241,2.5333712470591223,-0.6252432119599369
4.640578503150479,4.454726702177705,2.5271188149395227,-0.4523420884995266
4.685125770172256,4.600299726470939,2.5225953940545276,-0.26372885939778323
4.7311287674369655,4.7552019094756846,2.5199581054605495,-0.058540165274444333
4.778680786531722,4.919642208252168,2.519372703807805,0.16395934820284952
4.827877208614244,5.09368366743096,2.5210122972898334,0.4043177676410928
4.878814045288554,5.277204568288869,2.525055474966244,0.6628287174517691
4.931586090971442,5.469858454042045,2.5316837621407617,0.9394589108750924
4.986284675511863,5.671036113058276,2.5410783512495128,1.2337748376415993
5.042995036642446,5.8798335592045925,2.5534160996259287,1.5448747787745893
5.101793372234492,6.095030744200611,2.568864847413675,1.8713338914441573
5.162743679676498,6.315085894752657,2.587578186328116,2.2111709646264175
5.225894538624025,6.538149721088184,2.6096898959743804,2.5618451276042054
5.2912760358349065,6.762102132927851,2.6353083472504224,2.92028892519579
5.358897057164185,6.984611575519425,2.6645112365023804,3.282980669654801
5.428743172919379,7.203213995026816,2.6973410431989286,3.6460541847651924
5.5007753128696475,7.415405354355301,2.7338015850465807,4.005438777705862
5.5749293664132,7.6187392698258725,2.773855972823639,4.357017623849801
5.651116759111459,7.8109203524707445,2.817426149062137,4.696789840853141
5.729225962636167,7.98988451789221,2.8643940474706686,5.021021099920133
5.809124807815089,8.153859728050008,2.91460425846987,5.326369771695296
5.890663405095589,8.301403790867152,2.967867956186823,5.6099797515548975
5.97367744300426,8.431419199883686,3.023967753702372,5.869536209312575
6.057991635003098,8.543147822427501,3.082663115795498,6.10328541357483
6.143423113227373,8.636150070465376,3.143695969931246,6.310023586920857
6.2297846139320265,8.710273880159495,3.2067962058004547,6.4890619945893615
6.316887352733621,8.76561854291481,3.271686825746348,6.640176153043009
6.40454353816277,8.802497499856402,3.3380885872767783,6.763546490374037
6.492568513161334,8.821402994799525,3.4057240521805188,6.859696468573035
6.580782543109329,8.822974275635527,3.474321016866249,6.9294325460051605
6.669012285865684,8.807970030229837,3.5436153423263006,6.973788766554418
6.757091986167983,8.777245022455869,3.6133532299918447,6.993977420579721
6.844864436392541,8.731730457654887,3.6832930041976417,6.991346218945274
6.93218174096909,8.67241740761187,3.7532064663870943,6.967341753788899
7.018905915045209,8.600342597198772,3.8228798839249833,6.9234786374363315
7.104909341017196,8.516575933077789,3.8921146702993465,6.861313543764512
7.190075100347974,8.422209285460374,3.9607278057369917,6.782423354771474
7.274297193202577,8.318346177910549,4.0285520392847065,6.688386680475714
7.357480654981683,8.206092172827042,4.095435906089464,6.580768128400406
7.439541576709954,8.08654584842679,4.161243587373468,6.461104819702099
7.520407035194221,7.960790342129852,4.225854635570489,6.330894764063592
7.60001493861552,7.829885486081226,4.289163583211125,6.1915868051216
7.678313793476333,7.694860587149409,4.351079451262341,6.0445719287727915
7.755262399347827,7.556707911518038,4.411525170550068,5.891175788259758
7.8308294784630075,7.416376928543154,4.470436928432666,5.7326523445779305
7.904993247748439,7.274769354967685,4.527763451878445,5.570178551418135
7.977740941298116,7.132735023039439,4.583465237392627,5.4048500336276755
8.04906829152851,6.991068577693905,4.637513737728904,5.237677719782153
8.11897897730545,6.850506990842189,4.689890514926725,5.0695853951567695
8.187484047213871,6.7117278661606745,4.740586368878293,4.9014081428846445
8.254601325875479,6.575348496118903,4.789600450307139,4.7338916396371316
8.320354810836667,6.441925624306123,4.83693936670351,4.567692268643323
8.384774067079729,6.311955860110562,4.882616289389944,4.403378007925968
8.447893625680834,6.185876689002752,4.926650069469203,4.2414300457731136
8.509752392570862,6.06406801958361,4.969064369926935,4.082245069130676
8.570393072766699,5.94685420774718,5.009886820618242,3.9261381642144064
8.62986161484417,5.834506498449061,5.049148202260386,3.7733462626184204
8.68820667982866,5.727245826453457,5.08688166488657,3.624032060943451
8.745479138093195,5.625245918947388,5.123121985496004,3.478288337839493
8.80173159728267,5.528636645028321,5.157904868874399,3.336142589637125
8.857017963732954,5.437507559801153,5.19126629477077,3.197561904606885
8.911393039330965,5.3519115941798585,5.223241913816839,3.062457996389367
8.964912155272764,5.271868845477765,5.253866493780732,2.9306923192020404
9.017630843727542,5.19737042845332,5.283173416972753,2.802081190851358
9.069604548012075,5.128382351580489,5.311194228881266,2.6764008540579662
9.12088837152788,5.0648493888240855,5.337958237421846,2.553392411763945
9.17153686541612,5.006698922986789,5.363492161539486,2.4327665775218374
9.221603854645988,4.953844742616131,5.387819827314704,2.3142081873503124
9.27114230207215,4.906190780388875,5.410961909188208,2.1973804241927186
9.320204209876039,4.863634786730498,5.432935713430135,2.08192870999543
9.368840557743344,4.826071938129503,5.453755000530089,1.9674842231608745
9.417101277124639,4.79339838518069,5.473429842761698,1.8536670005233216
9.465035260976446,4.765514750918129,5.491966512766932,1.7400885829058068
9.512690408485627,4.742329595632201,5.50936739859599,1.6263541616548807
9.56011370444195,4.723762870339142,5.5256309402125385,1.5120641802525125
9.60735133314534,4.709749387700406,5.540751582015064,1.3968153401018344
9.654448827022344,4.700242346870901,5.554719735416082,1.2802009527622156
9.701451250491054,4.695216957976962,5.567521744943704,1.1618105720686442
9.748403420070824,4.69467422327259,5.579139850664391,1.0412288283733695
9.79535016230355,4.69864494619712,5.589552138948124,0.9180333730664457
9.842336611765521,4.707194057401181,5.598732472678789,0.791791823789113
9.889408552339534,4.720425369340684,5.60665039091668,0.6620575782603509
9.93661280603294,4.7384868995086675,5.613270966699283,0.5283643359251622
9.983997675028027,4.761576938319414,5.618554610058535,0.39021912979535817
10.03161344441122,4.7899510829717595,5.622456801356488,0.24709362349407205
10.079512955240938,4.823930515603794,5.624927737591429,0.09841336774689252
10.127752260396976,4.863911875428428,5.625911871268898,-0.05645536688923403
10.17639137915126,4.9103791633064615,5.6253473176000055,-0.21822166172362428
10.225495170784326,4.963918226189907,5.623165100982769,-0.3876895266937253
10.275134353046225,5.025234499538304,5.619288205715832,-0.5657817251152267
10.325386698041608,5.095174835701284,5.61363038846468,-0.7535687469218044
10.376338446398622,5.174754403267545,5.606094700995461,-0.9523039813663234
10.428085990431297,5.265189772804364,5.596571661181798,-1.163466228072725
10.480737888159341,5.36793932801386,5.584936998901071,-1.3888105858802122
10.53441728143948,5.484751879552276,5.571048893042269,-1.6304282033127089
10.589264800235002,5.617723427333469,5.554744611009141,-1.8908137964024048
10.645442034508337,5.769359603580551,5.5358364730451175,-2.172936058832228
10.703135630544143,5.942635733340919,5.514107112456795,-2.480297662514438
10.762561987877552,6.141034149950212,5.4893041358316506,-2.816953451074593
10.823972329377055,6.368512220089789,5.461134601320905,-3.1874174870429326
10.887657451577953,6.629300314924009,5.429260426450475,-3.5963118731493964
10.953950454727194,6.927320891564741,5.393297307718981,-4.047456531348107
11.023223663642842,7.264819496314945,5.3528227424055,-4.541816025619448
11.09587185860599,7.639485061277557,5.307404582149306,-5.073280145087396
11.172266709218766,8.03906888860899,5.256671780698432,-5.620889100903302
11.252657398104855,8.433156903101642,5.200462889689399,-6.137058878985065
11.336988967135872,8.765747111579964,5.139092300899549,-6.537077576373747
11.42464643825167,8.961743128908479,5.073721525135811,-6.708603272403708
11.514263869540756,8.9638046761779,5.006635492411774,-6.564626283327167
11.603901916302535,8.781369749091063,4.940989229578502,-6.114149836094413
11.691715613793445,8.489607948236332,4.879847731217558,-5.461890350108946
11.776611693275807,8.172793346276247,4.825228827716469,-4.728164858394379
11.85833962673857,7.883324311967742,4.777947179132525,-3.9897319129071476
11.937172869858246,7.641636609274032,4.7380498600034535,-3.2784705527061284
12.013589235950986,7.45033056493035,4.705265154476392,-2.600840890935364
12.08809254160029,7.304716056106835,4.679256745567039,-1.95280249676436
12.161139702161359,7.197942322030771,4.659728720599396,-1.3272912220473612
12.233119125381666,7.122993919313316,4.646455808378922,-0.7173123177424646
12.304349064574799,7.073291214183722,4.639282685201497,-0.11704647821312841
12.375081976716636,7.042751294544172,4.638112220419366,0.47784010803718246
12.445509489662077,7.025673511475581,4.642890621499737,1.070175389521348
12.515766224776833,7.016594630061083,4.653592375394951,1.6613548586071514
12.585932171077443,7.010168742059723,4.6702059239810225,2.2514423522652325
12.656033858498041,7.001091641621375,4.692720347503675,2.8392832705688114
12.726044774914255,6.984075346452783,4.721113180209363,3.422633843690116
12.795885528378783,6.9538723025696765,4.755339518646264,3.998314716731575
12.86542425140448,6.905345225914553,4.79532266581358,4.5623956050260235
12.934477703663626,6.833575644311217,4.84094662186384,5.110413573651492
13.002813460106738,6.734001569304578,4.892050757600355,5.6376224271038975
13.070153475799785,6.6025724332544975,4.948426981871394,6.139265873777983
13.13617920013233,6.435907654940232,5.009819640609174,6.610863236553866
13.200538276681733,6.231444060567008,5.075928272974712,7.048493817914701
13.262852717287403,5.9875569420992925,5.14641321115386,7.449064606910605
13.322728286708397,5.703639891704023,5.220903857222965,7.810545747184723
13.379764685625437,5.380129977049173,5.299009314694812,8.132159108153465
13.433565985395928,5.018467714029654,5.380330905776347,8.414507698338713
13.483750662536226,4.620985967453701,5.464475982759734,8.659637953298066
13.529960522210763,4.190728278971304,5.5510723622927145,8.871033363252902
13.571867805000476,3.7312044400421716,5.639782695925244,9.053546169703178
13.609179849400897,3.246098010859217,5.730318157622276,9.213282911858128
13.64164082950949,2.7389452903214897,5.822450986740857,9.3574678163195
13.669030282412704,2.2128067175059254,5.916025664904052,9.49431362666075
13.691158349587763,1.669949672950809,6.01096880117066,9.632930971204354
13.707857846317271,1.1115576615631588,6.107298110882703,9.783303498114437
13.718973422932903,0.5374787075056886,6.205131145863848,9.956344615631794
13.72434821000796,-0.053966984111196825,6.304694592020166,10.164026691420572
13.723808540166848,-0.6660681356211349,6.406334858934372,10.41951808223823
13.717147858810637,-1.3035503644878554,6.5105300397567545,10.737134249567104
13.704112355165758,-1.9717867086462038,6.617901382252425,11.131604130268997
13.684394488079297,-2.6745155201769384,6.729217423555115,11.6154516360533
13.657649332877527,-3.408136842888746,6.845371939915648,12.191826172778809
13.62356796444864,-4.14904814761929,6.9672902016434355,12.837820493915379
13.582077482972446,-4.830682760851585,7.09566840658259,13.473374471569588
13.53377065536393,-5.320142544496001,7.230402151298286,13.928711482332716
13.48056922991897,-5.446806026046671,7.369689266121613,13.981505655940444
13.426101169658503,-5.140339524632547,7.509504322681018,13.541980364404083
13.374697774412178,-4.534796374963347,7.6449241263250585,12.789720484422862
13.329349810662544,-3.836246143238751,7.772821331169287,11.991487308912854
13.290987349230157,-3.16608075391713,7.892736204258416,11.295153899891567
13.259326541690985,-2.560316442979815,8.005687743257331,10.735998861692497
13.233723377261187,-2.0175183545723856,8.113047731874257,10.303288211723356
13.213548193715463,-1.5260533880076481,8.21608061399149,9.976070480540848
13.198287659835387,-1.0736968097443391,8.315841318796899,9.73485925412938
13.187550691737943,-0.6501312244518725,8.413189911338193,9.564081449857904
13.181049379493425,-0.24721067430059124,8.508830725836772,9.45183693643815
13.178577272750418,0.14133917230344684,8.603349095201153,9.389102570276032
13.179990664473452,0.5202812308411804,8.697240120903913,9.368970108793931
13.185193476781864,0.8931589405253382,8.790929821991853,9.38603748412678
13.194125066187118,1.2625030566253912,8.884790196833121,9.435945804471856
13.206750096753371,1.6299657775935283,8.97914965487784,9.515029346846985
13.223049754529306,1.9963996555123016,9.07429994834631,9.620048327911597
13.24301375108443,2.361897471733919,9.170500431625426,9.747982362051117
13.266632725801768,2.725807143720877,9.267980255245936,9.89587020076382
13.293890797238976,3.0867340533139043,9.366938957253574,10.060687231967982
13.324758137772115,3.442541927007335,9.467545829573254,10.239256143233794
13.359183557042188,3.790362127581402,9.569938391005591,10.428188166469736
13.397087178318003,4.126619447935694,9.674220272670288,10.623852491536919
13.43835337279736,4.44707990181461,9.780458797585657,10.822369959234535
13.482824171815507,4.746922611243429,9.888682497178003,11.019624556828335
13.530293397927942,5.020834263293064,9.998878742746287,11.211283610309554
13.580501740560873,5.263121904098241,10.110991578849383,11.392816527357333
13.633132959601856,5.467839584964453,10.224919744122957,11.559504407279926
13.6878113554515,5.628927902589001,10.340514788195756,11.706440326654963
13.74410063447739,5.740373023777527,10.457579191462306,11.828532790227236
13.801504364715164,5.796401572269221,10.575864519364579,11.92054048923366
13.859468380437857,5.79173546891652,10.695069924256916,11.977179997426301
13.917385735127022,5.7219301219370005,10.81484172423118,11.993351799017598
13.974605036346391,5.583803927460618,10.934775242221356,11.964516167575413
14.030443075620997,5.375934130772445,11.05442040389711,11.887214457532533
14.084202416928722,5.099148823700685,11.173292548472435,11.75967717998445
14.135193905165728,4.7569025488128975,11.29088932027228,11.582403305411438
14.182762930653857,4.355406213343005,11.406713353326394,11.358560650917955
14.226316992787286,3.903410271475718,11.520298959835573,11.094069414845576
14.265351095502043,3.411615757198038,11.631239653984029,10.797298186996418
14.299467253074022,2.8917879541940867,11.739212635853992,10.47840541664624
14.328385132615963,2.355731880254227,11.843996690020454,10.14845874068517
14.351942451418505,1.8143210227976618,11.945481277427305,9.818518455206528
14.370085661646483,1.2767398971444233,12.04366646197937,9.498861337121948
14.382853060617927,0.7500261074186817,12.13865507535059,9.198459878125924
14.390353321692114,0.2389136211492583,12.230639674131849,8.924752380240111
14.392742457903607,-0.25408397168791985,12.31988719793425,8.68367307962999
14.390201618186728,-0.7284405579659774,12.40672392873055,8.479875237424656
14.382917212607069,-1.1853245331512536,12.491522681104795,8.317073930554393
14.371063967275557,-1.627317067877045,12.57469342041034,8.198449211598716
14.354790796596786,-2.058189552330577,12.656677912526327,8.127072748974964
14.334208901073481,-2.482767691133831,12.737948640016077,8.106343326193917
14.309381224162143,-2.906894891288181,12.819012073278016,8.140433650063333
14.280312275249262,-3.337496592335987,12.900416409778648,8.234759315501284
14.246937309325903,-3.782733336659427,12.982764002933662,8.396474174886992
14.209109975959308,-4.252197950566856,13.066728744682532,8.634956979771992
14.16658799645364,-4.757023355936527,13.153078314480252,8.962132980669944
