th1 (rad),w1 (rad/s),th2 (rad),w2 (rad/s),a1 (rad/s^2),a2 (rad/s^2)
3.9589204070710027,1.359876430864065,4.72537441377986,1.8362707207677726,7.088340440337279,3.4102910560176185
3.9725191713796435,1.4307598352674378,4.743737120987538,1.8703736313279489,7.345038115195353,3.1015063560472482
3.986826769732318,1.5042102164193913,4.762440857300817,1.9013886948884213,7.6078137167380255,2.771611185144471
4.001868871896512,1.5802883535867716,4.781454744249701,1.929104806739866,7.876350804549054,2.4193657493977527
4.01767175543238,1.659051861632262,4.8007457923171,1.9532984642338436,8.150344601503472,2.04347867225822
4.034262274048702,1.7405553076472968,4.820278776959438,1.9737332509564258,8.429513148771786,1.6426117972193364
4.051667827125175,1.8248504391350147,4.840016109469002,1.9901593689286192,8.713610365924024,1.2153865722662693
4.0699163315165245,1.9119865427942548,4.859917703158288,2.002313234651282,9.002441129724485,0.7603922057608472
4.089036196944467,2.0020109540915,4.879940835504801,2.0099171567088905,9.29587843290296,0.2761958233041506
4.109056306485382,2.0949697384205295,4.9000400070718895,2.012679114941932,9.59388260068005,-0.23864507453201858
4.130006003869587,2.19090856442733,4.920166798221309,2.0102926641966117,9.896522415958708,-0.7855674356373832
4.15191508951386,2.289873788586917,4.940269724863275,2.0024369898402377,10.203997816911034,-1.365984152011937
4.1748138273997295,2.3919137667560273,4.960294094761677,1.9887771483201182,10.516663559264755,-1.9812613183258159
4.19873296506729,2.497080402348675,4.9801818662448785,1.96896453513686,10.835052845879899,-2.632689881810529
4.223703769090776,2.605430930807474,4.999871511596247,1.9426376363187547,11.159899369449816,-3.3214496124210164
4.249758078398851,2.717029924501972,5.019297887959435,1.9094231401945445,11.492155420331828,-4.048562278162689
4.276928377643871,2.83195147870529,5.03839211936138,1.8689375174129177,11.833002580043688,-4.814829369668637
4.305247892430923,2.950281504505727,5.05708149453551,1.8207892237162313,12.1838499080273,-5.620747466418843
4.334750707475981,3.072120003586,5.075289386772672,1.7645817490520428,12.546312231033955,-6.46639107655009
4.36547190751184,3.1975831258963394,5.092935204263193,1.6999178382865419,12.922157876488209,-7.351248105748139
4.397447738770803,3.3268047046612215,5.109934382646058,1.6264053572290604,13.31321056657768,-8.273986476646709
4.430715785817416,3.4599368103269983,5.126198436218348,1.5436654924625934,13.721183704285892,-9.232121141199032
4.4653151539206855,3.597148647369857,5.141635091142974,1.4513442810506032,14.147416326402006,-10.22153800476662
4.501286640394384,3.7386228106338772,5.15614853395348,1.349128901002937,14.592467941049476,-11.235814344883472
4.538672868500723,3.884547490044372,5.169639822963509,1.2367707575541023,15.055513908790338,-12.265253821256486
4.577518343401167,4.035102629132275,5.18200753053905,1.1141182193415373,15.533464403666242,-13.29552914324162
4.61786936969249,4.190437273168937,5.193148712732465,0.9811629279091212,16.019710876296276,-14.305801162237005
4.659773742424179,4.3506343819319,5.202960342011556,0.8381049162867511,16.502391599566,-15.26617085860976
4.703280086243498,4.51565829792756,5.2113413911744235,0.6854432077006535,16.96207884806864,-16.134345256868126
4.748436669222774,4.685279086408246,5.21819582325143,0.5240997551319722,17.36885758405357,-16.85150844136988
4.795289460086856,4.858967662248782,5.22343682080275,0.3555846707182734,17.678947615679355,-17.337669462617217
4.843879136709344,5.035757138405575,5.226992667509933,0.1822079760921012,17.83140594015,-17.487335979870046
4.894236708093399,5.214071197807075,5.228814747270854,0.007334616293400736,17.74613015201789,-17.167371534302134
4.94637742007147,5.391532499327254,5.228888093433788,-0.1643390990496206,17.325384835607075,-16.22035096713551
5.000292745064742,5.564786347683325,5.227244702443292,-0.32654260872097574,16.462114386217344,-14.478217150749455
5.055940608541576,5.729407491545498,5.223979276356082,-0.4713247802284703,15.058483436808489,-11.791235899712614
5.113234683457031,5.879992325913583,5.219266028553797,-0.5892371392255964,13.055715472152658,-8.073693983963315
5.172034606716166,6.01054948063511,5.213373657161541,-0.6699740790652295,10.469787819291712,-3.358182889053496
5.232140101522518,6.115247358828027,5.206673916370889,-0.7035559079557645,7.418114353827399,2.1635478346864634
5.293292575110798,6.189428502366301,5.199638357291331,-0.6819204296088999,4.117037221152153,8.143079866288346
5.355186860134461,6.230598874577822,5.192819152995242,-0.6004896309460164,0.8387835914963517,14.138365728085818
5.417492848880239,6.238986710492786,5.186814256685782,-0.45910597366515815,-2.1597397279547637,19.71990591675063
5.479882715985167,6.217389313213238,5.18222319694913,-0.26190691449765185,-4.702851274700628,24.57129535678177
5.542056609117299,6.170360800466232,5.179604127804154,-0.016193960929834134,-6.725916220188312,28.53823838094162
5.603760217121962,6.103101638264349,5.179442188194856,0.2691884228795821,-8.26311778811959,31.615668829998242
5.664791233504605,6.0204704603831525,5.1821340724236515,0.5853451111795646,-9.410639623094912,33.89715989898717
5.724995938108437,5.926364064152203,5.187987523535448,0.9243167101694363,-10.287791754776347,35.51927362060573
5.784259578749959,5.82348614660444,5.1972306906371415,1.2795094463754935,-11.00935916366048,36.62087831816358
5.842494440216003,5.713392554967835,5.210025785100896,1.6457182295571293,-11.671466941777089,37.32167294032305
5.899628365765681,5.596677885550064,5.226482967396468,2.01893495896036,-12.34741378907514,37.71539323665657
5.9555951446211814,5.473203747659313,5.246672316986071,2.3960888913269254,-13.088941440455619,37.871373778601104
6.010327182097774,5.342314333254757,5.27063320589934,2.774802629112936,-13.929619844250874,37.83963106118091
6.0637503254303216,5.203018134812249,5.2983812321904695,3.1531989397247453,-14.888522282306834,37.656666900868345
6.115780506778444,5.05413291198918,5.329913221587717,3.529765608733429,-15.973426058108691,37.350690335793594
6.166321835898336,4.8943986514080935,5.365210877675052,3.9032725120913647,-17.18335348487782,36.945805182902845
6.215265822412417,4.722565116559315,5.404243602795965,4.272730563920393,-18.510516161219094,36.46510250800356
6.26249147357801,4.537459954947124,5.446970908435169,4.637381589000428,-19.941789886191312,35.932733783596284
6.307866073127482,4.338042056085211,5.493344724325174,4.996708926836392,-21.459821608376092,35.37505293575078
6.3512464936883335,4.12344384000145,5.5433118135935375,5.350459456193899,-23.043801082985986,34.82087091278764
6.392480932088348,3.8930058291715897,5.596816408155476,5.6986681653217754,-24.66983673787314,34.30078903362677
6.431410990380064,3.6463074617928584,5.653803089808694,6.041676055658043,-26.31075897043122,33.84546521230936
6.467874064997992,3.383199872088546,5.714219850365274,6.380130707781137,-27.935026040469772,33.48250194976697
6.501706063718878,3.1038496116838483,5.778021157443085,6.714955727278807,-29.504214185172117,33.231399339158365
6.532744559835717,2.8088074698321273,5.845170714715874,7.04726972067039,-30.968325262900844,33.095666412034866
6.560832634534038,2.4991242172031187,5.915643411922577,7.378226384790739,-32.25786413409744,33.0507453278017
6.585823876706069,2.176545575862144,5.989425675770485,7.708733838068755,-33.271449325402166,33.02602612672192
6.60758933246469,1.8438310826081223,6.066513014151172,8.038994099335975,-33.85802121441385,32.87943111804564
6.626027643290771,1.5052508704639838,6.146902955144532,8.36778841051643,-33.79449818180523,32.36516380838265
6.6410801519954115,1.1673058886459313,6.230580839249696,8.691440048600256,-32.76502156055482,31.10201478870208
6.652753210881871,0.839655673040383,6.317495239735699,9.002460196487277,-30.359560566882404,28.565095921829446
6.661149767612274,0.536060067371559,6.407519841700572,9.288111155705572,-26.127856905993454,24.148736904627153
6.66651036828599,0.27478149831162446,6.5004009532576275,9.529598524751844,-19.73598144372978,17.364797419159153
6.669258183269106,0.07742168387432666,6.595696938505146,9.703246498943436,-11.235105897612986,8.192156209664374
6.670032400107849,-0.0349293751018032,6.69272940349458,9.78516806104008,-1.31948329647048,-2.5831576913691254
6.669683106356831,-0.048124208066508,6.79058108410498,9.759336484126388,8.69952602523965,-13.39815237700814
6.6692018642761655,0.038871052185888495,6.888174448946244,9.625354960356306,17.367568227866908,-22.52695965845582
6.669590574798025,0.21254673446455757,6.9844279985498074,9.400085363771748,23.725827729487357,-28.896258149275756
6.67171604214267,0.4498050117594311,7.078428852187525,9.11112278227899,27.595763698604735,-32.42224414126481
6.676214092260264,0.7257626487454785,7.169540080010314,8.786900340866342,29.376004673023594,-33.71549454191449
6.683471718747719,1.0195226954757144,7.2574090834189775,8.449745395447197,29.664708193970828,-33.58308022252604
6.693666945702476,1.3161697774154226,7.34190653737345,8.113914593221937,29.000551493130864,-32.7066169188584
6.70682864347663,1.6061752923467312,7.423045683305669,7.786848424033352,27.77397054195805,-31.547528216396312
6.722890396400097,1.8839149977663117,7.500914167546003,7.471373141869389,26.236123714311912,-30.37458746898087
6.74172954637776,2.146276234909431,7.575627898964696,7.16762726717958,24.53764591875271,-29.323313518319573
6.763192308726855,2.391652694096958,7.647304171636492,6.874394131996384,22.765365893999807,-28.447723616180195
6.787108835667825,2.619306353036956,7.7160481129564555,6.589916895834582,20.968616232611456,-27.755868727430705
6.813301899198194,2.8289925153630704,7.7819472819148015,6.312358208560275,19.17590642737696,-27.231722960002855
6.841591824351825,3.02075157963684,7.845070864000404,6.0400409789602465,17.40477401068907,-26.847919277498846
6.871799340148193,3.1947993197437308,7.905471273790007,5.771561786185258,15.667304443548593,-26.572927361926197
6.90374733334563,3.351472364179217,7.963186891651859,5.505832512565997,13.973046863183708,-26.375022518000886
6.937262056987422,3.491202832811054,8.018245216777519,5.242082287385988,12.33041571969019,-26.22444586682339
6.972174085315533,3.6145069900079556,8.070666039651378,4.979837828717754,10.747239124573682,-26.094549652654496
7.008319155215613,3.7219793812536923,8.120464417938555,4.718892332191209,9.230848581194449,-25.962363727675985
7.04553894902815,3.814287867065637,8.167653341260467,4.459268694914449,7.787944942821542,-25.808818008445424
7.083681827698807,3.892167316493852,8.212246028209611,4.201180514829995,6.424379851992268,-25.61874665981828
7.122603500863745,3.9564111150137746,8.254257833357912,3.9449930482318125,5.144933883372595,-25.38074307629952
7.162167612013882,4.007860453847501,8.29370776384023,3.6911856174688173,3.953136433348811,-25.086906835637652
7.202246216552357,4.047391818180989,8.330619620014918,3.440316549112441,2.8511491871573886,-24.73251108727632
7.242720134734167,4.075903310052563,8.365022785506042,3.192991438239678,1.8397198277107039,-24.315613564887308
7.283479167834693,4.0943005083296695,8.39695269988844,2.949835302590805,0.9182028058460263,-23.836632265490795
7.3244221729179895,4.10348253638813,8.426451052914347,2.7114689799358973,0.08463791045398233,-23.29790552889033
7.3654569982818705,4.10432891549267,8.453565742713705,2.4784899246469942,-0.6641259115735795,-22.703254694016213
7.406500287436797,4.097687656376934,8.478350641960175,2.2514573777068323,-1.3322752165051917,-22.057565326902782
7.447477164000567,4.084364904211882,8.500865215737242,2.0308817244378043,-1.9248585562026785,-21.366400234172133
7.4883208130426855,4.065116318649856,8.521174032981621,1.817217722096083,-2.4476066762548534,-20.6356543246858
7.528971976229184,4.040640251887307,8.539346210202583,1.610861178849225,-2.9067561272095586,-19.871258161476465
7.569378378748057,4.011572690615211,8.555454821991075,1.4121485972344605,-3.308883477147816,-19.078934046520445
7.60949410565421,3.9784838558437334,8.56957630796342,1.2213592567692562,-3.660754712455751,-18.264005933427573
7.6492789442126465,3.9418763087191757,8.581789900531112,1.0387191974349803,-3.969191929846413,-17.4312625160422
7.688697707299839,3.9021843894207118,8.59217709250546,0.8644065722745583,-4.240957192221908,-16.584871553539738
7.7277195511940455,3.8597748174984927,8.600821158228205,0.6985578567391609,-4.482651528427061,-15.728342838809464
7.766317299369031,3.8149483022142223,8.607806736795597,0.5412744283510663,-4.700625554054572,-14.864537093126104
7.804466782391173,3.7679420466736766,8.613219481079108,0.39262905741980525,-4.9008971176724385,-13.995718302683851
7.84214620285791,3.718933075496952,8.617145771653306,0.25267187439296673,-5.0890707853870865,-13.123647363163812
7.879335533612879,3.668042367643081,8.619672490397235,0.12143540076132861,-5.270253947423267,-12.249715068615975
7.91601595728931,3.6153398281688482,8.620886844404849,-0.001061749924831143,-5.448964984550988,-11.375112120872098
7.952169355570998,3.560850178323338,8.620876226905601,-0.11481287113355212,-5.629030426287103,-10.50103256793213
7.9877778573542315,3.504559874060467,8.619728098194265,-0.21982319681287343,-5.813470529334877,-9.628904550162199
8.022823456094835,3.446425168767118,8.617529866226137,-0.3161122423144954,-6.004376308663018,-8.760638204494194
8.057287707782507,3.386381405680488,8.614368743802991,-0.4037186243594374,-6.20278571029281,-7.898875072244323
8.091151521839311,3.3243535485775597,8.610331557559396,-0.4827073750818806,-6.4085719776898875,-7.047216841178986
8.124395057325087,3.260267828800661,8.605504483808577,-0.5531795434936705,-6.620362564538979,-6.210404809716502
8.156997735613093,3.194064203155271,8.59997268837364,-0.6152835915908356,-6.835510933931707,-5.394416866386872
8.188938377644645,3.1257090938159537,8.593819852457731,-0.6692277602547043,-7.050144619556946,-4.606448347928605
8.220195468582805,3.055207647620384,8.587127574855185,-0.7152922437339904,-7.259309326357859,-3.8547492341159564
8.250747545059008,2.9826145543568057,8.579974652417844,-0.7538397360751499,-7.457219495122491,-3.1483042919068795
8.280573690602576,2.908042359405581,8.572436255057093,-0.7853227789942187,-7.637610827383773,-2.4963646575802683
8.309654114196633,2.831666251131743,8.564583027267151,-0.8102864255700213,-7.794171816864765,-1.907865932979212
8.33797077670795,2.7537245329630955,8.55648016301145,-0.8293650848998134,-7.921013290944773,-1.3907935103640567
8.36550802203758,2.674514400053648,8.548186512162452,-0.8432730200034539,-8.013122284680474,-0.9515734600335081
8.392253166038117,2.594383177206843,8.539753781962418,-0.852788754603789,-8.066743617448125,-0.5945707534588748
8.418196997810185,2.5137157410323616,8.53122589441638,-0.8587344621383778,-8.079641308822204,-0.32176314465898104
8.443334155220509,2.4329193279441395,8.522638549794996,-0.8619520935849676,-8.051210977213309,-0.1326309751610896
8.46766334849995,2.352407218172006,8.514019028859146,-0.8632784033365785,-7.982438931189524,-0.02426735198065757
8.49118742068167,2.272582828860111,8.505386244825779,-0.863521076856385,-7.875727528470908,0.008321365940596005
8.513913248970272,2.193825553575402,8.496751034057215,-0.863437863196979,-7.734623936671778,-0.028220003661755286
8.535851504506027,2.116479314208684,8.488116655425246,-0.8637200632335966,-7.563497533467926,-0.12609956772510628
8.557016297648113,2.0408443388740047,8.47947945479291,-0.8649810589108476,-7.367209760132507,-0.27688694859839763
8.577424741036854,1.9671722412726798,8.470829644203802,-0.8677499283968316,-7.150811685565358,-0.47197515037968096
8.597096463449581,1.8956641244170263,8.462152144919834,-0.8724696799006284,-6.9192923895124085,-0.7029624543821859
8.616053104693751,1.8264712005219021,8.453427448120827,-0.8794993044444502,-6.677388897969216,-0.9619393099715837
8.634317816698971,1.7596973115422099,8.444632455076382,-0.8891186975441661,-6.429458145396163,-1.2416802418638233
8.651914789814393,1.6954027300882482,8.43574126810094,-0.9015354999628042,-6.179404384456806,-1.5357511206433698
8.668868817115275,1.63360868624368,8.426725913101313,-0.9168930111692379,-5.930651655833039,-1.8385476905876046
8.685204903977711,1.5743021696853496,8.417556982989622,-0.9352784880751139,-5.686149771656687,-2.1452828973590914
8.700947925674564,1.5174406719687827,8.408204198108871,-0.9567313170487048,-5.448402917807524,-2.4519395396053514
8.716122332394251,1.4629566427907075,8.398636884938384,-0.9812507124447584,-5.219511640127027,-2.7552022627662365
8.730751898822158,1.4107615263894373,8.388824377813936,-1.0088027350724207,-5.0012210216195285,-3.052379842084875
8.744859514086052,1.360749316173242,8.378736350463212,-1.0393265334932695,-4.794969868310477,-3.341325676007572
8.758467007247784,1.3127996174901373,8.368343085128279,-1.0727397902533453,-4.60193747345486,-3.620361768195494
8.771595003422686,1.2667802427555888,8.357615687225746,-1.1089434079353002,-4.423085932780377,-3.8882093522710033
8.784262805850242,1.222549383427785,8.346526253146394,-1.1478255014580103,-4.259197033037225,-4.143927716739852
8.796488299684519,1.1799574130974126,8.335047998131813,-1.189264778625409,-4.110903473472266,-4.386861658816081
8.808287873815493,1.13884837836269,8.323155350345559,-1.2331333952135697,-3.9787146638307993,-4.616597248652459
8.81967635759912,1.099061231724382,8.310824016393424,-1.2792993677000943,-3.863037633115641,-4.832925130859875
8.830666969916363,1.0604308553932256,8.298031022716422,-1.327628619008693,-3.764193733386244,-5.035810349402852
8.841271278470295,1.0227889180593632,8.284754736526336,-1.3779867225027216,-3.682431874915227,-5.22536759097
8.85149916765089,0.985964599310211,8.270974869301309,-1.4302403984124217,-3.6179390153690467,-5.401840751668235
8.86135881364399,0.9497852091565205,8.256672465317184,-1.484258805929104,-3.5708485698983132,-5.565585806264509
8.870856665735555,0.9140767234575374,8.241829877257892,-1.5399146639917491,-3.541247327794868,-5.7170560723332615
8.87999743297013,0.8786642501795887,8.226430730617974,-1.5970852247150817,-3.529181366356698,-5.8567890952814
8.888784075471927,0.8433724365160218,8.210459878370823,-1.6556531156678957,-3.534661351959077,-5.9853945214025535
8.897217799837087,0.808025822996431,8.193903347214144,-1.7155070608819214,-3.557667517879646,-6.103542465625565
8.905298058067052,0.7724491478176345,8.176748276605325,-1.776542485538177,-3.598154512413909,-6.211952011764922
8.913022549545229,0.7364676026934954,8.158982851749943,-1.8386620056558263,-3.656056222405848,-6.311379600955118
8.920387225572163,0.699907040469437,8.140596231693385,-1.9017758016653774,-3.7312905988247835,-6.4026071650675025
8.927386295976858,0.6625941344811891,8.121578473676731,-1.9658018733160525,-3.823764444034427,-6.486429943997221
8.934012237321669,0.6243564900408448,8.10192045494357,-2.0306661727560247,-3.933378065812665,-6.563643987638369
8.940255802222078,0.5850227093827182,8.081613793216011,-2.0963026126324085,-4.060029661195952,-6.635033385100055
8.946106029315905,0.5444224127707586,8.060650767089687,-2.162652946483409,-4.203619263391243,-6.701357286241635
8.951550253443612,0.5023862201368462,8.039024237624853,-2.2296665193458254,-4.364052066287269,-6.763336785821506
8.95657411564498,0.4587456994739735,8.016727572431394,-2.2972998872040407,-4.541240932005586,-6.82164173110499
8.96116157263972,0.4133332901539176,7.993754573559354,-2.3655163045150904,-4.735107885643294,-6.876877492846026
8.965294905541258,0.36598221129748465,7.970099410514203,-2.434285079443551,-4.94558440592299,-6.929571710638628
8.968954727654232,0.3165263672382548,7.945756559719768,-2.503580796549937,-5.172610328975921,-6.980160990313518
8.972119991326615,0.26480026394849554,7.920720751754268,-2.573382406453072,-5.416131193260849,-7.028977496818927
8.9747679939661,0.21063895201588706,7.894986927689737,-2.6436721814212616,-5.676093865353311,-7.076235354120737
8.97687438348626,0.15387801336235396,7.868550205875525,-2.714434534962469,-5.952440298208957,-7.122016737009255
