th1 (rad),w1 (rad/s),th2 (rad),w2 (rad/s)
2.7827659002679765,-0.573158385063361,4.025686257305269,-2.61502340450107
2.777034316417343,-0.5876573847130545,3.999536023260258,-2.5376769682589297
2.7711577425702125,-0.6054669219335529,3.974159253577669,-2.4607077967041566
2.765103073350877,-0.626468511321773,3.949552175610627,-2.384090444882247
2.7588383882376593,-0.6505456110068992,3.9257112711618047,-2.3078112469522494
2.7523329321275902,-0.6775832606316265,3.9026331586922822,-2.2318684473327095
2.745557099521274,-0.7074677866619549,3.880314474218955,-2.1562722437615345
2.7384824216546546,-0.7400865771817114,3.8587517517813397,-2.0810447481921455
2.7310815558828376,-0.7753279259933299,3.8379413042994184,-2.006219872649306
2.7233282766229046,-0.8130809438059055,3.8178791055729255,-1.9318431483243965
2.7151974671848453,-0.8532355326215757,3.7985606740896816,-1.857971487144284
2.7066651118586296,-0.8956824181967196,3.7799809592182387,-1.7846728956645488
2.6977082876766625,-0.9403132346988888,3.7621342302615934,-1.7120261513155848
2.6883051553296737,-0.98702065541794,3.7450139687484376,-1.6401204507130294
2.6784349487754944,-1.0356985635998128,3.728612764241307,-1.569055038928359
2.6680779631394964,-1.0862422580962579,3.7129222138520235,-1.4989388273519086
2.657215540558534,-1.1385486894710464,3.6979328255785044,-1.4298900061709765
2.6458300536638233,-1.1925167233510428,3.6836339255167947,-1.3620356556749091
2.633904886430313,-1.2480474290170844,3.6700135689600457,-1.2955113587619222
2.621424412140142,-1.3050443923445132,3.6570584553724266,-1.2304608153469716
2.608373968216697,-1.363414053080628,3.644753847218957,-1.1670354580389872
2.5947398276858906,-1.4230660669584139,3.633083492638567,-1.1053940676276286
2.5805091670163063,-1.4839136931947514,3.6220295519622905,-1.045702386711088
2.565670030084359,-1.545874207448918,3.61157252809518,-0.9881327302679713
2.5502112880098697,-1.6088693393117477,3.6016912007925,-0.9328635931230074
2.5341225946167523,-1.6728257318939934,3.5923625648612703,-0.8800792560039544
2.5173943372978123,-1.7376754191670134,3.5835617723012305,-0.8299693940945214
2.500017583106142,-1.803356314501844,3.5752620783602853,-0.7827286944565801
2.4819840199611236,-1.869812701504022,3.5674347914157196,-0.7385564911827514
2.4632858929460832,-1.9369957159148934,3.5600492265038923,-0.6976564293825567
2.4439159357869342,-2.004863805206662,3.5530726622100666,-0.6602361708356301
2.4238672977348674,-2.0733831506798612,3.5464703005017104,-0.626507155119645
2.403133466228069,-2.142528035485591,3.540205228950514,-0.5966844300369776
2.381708185873213,-2.2122811411015326,3.534238384650144,-0.5709865640803967
2.3595853744621977,-2.2826337543972897,3.52852851900934,-0.5496356514216324
2.3367590369182247,-2.3535858674821073,3.5230321624951237,-0.532857416477608
2.313223178243404,-2.425146152935768,3.5177035883303476,-0.5208814205754033
2.288971716714046,-2.4973317976383322,3.5124947741245935,-0.5139413677228186
2.263998398737663,-2.5701681790647415,3.5073553604473653,-0.5122755001602692
2.2382967169470156,-2.643688368412581,3.5022326054457626,-0.5161270674049032
2.21185983326289,-2.7179324451080724,3.4970713347717135,-0.525744845082773
2.1846805088118093,-2.7929466069326487,3.4918138863208856,-0.541383672146727
2.1567510427424827,-2.868782059115584,3.4864000495994185,-0.5633049672359278
2.1280632221513267,-2.9454936641847422,3.4807669999270594,-0.5917771770553686
2.098608285509479,-3.0231383321579344,3.4748492281565055,-0.6270761018205753
2.0683769021878997,-3.101773127862502,3.4685784671383,-0.6694850350885873
2.0373591709092747,-3.181453068937892,3.4618836167874143,-0.7192946477506703
2.0055446402198958,-3.2622285846339203,3.4546906703099074,-0.7768025386956343
1.9729223543735566,-3.3441426021810674,3.446922644922951,-0.8423123678284733
1.9394809283517458,-3.42722722468457,3.4384995212446663,-0.9161324810080141
1.9052086561049002,-3.511499962683268,3.429338196434586,-0.9985739314424156
1.8700936564780675,-3.596959481319237,3.4193524571201617,-1.0899477987108872
1.834124061664875,-3.683580827188141,3.408452979133053,-1.1905617056138846
1.7972882533929937,-3.771310104182343,3.396547362076914,-1.3007154354502275
1.7595751523511702,-3.86005857688031,3.383540207722412,-1.4206955592439738
1.720974566582367,-3.9496961942115534,3.3693332521299726,-1.5507689952476467
1.6814776046402515,-4.040044546177499,3.353825562177496,-1.6911754432156718
1.6410771591784765,-4.130869293213401,3.3369138077453395,-1.842118665001288
1.5997684662463425,-4.2218721420546,3.3184926210953267,-2.0037566224258443
1.5575497448257964,-4.312682484164908,3.2984550548710683,-2.176190534291165
1.5144229199841475,-4.40284886292182,3.276693149528157,-2.359452977585139
1.4703944313549293,-4.491830493293726,3.2530986197523055,-2.5534952334185257
1.425476126421992,-4.578989121439614,3.2275636674181203,-2.758174165180868
1.3796862352075958,-4.663581579432767,3.199981925766312,-2.973239012896973
1.3330504194132682,-4.744753459165475,3.170249535637342,-3.198318590715696
1.2856028848216134,-4.821534395498098,3.138266349730185,-3.432909479627616
1.2373875408666324,-4.892835507012952,3.103937254933909,-3.6763659096253503
1.1884591857965028,-4.957449587573729,3.067173595837655,-3.9278921185410156
1.1388846899207654,-5.014054666658444,3.027894674652245,-4.186538052148411
1.088744143254181,-5.061221553590327,2.986029294130761,-4.451199324894524
1.0381319277182777,-5.0974259417211405,2.9415173008818156,-4.720622385562592
0.9871576683010662,-5.121065563405112,2.8943110770261895,-4.993415819344382
0.9359470126670151,-5.130482743865869,2.8443769188327455,-5.268068658077255
0.8846421852283564,-5.123992489214178,2.7916962322519727,-5.542976452880181
0.8334022603362146,-5.099915948197855,2.736266467723171,-5.8164756753912625
0.782403100854236,-5.056618698354583,2.6781017109692584,-6.086886741960314
0.7318369138706902,-4.99255282122472,2.6172328435496555,-6.352565588846686
0.681911385658443,-4.906301156734267,2.5537071876611885,-6.611963263580074
0.6328483740911003,-4.796621491502289,2.487587555025388,-6.863692452671066
0.5848821591760774,-4.662487792129192,2.418950630498677,-7.106599278954626
0.5382572812547856,-4.503125021247144,2.347884637709131,-7.339838145765748
0.4932260310423141,-4.318033670629715,2.2744862562514734,-7.562946986312416
0.45004569433601693,-4.107000016773669,2.1988567863883492,-7.775920126530573
0.4089756941682802,-3.8700883361804417,2.1210975851230436,-7.979276224725976
0.3702748108064758,-3.607611949009205,2.0413048228757837,-8.174119522288535
0.33419869131638374,-3.3200809591595117,1.9595636276528985,-8.362193977126207
0.30099788172478864,-3.008125818211096,1.8759416878816364,-8.545931712998577
0.2709166235426777,-2.672397202032534,1.7904823707516506,-8.728499443168163
0.24419265152235237,-2.3134440171468413,1.703197376319969,-8.913848808551236
0.22105821135088394,-1.9315726770693242,1.6140588882344566,-9.10677838592296
0.2017424845801907,-1.526692552129163,1.5229911043752271,-9.313015529466433
0.18647555905889907,-1.0981560516233788,1.4298609490805627,-9.539323307797007
0.17549399854266529,-0.6446104279275965,1.3344677160025926,-9.79362739528953
0.16904789426338931,-0.16389957712395004,1.2365314420496973,-10.085130262897751
0.16740889849214982,0.34689544156163227,1.1356801394207199,-10.424313283573493
0.17087785290776614,0.8910720697690837,1.031437006584985,-10.822571553652464
0.17978857360545697,1.4711141912675374,0.9232112910484603,-11.290874866099589
0.19449971551813233,2.0856897705158826,0.8103025423874645,-11.836105186689096
0.21535661322329117,2.7228842712156256,0.6919414905205735,-12.452380803375476
0.24258545593544742,3.34681711721655,0.5674176824868188,-13.103326048524314
0.27605362710761294,3.877452995852773,0.4363844220015757,-13.694631209413906
0.31482815706614065,4.180299216809722,0.2994381099074366,-14.059016521240027
0.3566311492342379,4.115420411918358,0.1588479446950363,-14.020364480021835
0.39778535335342147,3.6608584942626266,0.018644299894817945,-13.556886203961298
0.4343939382960477,2.9567588730022734,-0.11692456214479505,-12.85501332294913
0.46396152702607046,2.174541394565788,-0.24547469537428634,-12.131467121784452
0.48570694097172834,1.4107857815631224,-0.36678936659213085,-11.497365167278158
0.49981479878735957,0.6961386876955021,-0.4817630182649124,-10.976921483615342
0.5067761856643146,0.03201534067556766,-0.5915322331010658,-10.558424055083655
0.5070963390710703,-0.5885887599687599,-0.6971164736519024,-10.221328037675292
0.5012104514713828,-1.1732631183014077,-0.7993297540286554,-9.9456132274096
0.48947782028836867,-1.727890483622061,-0.8987858863027514,-9.71401884203865
0.47219891545214804,-2.2562696463186214,-0.9959260747231379,-9.512055007313572
0.44963621898896183,-2.760315351349461,-1.0910466247962736,-9.327507630225583
0.4220330654754672,-3.2403975653827244,-1.1843217010985294,-9.149957176649904
0.38962908982163996,-3.695692823665118,-1.2758212728650284,-8.970436091265007
0.35267216158498876,-4.124518975941937,-1.3655256337776784,-8.781228245163929
0.3114269718255694,-4.5246509275689215,-1.4533379162293176,-8.575780529371142
0.26618046254988015,-4.89361769459284,-1.539095721523029,-8.348690340099443
0.21724428560395176,-5.228977368398011,-1.6225826249240234,-8.095734287551261
0.16495451191997165,-5.528562626418836,-1.703539967799536,-7.813907751518262
0.10966888565578328,-5.790687476432014,-1.7816790453147187,-7.501450684467636
0.051762010891463144,-6.0143065195612,-1.856693552159395,-7.1578419035833685
-0.008381054304148858,-6.199120772878809,-1.9282719711952288,-6.78375143653306
-0.07037226203293695,-6.345628111566533,-1.9961094855605594,-6.380947485791866
-0.1338285431486023,-6.455120641658328,-2.059918960418478,-5.952160481837048
-0.19837974956518556,-6.529634955953482,-2.119440565236849,-5.500911044847908
-0.2636760991247204,-6.571863802414491,-2.1744496756853278,-5.031311427957741
-0.3293947371488653,-6.585039149409722,-2.224762789964905,-4.547851458461735
-0.3952451286429625,-6.572797165981868,-2.2702413045495224,-4.055180511451875
-0.4609731003027812,-6.539035508242924,-2.3107931096640413,-3.5578969087111325
-0.5263634553852105,-6.48777268772147,-2.3463720787511524,-3.0603553869077644
-0.5912411822624252,-6.423018240748027,-2.37697563262023,-2.566501825112561
-0.6554713646699054,-6.348660901602415,-2.4026406508713554,-2.079742174663868
-0.7189579736859295,-6.268380023655368,-2.4234380726179943,-1.6028495726101097
-0.7816417739224832,-6.185583216414501,-2.4394665683440953,-1.1379102501763287
-0.8434976060866283,-6.103370805455171,-2.4508456708458586,-0.6863055484448819
-0.9045313141411799,-6.0245255560739315,-2.4577087263303072,-0.24872463774453707
-0.9647765697019193,-5.951524364166384,-2.4601959727077527,0.1747991901529476
-1.0242918133435832,-5.8865674191958846,-2.4584479808062234,0.5848363119323547
-1.083157487535542,-5.83161962771959,-2.4525996176869,0.9824995838142248
-1.141473683812738,-5.788458620029856,-2.442774621848758,1.3693792032897123
-1.1993582700130365,-5.758723039370983,-2.429080829815861,1.7474755204503538
-1.2569455004067462,-5.74395342150835,-2.4116060746113575,2.1191270505411195
-1.3143850346218298,-5.745614907421363,-2.390414804105946,2.4869239738463476
-1.3718411836960434,-5.765084922925598,-2.3655455643674825,2.8535865264385967
-1.4294920329252994,-5.803577744865254,-2.3370096991030964,3.2217701777674606
-1.487527810373952,-5.861958741046376,-2.3047919973254216,3.593731494059194
-1.5461473977844158,-5.940371361623178,-2.2688546823848297,3.970746406666283
-1.6055511114006475,-6.037561472280477,-2.229147218318167,4.352118821735317
-1.6659267261234523,-6.149756358553838,-2.185626030100814,4.733580333478007
-1.7274242897089906,-6.269011689418985,-2.138290226766034,5.1049625372421845
-1.7901144066031804,-6.381257240183211,-2.0872406013936122,5.447472598169725
-1.8539269790050126,-6.4651234237766255,-2.032765875411915,5.732101487404026
-1.9185782132427789,-6.493958145880225,-1.9754448605378747,5.922556542204277
-1.9835177947015812,-6.443660955501763,-1.9162192951158319,5.986394847284272
-2.0479544042565987,-6.304791125891951,-1.8563553466429892,5.912128978348461
-2.111002315515518,-6.089914248042738,-1.7972340568595047,5.719519314191883
-2.1719014579959457,-5.82778525161148,-1.7400388637175859,5.451219079104416
-2.2301793105120606,-5.549195674463485,-1.6855266729265417,5.152650357708948
-2.2856712672566957,-5.276684833538631,-1.6340001693494521,4.857377586149696
-2.338438115592082,-5.022549163644924,-1.585426393487955,4.584251252986663
-2.388663607228531,-4.791488970209894,-1.5395838809580884,4.341146399958844
-2.4365784969306303,-4.583855692725231,-1.4961724169585,4.129578512241079
-2.4824170538578825,-4.397948848925637,-1.4548766318360893,3.9479888536791226
-2.526396542347139,-4.23131588564096,-1.415396743299298,3.7936213076775305
-2.5687097012035482,-4.081394223773466,-1.3774605302225227,3.663464567433523
-2.6095236434412827,-3.9457901153826933,-1.3408258845481875,3.554674535325802
-2.6489815445951095,-3.8223757604689257,-1.3052791391949294,3.464733786171647
-2.6872053021997986,-3.709302343885321,-1.270631801333213,3.391487146395206
-2.7242983256386517,-3.604977962667487,-1.2367169298692609,3.333123637610312
-2.7603481052653267,-3.508033794305544,-1.2033856934931577,3.288138618277515
-2.7954284432083822,-3.417289051972248,-1.1705043073103825,3.2552916040333857
-2.8296013337281045,-3.331719097232185,-1.1379513912700485,3.233566269861079
-2.8629185247004263,-3.2504282164840737,-1.1056157285714376,3.2221348559675826
-2.895422806865267,-3.172627324393632,-1.0733943800117618,3.220327217205464
-2.9271490801092033,-3.097616396986105,-1.0411911078397071,3.2276038734371606
-2.9581252440790644,-3.0247713491363837,-1.0089150691053355,3.2435320415769953
-2.9883729575704283,-2.9535351586554515,-0.9764797486895656,3.2677634676367022
-3.017908309156983,-2.883413208235442,-0.9438021140131986,3.3000127883031904
-3.0467424412393376,-2.813973021690032,-0.9108019861301667,3.3400350730279
-3.0748821714562378,-2.744848785747843,-0.8774016353998877,3.387601109480783
-3.1023306593137163,-2.6757512480214376,-0.8435256243050798,3.442468908844048
-3.1290881717939305,-2.606483728481077,-0.8091009352166394,3.5043498654772822
-3.155153009078741,-2.536965013577557,-0.7740574365618665,3.572868090537178
-3.1805226592145166,-2.467259718504946,-0.7383287556564948,3.6475117871122484
-3.2051952563995663,-2.397616153886214,-0.7018536377853724,3.72757634750391
-3.2291714179384283,-2.328510617919368,-0.6645778743103332,3.8121004001920316
-3.252456524117622,-2.260695129042763,-0.6264568703084129,3.899798615007897
-3.2750634754080497,-2.1952427490976727,-0.5874588841583339,3.9889989148118388
-3.2970159028990262,-2.1335808780696333,-0.5475688950102156,4.077596767477846
-3.3183517116797225,-2.0774987759315957,-0.5067929273354371,4.163044716233599
-3.3391266994390385,-2.0291124353256738,-0.46516248017310113,4.242399455471014
-3.3594178237922954,-1.9907700929070602,-0.422738485618391,4.312448517303099
-3.379325524721366,-1.9648879767586587,-0.37961400044536003,4.369930225402108
-3.3989744044889525,-1.9537203691766314,-0.33591469819133896,4.411841326325094
-3.4185116081807188,-1.9590896479818114,-0.291796284928088,4.435798078252699
-3.4381025046605367,-1.982124507424087,-0.24743830414556103,4.440386750404517
-3.4579237497347775,-2.023067447377057,-0.20303443664151585,4.425422521045056
-3.478154424208548,-2.0812057005955036,-0.1587802114310653,4.39204504945376
-3.4989664812145027,-2.1549507573031166,-0.1148597609365277,4.342617451461319
-3.5205159887875337,-2.2420503414332513,-0.0714335864219145,4.280449990759227
-3.542936492201866,-2.339880872644366,-0.02862908651432223,4.209417046409933
-3.56633530092831,-2.445753198568525,0.0134650839497771,4.13355604794656
-3.590792832913995,-2.5571731834279725,0.0548006444292427,4.056725617462072
-3.6163645647482747,-2.6720232085225417,0.09536790060386341,3.9823681849142734
-3.6430847968335,-2.7886577384361715,0.13519158245300614,3.913386923839471
-3.670971374217862,-2.9059259901199495,0.17432545169140085,3.8521208359936816
-3.700030634119061,-3.023144056042722,0.21284666005133768,3.8003895690879985
-3.7302620746794886,-3.140039364900946,0.25085055574221765,3.759578775586745
-3.761662468328498,-3.2566859348027397,0.2884463434980851,3.7307425728803967
-3.7942293276765255,-3.373442933306425,0.3257537692268891,3.7147074872487718
-3.8279637570095897,-3.490903722520199,0.3629008440993768,3.712169418375806
-3.8628727942347916,-3.609858691829031,0.40002253828313483,3.723780539282939
-3.898971381153082,-3.7312728241041584,0.4372603436759642,3.7502265747786603
-3.9362841093941237,-3.856277805789189,0.4747626094237508,3.792296971607572
-3.9748468874520158,-3.986178203022787,0.5126855791398265,3.850951576545319
-4.014708669482244,-4.122471460856928,0.5511950949052796,3.9273879869978905
-4.055933384090813,-4.266881990890167,0.5904689747752585,4.023113998312527
-4.0986022039997145,-4.421410181976303,0.6307001147583837,4.140029630390823
-4.142816305819477,-4.588397536854771,0.6721004110622919,4.280522917271607
-4.188700281188025,-4.770608824586923,0.714905640235008,4.447582409700763
-4.236406369433894,-4.971330104844467,0.7593814643320157,4.644925737002601
-4.286119670482338,-5.194475390394744,0.8058307217020417,4.877134302791379
-4.338064424386285,-5.4446793273829215,0.8546020647299555,5.149761841319531
-4.392511217660115,-5.727316955319567,0.9060996831431508,5.469332728548207
-4.4497843872133105,-6.048309169565857,0.9607930104286329,5.843029150651974
-4.510267478908969,-6.41339251445095,1.0192233019351526,6.2776121199584605
-4.574401404053479,-6.8261643660343125,1.0819994231347372,6.776603333278266
-4.642663047713822,-7.283572599376593,1.14976545646752,7.333851180833628
-4.715498773707588,-7.766864924268612,1.2231039682758562,7.920685378383315
-4.793167422950274,-8.227327674929716,1.3023108220596893,8.465722126146977
-4.875440699699571,-8.575564450932626,1.386968043321159,8.839665067630914
-4.961196344208898,-8.70408964201744,1.4753646939974683,8.887091760638748
-5.0482372406290725,-8.56582454193611,1.5642356116038558,8.537151458032257
-5.133895486048433,-8.232768485007522,1.6496071261841785,7.88672500338512
-5.216223170898509,-7.833994159953957,1.7284743762180297,7.113996430285745
-5.294563112498048,-7.461469725387412,1.799614340520887,6.3462549488591184
-5.369177809751922,-7.152071269264133,1.8630768900094783,5.634085093391058
-5.440698522444563,-6.911432373216048,1.9194177409433888,4.984281447273925
-5.5098128461767235,-6.733710249177372,1.969260555416128,4.387330805751879
-5.577149948668497,-6.610562486445337,2.0131338634736466,3.8299792497989467
-5.643255573532951,-6.534219302947256,2.051433655971636,3.2996227450019755
-5.7085977665624235,-6.498212418670388,2.084429883421656,2.7854599002143017
-5.773579890749128,-6.497313410779924,2.112284482423799,2.278567127711513
-5.838553024856926,-6.527253731151868,2.135070153700914,1.7716960597928064
-5.9038255621684455,-6.584416865520296,2.152787114298842,1.2590607301321457
-5.969669730823648,-6.665557963411846,2.1653777216001635,0.7361897268054667
-6.036325310457767,-6.767562778322438,2.172739618868218,0.19985152743573553
-6.104000938240991,-6.887246935108721,2.1747381341425753,-0.3519620336474968
-6.172873407592078,-7.0211966985100736,2.1712185138061004,-0.9200179374653972
-6.243085374577179,-7.165655351870004,2.1620183344314463,-1.5038173289677246
-6.314741928095879,-7.316461509420278,2.146980161141769,-2.101592567797481
-6.387906543190081,-7.469045386590136,2.125964235463794,-2.710352153391195
-6.462596997055983,-7.618485391769733,2.098860713929882,-3.3259928504274443
-6.53878185097368,-7.759620547760929,2.0656007854256075,-3.9434866292807342
-6.616378056451289,-7.887205592009891,2.0261659191328003,-4.557134773314123
-6.695250112371388,-7.996087620266217,1.980594571399659,-5.160865901863552
-6.775210988574051,-8.081378692602774,1.9289859123810236,-5.748543064153967
-6.856024775500078,-8.13860004173603,1.8715004817394838,-6.314241370358636
