th1 (rad),w1 (rad/s),th2 (rad),w2 (rad/s)
2.6534655627210344,1.6025416955229002,4.165182342579493,-1.3233212871098372
2.6694909796762634,1.563541130621418,4.151949129708395,-1.262964921983022
2.6851263909824774,1.5241784088448764,4.139319480488565,-1.2008354002765864
2.7003681750709263,1.4844264054893028,4.127311126485799,-1.1369405523355722
2.7152124391258194,1.4442665512869242,4.115941720962444,-1.0712913695242412
2.7296551046386885,1.403688762594752,4.105228807267201,-1.0039028063174025
2.743691992264636,1.362691374430471,4.095189779204027,-0.9347944634867049
2.7573189060089405,1.3212810636257921,4.08584183456916,-0.8639911484827718
2.7705317166451984,1.2794727510278419,4.077201923084332,-0.7915233094566969
2.7833264441554766,1.2372894736161897,4.069286689989765,-0.7174273403043295
2.7956993388916387,1.194762219576424,4.0621124165867215,-0.6417457556009484
2.807646961087403,1.1519297217166053,4.055694959030712,-0.5645272362281635
2.8191662583045694,1.1088382070437122,4.05004968666843,-0.4858265487483506
2.8302546403750064,1.065541102728463,4.045191421180947,-0.4057043439950646
2.840910051402291,1.0220987009629434,4.041134377740996,-0.32422684274378205
2.8511310384119204,0.9785777872394773,4.0378921093135585,-0.2414654185257902
2.8609168162843153,0.9350512382440322,4.035477455128301,-0.15749608948122865
2.8702673286667557,0.8915975967766728,4.033902494233488,-0.07239893247526707
2.8791833046345223,0.8483006318288611,4.033178504908736,0.01374256657409828
2.887666310952811,0.8052488921436153,4.033315930574477,0.10084221213359976
2.895718799874247,0.7625352612810732,4.034324352695813,0.18881183479942326
2.903344152487058,0.7202565214700798,4.036212471043807,0.27756205102812725
2.9105467177017585,0.6785129324421284,4.0389880915540886,0.36700303612520524
2.9173318470261798,0.6374078301396267,4.04265812191534,0.45704530165477014
2.923705925327576,0.5970472488031392,4.047228574931888,0.5476004704469523
2.9296763978156073,0.5575395686108476,4.052704579636358,0.638582044330183
2.935251793501716,0.5189951898955155,4.0590904000796595,0.7299061614329418
2.9404417454006713,0.48152623410409373,4.066389461693989,0.8214923412425194
2.9452570077417124,0.44524627116444354,4.074604385106414,0.9132642164780497
2.9497094704533566,0.41027007281546984,4.083737027271194,1.0051502511835262
2.9538121711815113,0.37671339173324164,4.09378852978303,1.0970844442796635
2.957579305098844,0.3446927668991855,4.104759374225827,1.1890070171887523
2.9610262327678356,0.3143253565260521,4.116649444397714,1.2808650831654511
2.964169486333096,0.28572880087650776,4.129458095229369,1.3726132947623544
2.967026774341861,0.25902111835637853,4.143184228176993,1.4642144645832862
2.9696169855254246,0.23432063921487112,4.157826372822825,1.5556401532821365
2.9719601919175735,0.21174598192056038,4.173382774355646,1.6468712177889058
2.974077651736779,0.19141607770561542,4.189851486533535,1.737898312097329
2.9759918125138354,0.1734502488084396,4.207230469654508,1.8287223327007631
2.9777263150019198,0.157968345553863,4.225517692981516,1.919354800940005
2.9793059984574586,0.14509094657922147,4.244711240990916,2.009818175105725
2.9807569079232508,0.13493962526263117,4.264809422741973,2.1001460860516636
2.9821063041758773,0.12763728377943517,4.2858108836024895,2.190383491216866
2.9833826770136715,0.12330855426389135,4.307714718514658,2.280586743191883
2.9846157625563103,0.12208026435324727,4.330520585946577,2.370823570144235
2.985836565199843,0.12408196200644514,4.35422882164802,2.4611729663871293
2.9870773848199073,0.12944649197555852,4.3788405513118915,2.5517249919836646
2.988371849739663,0.1383106137028778,4.404357801231728,2.642580480393765
2.9897549558766916,0.15081564773580408,4.430783606035666,2.733850652682831
2.9912631123540496,0.16710813498547664,4.458122112562494,2.825656635636375
2.9929341937039045,0.18734049026801847,4.486378678918857,2.918128879208893
2.9948075986065845,0.21167162850122637,4.515559967710947,3.0114064660511994
2.9969243148915967,0.24026753860831918,4.545674032371458,3.1056363024085374
2.99932699027768,0.27330177651714826,4.576730395395543,3.200972175487855
3.0020600080428514,0.31095584454995406,4.608740117150422,3.2975736575087278
3.005169566488351,0.3534194198976851,4.641715853725509,3.395604831159467
3.008703760687328,0.40089038971132207,4.675671902037104,3.4952328051945294
3.0127126645844413,0.4535746446103246,4.710624230089049,3.5966259825948192
3.0172484110305446,0.5116855761590888,4.746590489914998,3.699952037295976
3.0223652667921357,0.5754432172405635,4.783590010287957,3.8053755492849604
3.028119698964541,0.6450729575288049,4.821643765780807,3.9130552423016542
3.0345704285398294,0.7208037598565784,4.860774318203823,4.023140764039587
3.0417784661383953,0.8028657978211717,4.901005725844219,4.135768946387003
3.049807124116607,0.8914874313530209,4.942363415308089,4.251059483882974
3.0587219984301375,0.9868914363658784,4.984874010146918,4.369109973440941
3.0685909127937965,1.0892904085270212,5.0285651098813275,4.489990269051873
3.079483816879067,1.1988812714965575,5.073465012571846,4.613736123428469
3.0914726295940325,1.3158388388834033,5.119602373806131,4.74034211640974
3.1046310179828667,1.4403084090988658,5.167005794970229,4.869753909511865
3.1190341020738552,1.5723974157794725,5.215703334065347,5.001859919235368
3.13475807623165,1.7121662157965964,5.265721933257701,5.136482570054354
3.151879738389616,1.859618173686864,5.317086758958245,5.273369371820886
3.170475920126485,2.0146892959209675,5.369820452676454,5.4121841643029365
3.1906228130856946,2.1772377789514636,5.423942294319484,5.552498979899043
3.2123951908752093,2.347033956571043,5.479467284118474,5.693787087017699
3.2358655304409196,2.5237512559557445,5.5364051549886515,5.835417879840727
3.2611030430004773,2.706958884442883,5.594759333787059,5.976654359405376
3.288172631844906,2.896117052480002,5.654525877381113,6.116653986241822
3.317133802369706,3.090575570308653,5.715692417243531,6.254473653677178
3.3480395580727924,3.289576613169681,5.778237153780303,6.389079411141046
3.380935324204489,3.492262310527779,5.842127947891713,6.519361340874922
3.415857947309767,3.6976875645714897,5.907321561300463,6.6441536521868345
3.4528348229554817,3.9048381406651735,5.973763097822331,6.7622596138610165
3.4918832043621335,4.112653614560468,6.041385693960941,6.872480427453391
3.533009740507738,4.320054246593045,6.110110498235475,6.97364660420584
3.5762102829736686,4.525970340835208,6.179846964277533,7.064649917158038
3.621469986382021,4.729372210232269,6.250493463449113,7.1444736379237135
3.6687637084843434,4.929298582139684,6.321938199828351,7.212218609302648
3.7180566943057403,5.124881204057897,6.394060385921377,7.26712280276663
3.7693055063463192,5.315363579838228,6.466731613949044,7.308572378948312
3.8224591421447016,5.500112176282746,6.539817337738527,7.33610287953056
3.8774602639075293,5.678619041985105,6.613178366533833,7.349389957904789
3.9342464543273805,5.850495494682339,6.686672266112881,7.348229902352209
3.992751409274204,6.0154572641547945,6.760154565136403,7.332511010597655
4.052905981915752,6.173302132752585,6.833479675242379,7.302177545581949
4.114639003243278,6.323881625709529,6.906501450698198,7.257188481006112
4.177877819500373,6.467068634286158,6.979073335508259,7.197473517379149
4.242548505843234,6.602723010274352,7.05104807068205,7.122888942980831
4.308575735945977,6.730657186759966,7.122276960111859,7.03317588863683
4.375882307813577,6.850603814363209,7.192608718998227,6.92792345456288
4.4443883459572096,6.9621873182092715,7.261887953543856,6.806539142705149
4.514010219139302,7.064901235275286,7.329953344970908,6.668229060486789
4.584659231492055,7.158093222228605,7.396635635575776,6.511990490117416
4.656240163714341,7.24095973931491,7.46175554047695,6.336619615672087
4.72864976110749,7.312552587604771,7.525121736633671,6.140737387572001
4.8017752869835375,7.371799630492925,7.586529110509391,5.922836537405108
4.875493283288467,7.417542038778104,7.645757475883442,5.6813524244860165
4.949668703676248,7.44859008129473,7.702571000128302,5.414759428965575
5.024154604489195,7.463798618235019,7.756718594417958,5.121692707273183
5.098792590671545,7.462161817477318,7.807935521490689,4.801092042437109
5.173414208846318,7.442924053950912,7.85594644191506,4.4523601739424645
5.247843449385828,7.405700506825401,7.900470043654485,4.075522643607984
5.321900454454082,7.350597006212117,7.941225270090564,3.671370633112734
5.395406424516203,7.278314999498817,7.977938976421692,3.2415638935348667
5.468189574511191,7.1902253135857235,8.010354615357041,2.7886695434048594
5.540091827647048,7.088395042657895,8.03824131079109,2.3161160794058273
5.610975778073627,6.975556396159354,8.061402471585149,1.8280513918352297
5.68073134203522,6.855014718703487,8.079682985503501,1.3291081573932477
5.7492814892222555,6.730503747147381,8.092974067077433,0.8240967780416787
5.8165865266937296,6.6060068227468625,8.10121503485785,0.3176604871325427
5.882646594921198,6.485570119902083,8.104391639729176,-0.18606528674064238
5.947502296120219,6.373135722075767,8.102530986861769,-0.6837494584204997
6.011233653340977,6.272418182683401,8.095693492277563,-1.1730893684095856
6.0739578351678105,6.186839724905561,8.083962598593468,-1.652951212542228
6.135826232416866,6.119529399021875,8.067433086468046,-2.123433465155075
6.1970215264070845,6.07338325830438,8.046198751816496,-2.5858741016191056
6.257755358990129,6.051177791266549,8.020340010800304,-3.0428306288061178
6.3182671369027945,6.055727831250088,7.9899117045122425,-3.4980641855249397
6.378824415215296,6.090082011329358,7.954931062656994,-3.9565566626888984
6.43972523532859,6.157751577871829,7.9153654960301045,-4.424584152218148
6.501302751107308,6.26296879655808,7.871119654507923,-4.9098602013789945
6.563932439072889,6.41096313581189,7.822021052494133,-5.421742224213563
6.6280420704310075,6.608212954111813,7.767803630251997,-5.971445790931203
6.6941241999721255,6.862543479184132,7.708089172342685,-6.572087168534019
6.762749634763967,7.182714883144257,7.642368300657345,-7.238057547162531
6.834576783595409,7.576582368386312,7.56998772518572,-7.982449900548729
6.910342607279272,8.045627991731003,7.490163226180233,-8.809470440859386
6.990798887196582,8.571306327160281,7.402068521771639,-9.695468234698202
7.076511950468185,9.087260816998855,7.305113839424657,-10.55026414878505
7.167384558638173,9.445134274414556,7.1996111979368065,-11.169568247332517
7.261835901382319,9.440195817452947,7.087915515463481,-11.27113320936914
7.356237859556848,8.988916755085647,6.97520418336979,-10.74307229930226
7.446127027107704,8.266519557656519,6.8677734603767675,-9.83453647913214
7.528792222684269,7.514960264084852,6.769428095585446,-8.885737374763702
7.603941825325118,6.851390901743231,6.6805707218378085,-8.06145849690174
7.672455734342551,6.294487656918662,6.599956136868792,-7.38907336445869
7.7354006109117375,5.829302913823887,6.526065403224204,-6.8492482607772285
7.793693640049977,5.435955834747527,6.457572920616432,-6.415863676328939
7.848053198397452,5.097368352261505,6.393414283853143,-6.066739717328097
7.899026881920068,4.800257531899401,6.332746886679861,-5.785005510266188
7.947029457239061,4.534515125635625,6.274896831577199,-5.558238006422814
7.9923746084954175,4.292410823854759,6.219314451512971,-5.377354304806103
8.035298716733966,4.0679437600320405,6.1655409084649095,-5.23569996191072
8.075978154334287,3.8563731222341557,6.113183908845802,-5.128369471283069
8.114541885556628,3.653895667595693,6.061900214132971,-5.051707386402726
8.151080842232584,3.4574345214825315,6.011383140268944,-5.002932769109311
8.18565518744741,3.264512569223892,5.961353812577851,-4.979840865628681
8.218300313139649,3.0731927088482203,5.9115554039215645,-4.980547919379571
8.24903224022813,2.8820734007580806,5.861749924727769,-5.003255120502932
8.277852974235712,2.690330717352921,5.81171737352274,-5.046016800778776
8.304756281409242,2.4977971042734013,5.761257205514952,-5.106507922757762
8.329734252451976,2.3050619015949154,5.7101921262873745,-5.1817984300990565
8.352784871467925,2.1135693135494904,5.658374141986384,-5.26815797841783
8.37392056460342,1.9256773336483677,5.605692562202205,-5.36093264273463
8.393177337939903,1.7446302322492053,5.552083235774859,-5.454550311677456
8.410623640262395,1.5743952207326308,5.497537732658084,-5.542713916398232
8.426367592469722,1.4193304971683594,5.442110593494101,-5.618819221148372
8.440560897441406,1.2836933136262756,5.385922401282618,-5.676579302268817
8.45339783057767,1.1710572408274427,5.32915660825993,-5.71075972389871
8.465108402985944,1.0837642567010606,5.272049011020942,-5.717857898650731
8.475946045552954,1.022556199501158,5.214870432034435,-5.696540448562024
8.486171607547966,0.9864896274710513,5.157905027548815,-5.647710010344653
8.496036503822676,0.9731494312837486,5.101427927445369,-5.574190489628758
8.505767998135514,0.979082440436737,5.045686022549081,-5.480140150366481
8.515558822539882,1.0003185473816578,4.990884621045416,-5.3703667655654606
8.525562008013699,1.0328513495841316,4.9371809533897615,-5.2497081486312815
8.53589052150954,1.0729965939255988,4.884683871903449,-5.122578476863031
8.546620487448795,1.1176031686027497,4.833458087134819,-4.9927075387797775
8.557796519134822,1.1641336321890838,4.783531011747021,-4.863047013181612
8.569437855456712,1.210651235796951,4.734900541615205,-4.735794160911316
8.581544367814681,1.2557523015004548,4.687542600006092,-4.6124824831026165
8.594101890829686,1.2984750529977527,4.641417775175065,-4.494099838594562
8.607086641359663,1.3382055663456989,4.596476776789119,-4.381208275852548
8.62046869702312,1.3745923390921058,4.552664694030594,-4.274051609299154
8.634214620414042,1.4074744212903503,4.509924177937602,-4.172645020896005
8.648289364626946,1.4368240304400395,4.468197727728642,-4.076845931047553
8.662657604931345,1.4627024609888595,4.427429268418166,-3.986407921707209
8.677284629541234,1.485227224874397,4.387565189201094,-3.901020491790507
8.692136901789977,1.504548192551986,4.348554984283189,-3.8203375586974233
8.707182383715498,1.5208306881421956,4.310351608696215,-3.7439973367011157
8.72239069059692,1.5342438145686759,4.272911635329204,-3.6716357861111653
8.737733128742608,1.5449526300163747,4.236195277468092,-3.602895375197045
8.753182655042773,1.5531131115735557,4.200166323716122,-3.5374304932260072
8.768713786158509,1.5588691055888786,4.164792018783862,-3.4749105192358574
8.784302477214398,1.562350674677728,4.130042913591503,-3.415021287991657
8.799925983961176,1.5636734139196375,4.095892700711587,-3.3574654935727364
8.815562718100372,1.5629384317374864,4.062318045775859,-3.301962421025221
8.831192102417747,1.5602327824829119,4.029298421565607,-3.2482472865383665
8.846794430242577,1.5556302051264217,3.9968159487002235,-3.19607038714344
8.86235073229384,1.5491920715932763,3.9648552448287893,-3.145196204228363
8.877842653009774,1.5409684838175124,3.9334032827865055,-3.095402565097255
8.893252337847949,1.5309994839822,3.902449257135533,-3.0464799386575883
8.90856233268777,1.5193163602075588,3.8719844577489573,-2.998230921460862
8.923755496289846,1.505943041924243,3.8420021485343487,-2.9504699559564593
8.938814926709089,1.4908975865303749,3.812497448974784,-2.903023311753606
8.953723902574392,1.4741937624419208,3.783467215857248,-2.855729351179989
8.968465840198812,1.4558427337530324,3.754909922345448,-2.808439091069546
8.983024267536342,1.435854848663471,3.7268255314347525,-2.7610170623744965
8.997382816022977,1.414241527738202,3.6992153608110074,-2.71334245701202
9.011525231300359,1.3910172390775195,3.6720819362408874,-2.665310536758911
9.025435403691134,1.366201535847881,3.6454288308732985,-2.616834261805029
9.039097419049613,1.3398211178346908,3.6192604882552484,-2.567846077044374
9.052495630227959,1.3119118635382327,3.5935820274848047,-2.518299773165242
9.065614748863341,1.2825207640536336,3.5683990297531523,-2.46817231858234
9.078439956503878,1.2517076761841466,3.543717306567329,-2.4174655393626723
9.09095703326572,1.2195468019153628,3.519542651173702,-2.3662075102024236
9.103152501284875,1.1861277966876842,3.4958805760716776,-2.31445351317532
9.115013779251752,1.1515564119027197,3.472736040939924,-2.2622864252453487
9.126529343370779,1.1159545893621228,3.450113176687471,-2.209816412628565
9.1376888892644,1.0794599475451512,3.4280150125611852,-2.157179840985213
9.148483488739851,1.0422246312049142,3.406443214151333,-2.104537354369879
9.158905735051901,1.0044135346580434,3.3853978406076344,-2.0520711300716417
9.168949870398482,0.9662019518950732,3.364877129306918,-1.999981376164804
9.178611889917432,0.9277727487211882,3.34487731554527,-1.94848219749291
9.187889617404645,0.8893131885944086,3.3253924935703405,-1.8977970070388237
9.19678274929059,0.8510115700933001,3.3064145234999525,-1.8481536968230097
9.205292864991522,0.8130538466547069,3.287932986531722,-1.7997798009078043
9.21342340345807,0.7756203968350144,3.269935188522644,-1.7528978805819653
9.22117960742642,0.7388830964247224,3.2524062097168245,-1.7077213390857622
9.228568438390667,0.7030028147971407,3.235328996325967,-1.6644508337611688
9.235598466538638,0.6681274208454588,3.218684487988355,-1.6232714027301745
9.242279740747094,0.6343903433926174,3.2024517739610534,-1.5843503675397943
9.24862364418102,0.6019096915702915,3.1866082702856553,-1.5478360189479379
9.254642741096722,0.5707879061052479,3.171129910096176,-1.5138570453729119
9.260350620157775,0.541111885273883,3.155991339642447,-1.4825226260453965
9.265761739010514,0.5129535107045615,3.141166113381993,-1.4539230852876919
9.27089127411756,0.4863704882160089,3.126626882529116,-1.4281309906056863
9.27575497899972,0.46140741653163453,3.112345572623059,-1.4052025741116305
9.280369053165035,0.4380970004723555,3.098293546881943,-1.3851793620832007
9.284750023169758,0.4164613333331055,3.084441753261111,-1.368089908755247
9.288914636503089,0.39651318386104895,3.0707608541735585,-1.3539515453397952
9.292879768341699,0.37825723507842807,3.0572213387201606,-1.3427720717023512
9.296662340692484,0.36169123396298,3.043793618003137,-1.3345513344722777
9.300279253032114,0.34680702190315355,3.030448104658414,-1.329282650509462
9.303747323251146,0.33359142540238146,3.0171552781533197,-1.326954047922483
9.30708323750517,0.32202699450805816,3.003885737674095,-1.327549307947177
9.31030350745025,0.3120925828844898,2.9906102445946234,-1.3310487999464
9.313424433279096,0.30376376847388464,2.9772997565951593,-1.3374301087743437
9.316462070963835,0.2970131175194435,2.963925455507416,-1.3466684590715088
9.31943220213903,0.29181029762461036,2.950458770916701,-1.358736945084711
9.322350305115275,0.2881220477657281,2.936871401465854,-1.3736065777163613
9.325231525592933,0.28591201502071273,2.9231353356886904,-1.3912461630544803
9.32809064574314,0.2851404694535992,2.9092228740581456,-1.411622028934033
9.330942050437676,0.2857639102939818,2.8951066537688055,-1.4346976183904359
9.333799689540616,0.2877345784142289,2.880759677584901,-1.4604329713811202
9.336677035324758,0.29099989222463307,2.8661553478710897,-1.4887841189897855
9.339587034247005,0.2955018265055461,2.8512675066811917,-1.519702417526197
9.34254205251206,0.3011762563371474,2.8360704825059297,-1.5531338534360335
9.345553815075432,0.3079522910600486,2.8205391439715695,-1.5890183535852103
9.348633337986032,0.3157516259154547,2.8046489604357174,-1.6272891390229658
9.351790854245186,0.32448794140891224,2.788376069045488,-1.667872163398517
9.355035733659275,0.33406638218682405,2.7716973474115028,-1.7106856793593102
9.358376397481143,0.3443831479313816,2.7545904906179097,-1.7556399769839428
9.361820228960458,0.355325228070637,2.7370340908480704,-1.80263733706821
9.365373481241164,0.36677030959408446,2.719007717477388,-1.851572238395541
9.369041184337105,0.3785868826670768,2.7004919950934325,-1.9023318516030878
9.372827053163777,0.39063456189548584,2.681468676577402,-1.9547968427163225
9.376733398782731,0.4027646320488844,2.6619207081502387,-2.008842496956293
9.38076104510322,0.4148208160940577,2.6418322831806758,-2.0643401584475356
