th1 (rad),w1 (rad/s),th2 (rad),w2 (rad/s),a1 (rad/s^2),a2 (rad/s^2)
1.7979779502214746,2.8864052271137637,3.7633557219575327,2.572044594951631,-7.4243856347006565,-4.837032854895627
1.8268420024926122,2.812161370766757,3.789076167907049,2.523674266402675,-7.337796600966981,-4.198408266455097
1.8549636162002798,2.738783404757087,3.8143129105710756,2.481690183738124,-7.234520458362492,-3.5760614943439584
1.8823514502478507,2.666438200173462,3.8391298124084567,2.4459295687946843,-7.116239446146858,-2.9710021901721144
1.9090158322495854,2.5952758057119936,3.8635891080964035,2.4162195468929633,-6.984391187070599,-2.3839664870305866
1.9349685903067053,2.5254318938412874,3.887751303565333,2.3923798820226576,-6.840188221456232,-1.8154451054790555
1.9602229092451182,2.457030011626725,3.91167510238556,2.374225430967867,-6.68463785627042,-1.265709853201944
1.9847932093613854,2.3901836330640207,3.9354173566952384,2.361568332435848,-6.518561823350009,-0.7348382219241771
2.0086950456920256,2.3249980148305207,3.9590330400195968,2.354219950216606,-6.342615354223995,-0.22273592070294732
2.0319450258403307,2.2615718612882807,3.9825752395217626,2.3519925910095765,-6.157305377550829,0.2708427054000583
2.0545607444532132,2.1999988075127725,4.006095165431859,2.3547010180635772,-5.963007629711537,0.746276335716041
2.076560732528341,2.140368731215657,4.029642175612494,2.3621637814207377,-5.759982540689886,1.2040603119975433
2.097964419840497,2.082768905808758,4.053263813426701,2.3742043845407133,-5.548389817449699,1.644792104541478
2.118792108898585,2.027285007634261,4.077005857272108,2.390652305586128,-5.328301697148404,2.0691584236765315
2.1390649589749273,1.9740019906627768,4.100912380327969,2.4113438898228936,-5.099714884297995,2.4779237728043704
2.158804978881555,1.923004841819797,4.125025819226198,2.436123127550937,-4.862561220945417,2.8719202275997042
2.1780350272997526,1.8743792296103428,4.149387050501708,2.464842329826934,-4.616717168540145,3.2520382214856216
2.196778819595856,1.8282120579249412,4.174035473799977,2.4973627120417903,-4.362012205706038,3.619218117949649
2.2150609401751056,1.7845919358678808,4.199009100920395,2.533554893221287,-4.098236268814737,3.9744423537388354
2.2329068595337844,1.7436095731797334,4.224344649852608,2.5732993167586753,-3.8251463831064307,4.318727941796898
2.2503429552655816,1.7053581093486692,4.2500776430201945,2.616486596176644,-3.5424726520239025,4.6531191275400525
2.2673965363590685,1.6699333828284302,4.276242508981961,2.663017787452045,-3.249923792196366,4.9786799954870915
2.2840958701873526,1.6374341449064664,4.302872686856482,2.7128045874069158,-2.947192421795866,5.2964868243489835
2.300470211636417,1.6079622206885078,4.330000732730551,2.7657694556504056,-2.633960331344149,5.6076199866371965
2.316549833843302,1.5816226173750663,4.357658427287055,2.8218456555167775,-2.3099039889131525,5.913155183073591
2.3323660600170526,1.5585235774859347,4.385876883842223,2.8809772073475135,-1.9747005563470794,6.214153792216363
2.347951295791912,1.538776571922464,4.414686655915698,2.943118745269677,-1.6280347197883915,6.51165210165724
2.3633390615111365,1.5224962247245801,4.444117843368395,3.0082352662862495,-1.2696066663488825,6.806649169113838
2.3785640237583823,1.5098001580610914,4.474200196031258,3.076301757977388,-0.8991415688735506,7.100093040347934
2.393662025338993,1.500808742372356,4.504963213611031,3.1473026883808672,-0.5164009716414953,7.392865027190113
2.408670112762717,1.495644732655941,4.53643624049484,3.2212313386527685,-0.12119650022758244,7.685761724780593
2.4236265600892763,1.4944327676536653,4.568648553881368,3.2980889559005746,0.28659365343216864,7.979474424985028
2.438570887765813,1.497298704187987,4.601629443440373,3.377883700150425,0.7070049974879311,8.274565566373724
2.453543874807693,1.5043687541628663,4.635408280441878,3.460629355814162,1.139963272466548,8.571441854996397
2.468587562349322,1.5157683868875318,4.670014574000019,3.546343774364126,1.5852567670679432,8.870323700841011
2.4837452462181973,1.5316209545582111,4.7054780117436605,3.635047011372536,2.0425039619918155,9.17121065060364
2.4990614557637794,1.5520459941781293,4.741828481857386,3.726759117878572,2.511116106828203,9.473842568650092
2.5145819157055604,1.5771571552464112,4.779096073036172,3.821497543565073,2.990254441941806,9.777656437641816
2.5303534872580244,1.6070596996658293,4.817311048471822,3.919274107941491,3.4787819461037746,10.081738833504756
2.546424084254683,1.641847519126867,4.856503789551237,4.020091496276539,3.9752097396403174,10.384774393750133
2.5628425594459516,1.6815996165232703,4.896704704514002,4.12393924021404,4.4776386225502005,10.684990962662983
2.5796585556111844,1.7263760027487722,4.9379440969161426,4.230789149840669,4.983696698887956,10.980102580750126
2.5969223156386723,1.7762129697376519,4.980251988414549,4.34059017564817,5.490474653059404,11.267252106012279
2.614684445336049,1.831117716268246,5.023657890171031,4.453262696708293,5.99446101622389,11.542956022003919
2.6329956224987314,1.8910623264304849,5.068190517138114,4.568692256928332,6.491480697611883,11.803054901831375
2.6519062457630365,1.9559771334066036,5.113877439707397,4.686722805946646,6.976641145188767,12.042674039227569
2.6714660170971025,2.025743544858491,5.160744667766863,4.8071495463389216,7.44429170569414,12.256199881198226
2.6917234525456872,2.1001864619154325,5.208816163230253,4.929711545150904,7.888003002116407,12.437279017578408
2.7127253171648418,2.1790664919365965,5.258113278681762,5.054084335326689,8.300574316240716,12.578847470134638
2.7345159820842078,2.2620722350990037,5.308654122035029,5.179872810028035,8.674077877961993,12.673198692492978
2.7571367044351978,2.3488130138786234,5.360452850135309,5.306604796952965,8.999949385033528,12.71209880262623
2.780624834573984,2.438812507728959,5.413518898104839,5.433725784979227,9.269133717943724,12.686956839041224
2.8050129596512736,2.531503844908396,5.467856155954632,5.5605953533696395,9.472293356762432,12.589055962081021
2.8303279981003575,2.6262267784760205,5.523462109488328,5.68648591299045,9.600084147795938,12.409848249153772
2.8565902658851177,2.72222761995398,5.580326968618232,5.810584395481987,9.643498589756835,12.141310900125212
2.8838125420846574,2.8186626058515483,5.638432812573052,5.931997504483239,9.594270667651992,11.776355315895337
2.911999168143173,2.914605312528068,5.697752787617885,6.0497610576421925,9.445328685237271,11.309272967503926
2.9411452212684535,3.009058599380441,5.758250398194307,6.162853787317232,9.191274116200368,10.736193921273975
2.971235807262258,3.1009713405424444,5.81987893606748,6.270215726529972,8.82885618293324,10.055526383585676
3.0022455206676826,3.1892599023717767,5.88258109333278,6.370770990365829,8.357404993292958,9.268340021814657
3.0341381196914003,3.272833952304706,5.946288803236438,6.463454390583975,7.779182112831835,8.378653544673588
3.0668664592144474,3.3506257734330243,6.010923347142278,6.547240926030711,7.099607819686298,7.393589318778466
3.100372716948778,3.421621851629887,6.076395756402585,6.621176819218496,6.327329933759517,6.323365333676854
3.134588935465077,3.4848951509674824,6.142607524594769,6.684410472555264,5.474110196910157,5.1811074109138415
3.1694378869747517,3.539636252936584,6.209451629320322,6.736221546664402,4.554519863562025,3.982480966283199
3.2048342495041173,3.585181451572204,6.2768138447869655,6.776046356327234,3.585454588027434,2.745159730344496
3.2406860640198394,3.6210359974524784,6.3445743083502375,6.803497953630679,2.5854972711967026,1.488165899428439
3.2768964239943643,3.6468909701644456,6.412609287886545,6.818379612624963,1.5741734216694667,0.23112952220584904
3.3133653336960087,3.6626327043811404,6.480793084012794,6.8206909078470215,0.571154332151302,-1.006477560199085
3.34999166073982,3.6683442477026533,6.548999993091265,6.810626132245031,-0.4045325814464952,-2.20607720513435
3.3866751032168465,3.6642989218881885,6.617106254413715,6.7885653601936875,-1.3352299167146764,-3.3506397186477455
3.4233180924357285,3.6509466227210416,6.684991908015651,6.75505896300721,-2.205265673099747,-4.425218688477419
3.459827558662939,3.628893965990044,6.752542497645724,6.7108067761224355,-3.0014241528454475,-5.417340780412939
3.496116498322839,3.5988797244615895,6.819650565406948,6.656633368318306,-3.713254207667189,-6.317240230912658
3.532105295567455,3.561747182384918,6.886216899090131,6.59346096600918,-4.333212093645874,-7.117941437900286
3.567722767391304,3.5184150614484593,6.952151508750223,6.522281551630177,-4.856649666829235,-7.815204143303778
3.6029069180057887,3.469848564780167,7.017374324266525,6.444129510197139,-5.281668970834248,-8.407353498536587
3.6376054036535903,3.4170318750718245,7.081815619368497,6.360055975211773,-5.608870906804745,-8.895021697080221
3.6717757224043086,3.360943166003777,7.145416179120614,6.271105758240971,-5.841028680854926,-9.280829178118227
3.7053851540643463,3.302532879195228,7.2081272367030245,6.178297466459789,-5.982716556950684,-9.569032240999872
3.7384104828562985,3.242705713625721,7.269910211367622,6.08260714404979,-6.039921811012422,-9.765160951484809
3.7708375399925558,3.182306495515597,7.33073628280812,5.984955534534942,-6.019663483480341,-9.875667145110134
3.802660604947712,3.1221098606807938,7.390585838153469,5.88619886308384,-5.929636335342745,-9.907597740084537
3.83388170355452,3.062813497327366,7.449447826784308,5.787122885682995,-5.777892994592763,-9.868303949547537
3.8645098385277934,3.0050345673814385,7.507319055641138,5.688439846187519,-5.572572155806123,-9.765192695433075
3.894560184201608,2.9493088458233774,7.564203454103013,5.590787919233188,-5.321676221712607,-9.605522817337967
3.9240532726598416,2.896092083606251,7.620111333295345,5.494732691059808,-5.032898153555695,-9.396245673721019
3.953014193495904,2.8457631020706944,7.675058660205943,5.400770234322598,-4.713494594991423,-9.14388749054515
3.981471824516611,2.79862815612078,7.729066362549169,5.309331359417147,-4.370200518214876,-8.854469292848627
4.009458106077819,2.7549261509386316,7.7821596761433405,5.220786666488661,-4.009179607566578,-8.53345937597553
4.037007367587205,2.714834354862966,7.834367542808227,5.1354520727289055,-3.6360042032548936,-8.185752924214247
4.064155711135835,2.678474312830417,7.885722063535516,5.053594543486763,-3.2556587213886634,-7.815673443173981
4.090940454264139,2.6459177256165307,7.936258008970383,4.975437809055022,-2.8725608976900787,-7.426991019259038
4.117399631520304,2.61719211663963,7.986012387060933,4.901167898862432,-2.490595840708755,-7.022952948753889
4.1435715526867005,2.5922861582325427,8.035024066049557,4.830938369374893,-2.1131586201110824,-6.606322902194987
4.169494414269026,2.571154572031432,8.083333449743305,4.7648751403529435,-1.743201876587355,-6.17942543884673
4.19520595998934,2.5537225532655583,8.130982201146836,4.703080885964476,-1.3832856662562731,-5.744193312555343
4.220743185521996,2.5398896966029954,8.178013010006481,4.645638952838922,-1.0356274090640842,-5.30221558238295
4.246142082488026,2.5295334225123547,8.22446939953487,4.592616797015093,-0.7021503790002233,-4.854785041458304
4.27143741671315,2.5225119187223526,8.270395567505021,4.544068946600509,-0.38452964766433867,-4.402943898209708
4.296662535900373,2.5186666222457093,8.315836256971027,4.500039507618412,-0.08423477393530139,-3.9475269858245086
4.321849202122831,2.5178242745063564,8.36083665204721,4.460564237760167,0.19743117138832944,-3.4892020435062623
4.347027444867894,2.5197985862202397,8.405442294424812,4.425672217325104,0.45929643583083307,-3.028506814734108
4.372225430730096,2.524391550578548,8.449699016598064,4.395387149177763,0.7002893024216046,-2.565882852350234
4.397469346235882,2.531394443602764,8.493652888089843,4.369728320654261,0.9194106202493982,-2.1017060171495188
4.42278329067191,2.540588549805258,8.537350171296385,4.348711260482766,1.1157100108331275,-1.636313714447237
4.448189176169962,2.551745649913589,8.580837283901213,4.332348123338293,1.2882655809955286,-1.170028939696165
4.473706632669098,2.564628305723544,8.624160765134596,4.320647833941331,1.436166965245633,-0.7031812064171453
4.499352915726334,2.5789899753760004,8.66736724347401,4.31361602187716,1.5585015301380767,-0.2361244132592828
4.525142815480094,2.594574990677381,8.710503403692782,4.311254777744567,1.6543435938338957,0.23074832327008524
4.551088565386868,2.61111842661572,8.753615951470227,4.313562260977268,1.722746541196224,0.6969928839604619
4.577199749653025,2.6283458920276823,8.79675157408,4.320532189816873,1.7627377439848266,1.1621054700315732
4.603483208573302,2.6459732694675306,8.839956895978169,4.3321532445171895,1.7733162233549034,1.6255171444035401
4.629942941267978,2.6637064317010797,8.88327842842334,4.348408415961225,1.753453014561379,2.0865917522343644
4.656580005584988,2.6812409618466932,8.926762512582952,4.369274333483569,1.7020942083792434,2.5446274312684873
4.683392415203455,2.6982619039304856,8.970455255917788,4.394720607796254,1.6181666472508252,2.9988619679757393
4.71037503424276,2.714443570402994,9.01440246199575,4.424709227476011,1.5005862436082382,3.4484822944760833
4.73751946994679,2.7294494328390764,9.058649554270511,4.4591940504207725,1.3482688603085016,3.8926384513570897
4.764813964275181,2.7429321214421614,9.10324149477472,4.498120434934344,1.1601436459001904,4.330462360212593
4.792243285489603,2.7545335579011634,9.148222699124062,4.541425058536469,0.9351686480049842,4.761091754684384
4.819788621068614,2.763885244381213,9.193636949709427,4.589035976083313,0.6723484343693169,5.183699607895601
4.847427473512426,2.7706087287249064,9.23952730947026,4.640872972162269,0.37075333173452163,5.597529365922149
4.875133560799675,2.7743162620422517,9.285936039191883,4.69684826582149,0.02953974720225068,6.001936250799137
4.902876723420097,2.774611659514274,9.332904521850098,4.7568676283294815,-0.35202913378731554,6.396434833335972
4.93062284001524,2.7710913681764007,9.380473198133393,4.820831976662841,-0.7745631716704076,6.780752998457574
4.958333753697004,2.7633457364596965,9.42868151790002,4.888639506647417,-1.2385267284059802,7.154892339076926
4.985967211061601,2.7509604691756366,9.477567912966494,4.960188430038186,-1.7442230844084905,7.51919492674493
5.013476815753357,2.733518238331552,9.527169797266875,5.035380379305635,-2.2917833673687213,7.87441632990265
5.040811998136673,2.710600404657865,9.577523601059932,5.114124542604661,-2.8811617514946417,8.221804698203755
5.0679180021832515,2.6817887871429185,9.628664846485979,5.196342589586699,-3.512138864911175,8.563185721727274
5.094735890054681,2.6466673984938067,9.680628272381846,5.2819744468039715,-4.184335474484829,8.901053326343245
5.121202564039619,2.6048240437489585,9.733448016849886,5.370984980067404,-4.897238578848123,9.238666099796257
5.147250804477109,2.5558516579604773,9.78715786665056,5.4633716410653665,-5.650242005096413,9.580149671272947
5.172809321056714,2.499349237909513,9.841791583061214,5.559173137778096,-6.442703438572891,9.930605592752414
5.197802813435809,2.4349222035237843,9.897383314438995,5.65847919370562,-7.274019471374056,10.296227672842912
5.222152035471047,2.3621820088100436,9.95396810637605,5.7614414704340495,-8.143719661992069,10.684427131104881
5.245773855559148,2.280744812190123,10.011582521080392,5.868285741745098,-9.051579637351486,11.10396823832763
5.268581303681049,2.190229015816608,10.070265378497844,5.979325424128374,-9.99775173393592,11.565116025080778
5.290483593839215,2.0902514984772487,10.130058632739127,6.094976584379182,-10.982909202700078,12.079796697529035
5.311386108823988,1.9804224064502478,10.191008398582918,6.215774551354473,-12.008395943933108,12.661768734111963
5.33119033288849,1.8603384470109168,10.253166144096463,6.342392238695592,-13.07636693642233,13.326796714020313
5.349793717358599,1.7295747776466934,10.31659006648342,6.475660205835796,-14.189892924129996,14.092808019009732
5.3670894651350665,1.5876758484053934,10.381346668541777,6.616588286025893,-15.352982879315654,14.979989797762146
5.38296622361912,1.4341460196122369,10.447512551402037,6.766388184003515,-16.570442836649008,16.0107413420255
5.397307683815242,1.2684415912457467,10.515176433242072,6.92649559742377,-17.84742857458321,17.209319940828212
5.4099920997277,1.0899673054999146,10.584441389216309,7.098588796832052,-19.188442617976644,18.60087928998468
5.420891772782699,0.8980828793201482,10.65542727718463,7.284597589731899,-20.595339561460218,20.209351798442423
5.429872601575901,0.6921294837055461,10.72827325308195,7.4866911077163225,-22.063582762898374,22.05319158786903
5.436793896412956,0.47149365607656235,10.803140164159114,7.707223023595013,-23.575457497621784,24.13725351823152
5.441508832973722,0.2357390811003445,10.880212394395064,7.9485955587773285,-25.08809165735192,26.43788324853363
5.443866223784725,-0.015141835473174686,10.959698349982837,8.212974391262664,-26.512931716236555,28.876554215753522
5.443714805429993,-0.28027115263554025,11.041828093895463,8.501739933420199,-27.682112429198682,31.275514554714054
5.440912093903638,-0.557092276927527,11.126845493229665,8.814495078967338,-28.297585147045126,33.28904265181604
5.435341171134363,-0.8400681283979783,11.214990444019337,9.147385505485499,-27.866029627277573,34.31291594676028
5.4269404898503835,-1.118728424670754,11.306464299074191,9.490514664953102,-25.648141930369405,33.40857419032575
5.415753205603676,-1.375209843974448,11.401369445723722,9.824600406856359,-20.71005622432583,29.358516799100762
5.402001107163931,-1.5823104062177062,11.499615449792286,10.118185574847367,-12.239485751898016,21.0725519935315
5.3861780031017545,-1.7047052637366864,11.600797305540759,10.328911094782681,-0.23054139059610154,8.488375059372409
5.369130950464387,-1.7070106776426475,11.704086416488586,10.413794845376405,13.816846789379559,-6.507677623160545
5.352060843687961,-1.568842209748852,11.80822436494235,10.3487180691448,27.133735105894274,-20.414180517656387
5.336372421590473,-1.2975048586899092,11.911711545633798,10.144576263968236,37.210269679070805,-30.151281818301435
5.323397373003574,-0.9254021618992011,12.013157308273481,9.843063445785223,43.19505588542255,-34.8633403463207
5.3141433513845815,-0.4934516030449756,12.111587942731333,9.494430042322016,45.77814578111595,-35.672032427615164
5.309208835354132,-0.035670145233816064,12.206532243154554,9.137709718045864,46.174770503733214,-34.287202438378145
5.308852133901794,0.4260775598035161,12.297909340335012,8.794837693662082,45.39892227632059,-32.069013323493586
5.313112909499829,0.880066782566722,12.385857717271634,8.474147560427147,44.08165702866767,-29.830964505870256
5.321913577325496,1.3208833528533988,12.470599192875905,8.175837915368444,42.551223190184906,-27.9755722370503
5.33512241085403,1.746395584755248,12.55235757202959,7.896082192997941,40.952584831696846,-26.664595725608617
5.3525863667015825,2.1559214330722165,12.63131839395957,7.629436235741855,39.33448611307811,-25.93567396386149
5.374145581032304,2.5492662942029978,12.707612756316987,7.37007949610324,37.70093363164964,-25.767335230099008
5.3996382439743345,2.9262756305194944,12.78131355127802,7.11240614380225,36.03904870395919,-26.111525269676484
5.428901000279529,3.2866661175590863,12.852437612716042,6.851290891105485,34.333513716205935,-26.90870384452615
5.46176766145512,3.6300012547211455,12.920950521627097,6.582203852660223,32.57385072360702,-28.094421267335857
5.498067674002331,3.955739761957216,12.9867725601537,6.301259639986864,30.75789332325008,-29.602115610874716
5.537625071621903,4.263318695189716,13.049785156553568,6.005238483878117,28.893158717380796,-31.36451950204227
5.5802582585738,4.5522502823635245,13.10983754139235,5.691593288857694,26.996966322346587,-33.31482142381772
5.6257807613974355,4.8222199455869905,13.166753474280927,5.358445074619517,25.09573329561732,-35.38807416936361
5.674002960853305,5.073177278543164,13.220337925027122,5.004564332925881,23.22369512990381,-37.522992358897696
5.724734733638737,5.305414229842202,13.270383568356381,4.629334409336904,21.421233693572972,-39.6640849059918
