th1 (rad),w1 (rad/s),th2 (rad),w2 (rad/s),a1 (rad/s^2),a2 (rad/s^2)
5.850952577591969,1.525128532290349,5.696532664985755,3.0846555129487916,1.009068822843224,4.7857449961321565
5.8662038629148725,1.5352192205187811,5.7273792201152425,3.132512962910113,1.1148166563151118,4.392810789955443
5.88155605512006,1.5463673870819323,5.7587043497443435,3.1764410708096675,1.2455460168625418,3.964357608734054
5.8970197289908795,1.5588228472505576,5.79046876045244,3.216084646897008,1.4000256920655658,3.501941999194111
5.912607957463385,1.5728231041712133,5.82262960692141,3.251104066888949,1.5763865761370204,3.007846714936411
5.928336188505098,1.5885869699325834,5.855140647590299,3.281182534038313,1.772115757790166,2.4850894118333393
5.944222058204423,1.6063081275104851,5.8879524729306825,3.3060334281566464,1.984080662788618,1.9373974218678922
5.960285139479528,1.6261489341383712,5.921012807212249,3.3254074023753253,2.208585490688185,1.3691459989754675
5.976546628820912,1.6482347890452531,5.954266881236003,3.33909886236508,2.4414595123341236,0.7852606253737056
5.993028976711364,1.6726493841685943,5.987657869859654,3.3469514686188173,2.6781737909924024,0.19108754952741366
6.00975547055305,1.6994311220785183,6.021127384545842,3.3488623441140914,2.9139799592311695,-0.4077598077060795
6.026749781773836,1.72857092167083,6.054616007986983,3.3447847460370306,3.144062273084504,-1.0055681494410647
6.044035490990544,1.760011544401675,6.088063855447353,3.33472906454262,3.363692673390167,-1.5966932399511573
6.061635606434561,1.7936484711355767,6.121411146092779,3.3187621321431084,3.5683782706793292,-2.17571825391541
6.079572091145917,1.82933225384237,6.15459876741421,3.2970049496039544,3.753991591175128,-2.7375906517432216
6.097865413684341,1.8668721697541213,6.18756881691025,3.269629043086522,3.916875916500091,-3.277729317635925
6.116534135381882,1.9060409289191222,6.220265107341116,3.2368517499101626,4.053920779054371,-3.792097149512389
6.135594544671074,1.946580136709666,6.252633624840217,3.1989307784150385,4.162605700469622,-4.277238008587204
6.15506034603817,1.9882061937143622,6.284622932624368,3.1561583983291666,4.241013141845355,-4.730280369289259
6.174942407975314,2.030616325132816,6.31618451660766,3.108855594636274,4.287814015184671,-5.148912725310573
6.195248571226641,2.0734944652846625,6.347273072554023,3.0573664673831686,4.302230766841083,-5.531337557634875
6.215983515879488,2.1165167729530734,6.377846737227855,3.00205309180682,4.283983918946408,-5.876211405288864
6.237148683609019,2.1593566121425374,6.407867268145923,2.9432909777539313,4.2332281075862985,-6.182578413756874
6.258742249730444,2.2016888932184004,6.437300177923462,2.8814651936163624,4.150483238798361,-6.449803889479199
6.280759138662628,2.243193725606384,6.466114829859626,2.8169671547215707,4.036565586180556,-6.677513122146925
6.303191075918692,2.28355938146819,6.494284501406841,2.7501920235001016,3.8925226643918482,-6.865539296077967
6.326026669733373,2.3224846081121084,6.521786421641842,2.681536630539322,3.7195746860217738,-7.013882894583112
6.349251515814495,2.359680354972326,6.548601787947235,2.611397801593491,3.519064453799427,-7.1226837385475426
6.372848319364218,2.3948709995103203,6.57471576596317,2.5401709642080155,3.292416716997523,-7.192205759940914
6.3967970293593215,2.4277951666802955,6.600117475605249,2.4682489066086064,3.041107350939642,-7.222833807338277
6.421074981026124,2.458206240189692,6.624799964671335,2.396020568535224,2.766642193477609,-7.215081191801492
6.445657043428021,2.485872662124468,6.648760170356687,2.323869756617209,2.4705449668148822,-7.169606265298274
6.470515770049266,2.5105781117926167,6.671998867922859,2.2521736939642265,2.154353395253948,-7.087236031648905
6.495621551167192,2.532121645745156,6.694520604862501,2.1813013336477374,1.8196223692233886,-6.968994577738605
6.520942767624644,2.55031786943739,6.716333618198979,2.1116113878703513,1.467932780687363,-6.816133948264955
6.546445946319017,2.5649971972442636,6.737449732077683,2.043450048387702,1.100904453130765,-6.63016495464287
6.57209591829146,2.576006241775571,6.75788423256156,1.977148398841273,0.7202114115670044,-6.412885309695276
6.597855980709215,2.5832083558912413,6.7776557165499725,1.9130195457443202,0.32759759735829463,-6.166402433188632
6.623688064268127,2.586484331864824,6.796785912007415,1.851355521412434,-0.0751089480084118,-5.893148311537956
6.649552907586775,2.58573324238474,6.815299467221539,1.7924240382970544,-0.4859853975841543,-5.595883958435606
6.675410240010623,2.580873388408899,6.8332237076045095,1.7364651987126984,-0.9030087920701035,-5.277691351974917
6.701218973894712,2.5718433004881978,6.850588359591637,1.6836882851929493,-1.3240576012251535,-4.941951248476235
6.726937406899594,2.5586027244759464,6.8674252424435664,1.634268772708187,-1.7469213396657446,-4.592306004138753
6.752523434144354,2.541133511079289,6.883767930170649,1.5883457126667995,-2.169318814351539,-4.232607454512437
6.777934769255147,2.5194403229357736,6.899651387297316,1.546019638121675,-2.5889248990054314,-3.866850956275523
6.803129172484504,2.4935510739457194,6.9151115836785335,1.5073511285589198,-3.0034049906372866,-3.499097800082112
6.828064683223961,2.4635170240393465,6.930185094964123,1.4723601505580988,-3.4104555791682993,-3.133389245553085
6.852699853464355,2.4294124682476634,6.944908696469704,1.441026258102568,-3.8078487361047384,-2.7736562866687375
6.876993978146832,2.391333980886616,6.95931895905073,1.4132896952358804,-4.1934778818026786,-2.4236298128493203
6.9009073179556975,2.349399202068589,6.973451856003089,1.3890533971073873,-4.565401984847327,-2.0867560017868367
6.924401309976384,2.3037451822201156,6.987342389974162,1.368185837089519,-4.92188541338246,-1.766121524953203
6.947438761798585,2.254526328086291,7.0010242483450575,1.350524621839987,-5.261430991946018,-1.4643924822415773
6.969984025079448,2.201912018166831,7.014529494563457,1.3358806970175712,-5.582804376593408,-1.1837699805847903
6.992003145261116,2.146083974400897,7.027888301533633,1.3240429972117234,-5.8850485739531,-0.9259640491155398
7.013463985005125,2.087233488661366,7.04112873150575,1.314783356720568,-6.167488207149147,-0.6921862816943258
7.034336319891739,2.0255586065898745,7.054276565072955,1.3078614939036248,-6.429723881926242,-0.48316035907312216
7.054591905957637,1.961261367770612,7.067355180011991,1.3030298903128936,-6.671617650859722,-0.299148549738457
7.074204519635344,1.8945451912620148,7.08038547891512,1.3000384048155091,-6.893271056312836,-0.13999150615549108
7.093149971547963,1.8256124806988865,7.093385862963275,1.2986384897539542,-7.094997526192935,-0.0051582029551763275
7.111406096354952,1.7546625054369571,7.106372247860814,1.2985869077244026,-7.277291000775221,0.10619729661462782
7.128952721409322,1.681889595429205,7.119358116938058,1.2996488806905488,-7.440792606934765,0.19517544764698802
7.145771617363613,1.6074816693598573,7.132354605744964,1.3016006351670186,-7.586257006149865,0.26307008266698706
7.161846434057212,1.5316190992983585,7.145370612096634,1.3042313359936886,-7.714519769355794,0.3113089394892338
7.177162625050196,1.4544739016048005,7.15841292545657,1.3073444253885809,-7.826466819112051,0.3413977440367787
7.191707364066244,1.37620923341368,7.171486369710456,1.3107584028289487,-7.923006665399562,0.3548691968627647
7.2054694564003805,1.2969791667596844,7.184593953738745,1.3143070947975763,-8.005045874278135,0.35323771468268966
7.218439248067978,1.2169287080169031,7.197737024686721,1.3178394719444033,-8.07346796710423,0.3379603520277005
7.230608535148146,1.136194028345861,7.210915419406165,1.3212190754646804,-8.129115761161835,0.31040398955736853
7.241970475431605,1.0549028707342425,7.224127610160812,1.3243231153602542,-8.172777031862694,0.27181862873069895
7.252519504138948,0.9731751004156155,7.237370841314414,1.327041301647561,-8.205173298016923,0.22331647242644434
7.262251255143104,0.8911233674354463,7.25064125433089,1.3292744663718254,-8.226951497411,0.16585638677132947
7.271162488817459,0.8088538524613363,7.263933998994608,1.3309330302395388,-8.23867832055975,0.10023331662817489
7.279251027342072,0.7264670692557389,7.277243329297003,1.3319353634058206,-8.240836995938558,0.027072250392059995
7.28651569803463,0.6440586992963533,7.2905626829310615,1.3322060859097413,-8.23382636038897,-0.0531736165203442
7.292956285027593,0.5617204356924635,7.303884743790159,1.3316743497445378,-8.217962094528392,-0.140220800463522
7.298573489384517,0.47954081474717963,7.317201487287605,1.3302721417399026,-8.193480046540435,-0.23394973952083292
7.303368897531989,0.3976060142817753,7.330504208705004,1.3279326443446944,-8.160541601239494,-0.33439544111087477
7.307344957674807,0.3160005982693803,7.343783535148451,1.3245886899335857,-8.119241068302442,-0.44173467177289705
7.3105049636575,0.2348081875863559,7.357029422047787,1.3201713432158568,-8.069615058609953,-0.5562697813608717
7.312853045533364,0.15411203700025639,7.370231135479945,1.314608645402248,-8.01165378663221,-0.6784092785122287
7.314394165903367,0.07399549913393427,7.3833772219339675,1.3078245526171257,-7.945314177376941,-0.8086453405822009
7.315134120894706,-0.005457642639835142,7.396455467460139,1.2997380992113037,-7.870534568590542,-0.9475285506132197
7.315079544468308,-0.08416298832574057,7.4094528484522515,1.2902628137051715,-7.787250685690441,-1.095640303328334
7.314237914585051,-0.16203549518264498,7.422355476589304,1.279306410671888,-7.695412434981634,-1.2535635032700345
7.312617559633225,-0.23898961953246134,7.435148540696023,1.2667707756391877,-7.595000920766854,-1.421852376788671
7.3102276634378995,-0.3149396287401299,7.447816248452415,1.252552251871301,-7.486044958624335,-1.601002415445478
7.307078267150498,-0.3898000783263732,7.4603417709711275,1.2365422277168463,-7.36863624816936,-1.7914216364446183
7.303180266367234,-0.4634864408080668,7.472707193248296,1.2186280113524002,-7.24294230334379,-1.9934044581111645
7.298545401959154,-0.5359158638415047,7.48489347336182,1.1986939667712886,-7.10921623509631,-2.207109517987668
7.293186243320739,-0.6070080261924677,7.496880413029533,1.176622871591412,-6.967802554677339,-2.4325426855763608
7.287116163058815,-0.6766860517392411,7.508646641745448,1.1522974447356484,-6.819138322961945,-2.6695463284298766
7.280349302541422,-0.7448774349688606,7.520169616192804,1.1256019814513496,-6.66374920960951,-2.9177955801473936
7.272900528191734,-0.8115149270649558,7.5314256360073175,1.0964240256498756,-6.502240331413068,-3.176801948903775
7.264785378921085,-0.8765373303790864,7.542389876263816,1.0646560061608379,-6.335282086678214,-3.445924128484282
7.256020005617294,-0.9398901512458686,7.553036436325424,1.030196764875995,-6.163591557976269,-3.7243853764346038
7.246621104104835,-1.0015260668256314,7.563338403974185,0.9929529111116491,-5.987910380895819,-4.011296358941252
7.236605843436579,-1.0614051706345895,7.573267933085301,0.9528399475222366,-5.808980234609366,-4.305681981726966
7.225991791730233,-1.1194949729806831,7.582796332560523,0.9097831277049668,-5.627517271603873,-4.606510473800781
7.2147968420004265,-1.1757701456967218,7.591894163837573,0.863718022966959,-5.444186851380217,-4.912722893473078
7.203039140543459,-1.230212014210524,7.600531344067242,0.8145907940322282,-5.259579873815592,-5.223261290464415
7.190737020401354,-1.28280781294868,7.608677252007564,0.7623581811275841,-5.074191834705477,-5.537093970212123
7.177908942271867,-1.3335497312957347,7.6163008338188405,0.7069872414254629,-4.888405473663541,-5.853236634982561
7.16457344495891,-1.38243378603237,7.6233707062330955,0.6484548750756373,-4.702477585798004,-6.170768577881262
7.150749107098586,-1.4294585618903501,7.629855254983852,0.5867471892968247,-4.5165302584662,-6.488843532897471
7.136454521479683,-1.474623864475012,7.63572272687682,0.52185875396785,-4.330546505070296,-6.806695192369082
7.121708282834933,-1.517929329525715,7.640941314416499,0.45379180204415914,-4.144370024440116,-7.123637757128455
7.106528989539676,-1.5593730297701163,7.645479232436941,0.3825554244728746,-3.9577086327181905,-7.439062160633325
7.0909352592419745,-1.598950116097298,7.64930478668167,0.30816480286654135,-3.7701408009641537,-7.752428796093435
7.074945758081001,-1.6366515241069397,7.652386434710335,0.230640514905607,-3.581124683477398,-8.063257676099326
7.058579242839932,-1.6724627709417137,7.654692839859392,0.15000793814461372,-3.390009030178113,-8.37111697754265
7.041854615130515,-1.706362861243495,7.656192919240838,0.06629676836918721,-3.196045428444285,-8.675610886182314
7.02479098651808,-1.7383233155279378,7.65685588692453,-0.020459340492635925,-2.998401401255268,-8.97636757275271
7.0074077533628,-1.7683073295404905,7.656651293519603,-0.11022301622016303,-2.7961739855267167,-9.273028023216371
6.989724680067395,-1.7962690693957577,7.655549063357402,-0.20295329645232674,-2.5884035152003917,-9.56523632442056
6.971761989373437,-1.8221531045477617,7.653519530392878,-0.29860565969653236,-2.3740874286507885,-9.852631884377226
6.95354045832796,-1.8458939788342696,7.650533473795913,-0.39713197854030463,-2.152194002788532,-10.134843951251977
6.935081518539617,-1.8674159188621549,7.6465621540105095,-0.4984804180528244,-1.921675983033938,-10.41148869100205
6.916407359350996,-1.8866326786924943,7.641577349829982,-0.6025953049628449,-1.6814841275323185,-10.682168991547918
6.897541032564071,-1.9034475199678176,7.635551396780353,-0.709416994878324,-1.4305807158220438,-10.946477080208831
6.878506557364393,-1.917753327126038,7.62845722683157,-0.8188817656804123,-1.1679530882490556,-11.203999968082345
6.859329024093133,-1.9294328580085287,7.6202684091747654,-0.9309217653612357,-0.8926272853547631,-11.45432766629495
6.840034695513047,-1.9383591308620762,7.610959191521153,-1.045465042024185,-0.6036818496184437,-11.69706405023838
6.820651104204426,-1.9443959493582608,7.600504541100911,-1.162435682526569,-0.3002618393279156,-11.931840174424616
6.801207144710844,-1.94739856775154,7.588880184275645,-1.281754084270815,0.018406909351641635,-12.158329757717796
6.781733159033329,-1.9472144986580235,7.576062643432937,-1.403337381847993,0.3530032454118231,-12.376266461560904
6.762261014046748,-1.9436844662039052,7.562029269614457,-1.5271000464636022,0.7040958630743797,-12.585462467193247
6.7428241693847095,-1.9366435075731614,7.546758269149821,-1.6529546711355347,1.0721281110524532,-12.785827715806496
6.723457734308978,-1.9259222264626368,7.530228722438466,-1.7808129482935997,1.4574023555605047,-12.977389000849595
6.704198512044352,-1.9113482029070317,7.51242059295553,-1.9105868383020956,1.8600637146626933,-13.160307884842378
6.685085030015282,-1.8927475657604047,7.4933147245725085,-2.0421899171505196,2.2800828407543183,-13.334896141364911
6.666157554357678,-1.8699467373528615,7.472892825401003,-2.1755388785641685,2.7172372152462656,-13.501627078809875
6.647458086984149,-1.842774365200399,7.451137436615362,-2.3105551493522674,3.1710901121077755,-13.661140661730279
6.629030343332145,-1.8110634640793213,7.428031885121839,-2.44716655596957,3.640965956235748,-13.814239774787831
6.610919708691352,-1.7746538045169638,7.403560219562143,-2.5853089537174485,4.125920212985189,-13.96187422817406
6.593173170646182,-1.7333946023871118,7.377707130024969,-2.724927695999189,4.6247011527093,-14.105108122054
6.57583922462231,-1.6871475908600189,7.3504578530649765,-2.865978777219729,5.135699786220804,-14.245064894351705
6.55896774871371,-1.635790592997811,7.321798065292779,-3.008429426163246,5.656882903787655,-14.382842677440953
6.542609842783731,-1.5792217639599344,7.291713771031147,-3.1522578529376557,6.185702409911869,-14.519390379622925
6.526817625144132,-1.5173647398608157,7.260191192501771,-3.297451756733885,6.718971979172919,-14.655332085508995
6.511643977745524,-1.4501750200690864,7.227216674934432,-3.444005077588975,7.252699457669309,-14.790723876140026
6.497142227544833,-1.3776480254923933,7.192776624158542,-3.5919123163503754,7.78186049514274,-14.924723064442498
6.483365747289909,-1.299829420540966,7.156857500995038,-3.7411595469948002,8.300095923955809,-15.055145450984345
6.470367453084499,-1.2168284613014078,7.11944590552509,-3.891711001504644,8.799313124523989,-15.177882389317036
6.458199168471485,-1.1288353300561678,7.080528795510044,-4.043489825397814,9.269171499973305,-15.286148058080562
6.446910815170924,-1.0361436150564347,7.040093897256066,-4.19635130597862,9.696436960248574,-15.369531927089845
6.436549379020359,-0.9391792454539489,6.998130384196279,-4.350046625249519,10.064204725273017,-15.412848281380395
6.42715758656582,-0.8385371982012187,6.954629917943784,-4.504175108063323,10.351021391173012,-15.394814117009243
6.418772214583808,-0.7350269842894886,6.90958816686315,-4.658123249233415,10.529997038914471,-15.286663873577945
6.411421944740913,-0.6297270139003439,6.863006934370816,-4.810989887969194,10.568099559740423,-15.050943162947533
6.405124674601909,-0.5240460183029396,6.814897035491124,-4.96149931959867,10.425976980396442,-14.640929838714325
6.39988421441888,-0.41978624849897517,6.765282042295137,-5.107908617985814,10.058853899579113,-14.001404490888339
6.3956863519338905,-0.31919770950318405,6.714202956115279,-5.247922662894697,9.419247231241103,-13.071772140014103
6.392494374838859,-0.22500523719077303,6.661723729486332,-5.3786403842948385,8.462316494328388,-11.792652737151071
6.390244322466951,-0.14038207224748916,6.607937325643384,-5.496566911666349,7.154372612415652,-10.116696611288333
6.388840501744476,-0.06883834612333264,6.55297165652672,-5.597733877779232,5.4841326596814435,-8.023154099501038
6.388152118283243,-0.01399701952651821,6.496994317748928,-5.677965418774242,3.4746141554194576,-5.533474868391354
6.388012148087977,0.02074912202767637,6.440214663561186,-5.733300167458156,1.1915719459230538,-2.722542314798617
6.388219639308254,0.03266484148690691,6.382881661886604,-5.760525590606142,-1.2565996783343336,0.281180890715968
6.3885462877231225,0.020098844703563573,6.325276405980543,-5.757713781698983,-3.7308987709920274,3.3110882846497023
6.388747276170158,-0.017210143006356704,6.267699268163553,-5.724602898852486,-6.084332771946549,6.191604347965188
6.388575174740095,-0.0780534707258222,6.2104532391750285,-5.662686855372834,-8.188212752949525,8.771885838406606
6.387794640032837,-0.15993559825531745,6.1538263706213,-5.574967996988768,-9.95279068037991,10.951732733131541
6.386195284050284,-0.25946350505911653,6.098076690651412,-5.465450669657453,-11.335740407574306,12.691334704912727
6.383600648999693,-0.3728209091348596,6.043422183954838,-5.3385373226083255,-12.338049360446174,14.004626488108219
6.379872439908344,-0.49620140273932134,5.990036810728754,-5.198491057727243,-12.991909546526177,14.942602281281816
6.374910425880951,-0.6261204982045832,5.938051900151482,-5.049065034914425,-13.346581585055677,15.574563454409757
6.368649220898905,-0.75958631405514,5.887561249802338,-4.893319400370327,-13.456541356817244,15.972870540220388
6.361053357758354,-0.8941517276233124,5.838628055798634,-4.7335906949681235,-13.37362997512395,16.20325344275506
6.35211184048212,-1.0278880273745519,5.791292148848953,-4.571558160540573,-13.143002307834832,16.32020523670532
6.341832960208374,-1.1593180504529002,5.745576567243547,-4.40835610817352,-12.80182010593132,16.36593481345568
6.330239779703845,-1.2873362515122133,5.701493006161812,-4.244696760038964,-12.37956107824148,16.37132963904233
6.317366417188723,-1.411131862294628,5.659046038561422,-4.080983463648541,-11.899083161033289,16.35778569451757
6.303255098565777,-1.530122693904961,5.618236203924936,-3.917405606703365,-11.37790571852438,16.339213931284647
6.287953871626727,-1.6439017510902048,5.579062147857902,-3.7540134673905183,-10.82942391870707,16.32387667435955
6.271514854115825,-1.7521959902772755,5.5415220131839975,-3.590774700646923,-10.263936612725367,16.31592209711403
6.253992894213052,-1.854835356404529,5.5056142661775285,-3.4276154796757825,-9.689459421122779,16.31659961268496
6.235444540649007,-1.9517299506157568,5.471338111380771,-3.264449483548933,-9.112338560908569,16.325190398427516
