th1 (rad),w1 (rad/s),th2 (rad),w2 (rad/s)
2.262756691916702,-1.556938883199791,4.583703603972115,2.1026020846310867
2.2471873030847043,-1.598892277831466,4.604729624818425,2.153456006139162
2.2311983803063895,-1.6415274385477974,4.626264184879817,2.202647904028876
2.2147831059209113,-1.6850575345687229,4.648290663920106,2.250032388865813
2.197932530575224,-1.729720629520457,4.670790987808764,2.2954376383055104
2.1806353242800194,-1.7757806344042415,4.693745364191819,2.338664067420185
2.162877517935977,-1.8235273504707914,4.717132004866021,2.3794843495773317
2.144642244431269,-1.8732751036131896,4.740926848361794,2.417645496759583
2.1259094933951372,-1.9253593394007966,4.76510330332939,2.452873900542886
2.106655900001129,-1.980130427500125,4.789632042334818,2.4848844137223765
2.0868545957261277,-2.037943853227482,4.814480886472042,2.5133946660286544
2.066475157193853,-2.0991460099821606,4.8396148331323285,2.538145774516212
2.0454836970940313,-2.16405502714786,4.864996290877491,2.5589303194055044
2.0238431468225526,-2.2329365620875956,4.8905855940715455,2.575627781966047
2.001513781201677,-2.3059753254216386,4.9163418718912055,2.588246473423179
1.9784540279474605,-2.3832443084692074,4.942224336625437,2.5969692964965776
1.9546215848627684,-2.4646751311325206,4.9681940295904035,2.6021986179836185
1.9299748335514433,-2.5500343407537254,4.99421601577024,2.6045934877223926
1.9044744901439061,-2.63891139574463,5.0202619506474635,2.605091080940395
1.8780853761864598,-2.7307238959990885,5.046312861456867,2.604904379781813
1.850778137226469,-2.8247439275530994,5.072361905254685,2.605490409885291
1.822530697950938,-2.9201461262834525,5.098416809353538,2.6084879202211577
1.7933292366881033,-3.0160738031887417,5.12450168855575,2.6156294820298576
1.763168498656216,-3.1117153547201832,5.150657983376048,2.628638992753894
1.732051345109014,-3.206380549791098,5.176944373303587,2.649129581234329
1.699987539611103,-3.299566110010206,5.2034356691159305,2.6785174830194123
1.666991878511001,-3.3910024075766483,5.230220843946125,2.7179643234054773
1.6330818544352346,-3.480677306373331,5.257400487180179,2.768354461096539
1.5982750813715012,-3.5688378324780152,5.285084031791145,2.830307481480192
1.562586703046721,-3.6559741902371625,5.313387106605947,2.9042204604134327
1.5260269611443495,-3.742792863308467,5.342429311210081,2.9903314343087004
1.4885990325112648,-3.8301860469343505,5.372332625553168,3.088794860531183
1.4502971720419213,-3.919203854281273,5.403220574158479,3.1997612333108894
1.4111051334991085,-4.01103425798911,5.435218186491588,3.3234555870351916
1.3709947909192175,-4.106994165481836,5.46845274236194,3.4602525564127933
1.3299248492643991,-4.208533802565896,5.503055267926068,3.6107484130792207
1.2878395112387402,-4.317255910912224,5.53916275205686,3.775832813133662
1.2446669521296179,-4.434951211993005,5.576921080188196,3.9567648781357563
1.2003174400096879,-4.563652125939506,5.6164887289695535,4.155259859419775
1.1546809187502929,-4.705707794500208,5.658041327563751,4.373594225186819
1.1076238408052907,-4.8638849477542445,5.7017772698156195,4.614738736976861
1.0589849913277483,-5.041500872925935,5.747924657185388,4.882530914600034
1.0085699825984888,-5.242596134846662,5.796749966331388,5.18189962949268
0.9561440212500222,-5.472154190410503,5.848568962626315,5.51915334455703
0.9014224793459171,-5.736368336858359,5.903760496071885,5.902333823927316
0.8440587959773336,-6.042932090089239,5.962783834311158,6.341603066867333
0.7836294750764412,-6.40125709938782,6.026199864979831,6.849530943205116
0.719616904082563,-6.8223256686766085,6.094695174411882,7.440876367833016
0.6513936473957969,-7.317370402320985,6.169103938090212,8.130736336273854
0.578219943372587,-7.893311207566346,6.250411301452951,8.92817092032103
0.49928683129692353,-8.540215684266963,6.339693010656162,9.81867638511649
0.4138846744542539,-9.202834384157063,6.437879774507326,10.724353120999684
0.32185633061268326,-9.736589103588079,6.545123305717323,11.442243838383442
0.22449043957680248,-9.907712463789553,6.659545744101157,11.64445201433448
0.12541331493890695,-9.571502040743425,6.775990264244502,11.127585298257078
0.0296982945314727,-8.888953853165106,6.887266117227073,10.115161556925159
-0.05919124400017836,-8.149899309780032,6.988417732796324,9.009746656221385
-0.14069023709797868,-7.506849661324553,7.078515199358538,8.022367942561052
-0.21575873371122423,-6.987376773314367,7.158738878784148,7.190585464776149
-0.2856325014443679,-6.5759742477810335,7.23064473343191,6.492364976678669
-0.35139224392217827,-6.250895701123387,7.295568383198696,5.897080156783291
-0.41390120093341215,-5.993724468977961,7.354539184766529,5.378712499614467
-0.4738384456231918,-5.790479373545116,7.408326309762674,4.917384811908027
-0.531743239358643,-5.630810993344105,7.457500157881754,4.498292626603515
-0.588051349292084,-5.50702436323585,7.50248308414779,4.110423202731633
-0.6431215929244425,-5.413288404261597,7.543587316175106,3.7455549202225473
-0.6972544769670584,-5.34505068509116,7.581042865377332,3.397560637127829
-0.75070498381797,-5.29861012731486,7.61501847174861,3.061947399264178
-0.8036910850911186,-5.27080121247309,7.645637945741252,2.7355638388199304
-0.8563990972158495,-5.258756706500911,7.672993584129451,2.416420933916504
-0.9089866642808586,-5.259728909473006,7.697157793468617,2.1035840713362557
-0.9615839533755887,-5.270959580346365,7.718193634181979,1.7971021218372427
-1.0142935491790523,-5.289595848824459,7.736164655400351,1.4979438390170414
-1.067189507667297,-5.312653604749748,7.751144093790522,1.207915528451894
-1.1203160437147945,-5.337030835115959,7.763223249075041,0.9295388159236926
-1.1736863520659542,-5.359571001141784,7.772518637234278,0.6658751521117542
-1.2272820620773721,-5.377171174593824,7.779177388755395,0.4202949527708457
-1.2810537738233103,-5.386922542160865,7.783380338283103,0.19620283642908345
-1.334922999244919,-5.386264183425778,7.785342366647394,-0.0032565541436530288
-1.3887856410791768,-5.37312718964099,7.785309801105957,-0.17547887770042708
-1.4425169129755866,-5.34604700686406,7.783555012328953,-0.3186318004260235
-1.4959773830442271,-5.304227594171506,7.780368694324692,-0.4318099758300644
-1.5490196589859422,-5.247550050544678,7.776050594566391,-0.5150981233960011
-1.6014951594913889,-5.176528130854321,7.770899613332431,-0.5695423322632773
-1.653260440799932,-5.092220937734442,7.765204190009798,-0.597043160851184
-1.7041826501772765,-4.9961174845534275,7.759233758401286,-0.6001927668660344
-1.7541438250228107,-4.890008607366579,7.753231830732625,-0.582081317778729
-1.8030439110964764,-4.775859751817039,7.747411017554838,-0.5460962066721777
-1.850802508614647,-4.655694775302636,7.741950055488116,-0.49573293246112293
-1.8973594563676732,-4.531497230895921,7.736992726163505,-0.43443070982762566
-1.9426744286766324,-4.405132354777063,7.732648419065229,-0.36544026522733297
-1.986725752224403,-4.278290454439556,7.728994016412956,-0.29172655555476845
-2.0295086567687988,-4.152450600613475,7.726076750857408,-0.21590555240884657
-2.0710331627749334,-4.028862349580802,7.72391769533332,-0.14021174083807963
-2.1113217862707416,-3.90854253504235,7.7225155779249395,-0.06649145362588603
-2.150407211621165,-3.792283865096647,7.721850663388681,0.0037835591423361348
-2.1883300502721315,-3.6806720601946243,7.721888498980104,0.0694880016383459
-2.225136770874078,-3.574108503059064,7.722583378996488,0.129805613658167
-2.2608778559046687,-3.4728357727830117,7.72388143513307,0.18418699924338763
-2.2956062136324986,-3.376963932747792,7.725723305125504,0.2323063370214093
-2.3293758529599766,-3.286495969804407,7.728046368495718,0.2740196633015261
-2.3622408126580208,-3.201351285697915,7.730786565128733,0.30932653560859075
-2.394254325515,-3.1213865825195106,7.7338798304848195,0.33833612607400076
-2.425468191340195,-3.046413841032083,7.737263191745559,0.3612381921722251
-2.455932329750516,-2.976215358386337,7.740875573667282,0.37827893064344886
-2.4856944833343793,-2.910555995701845,7.744658362973716,0.3897414244072726
-2.5148000432913977,-2.8491928986949975,7.748555777217789,0.3959302170266519
-2.5432919722783476,-2.7918830112844875,7.752515079388056,0.3971594666827387
-2.5712108023911924,-2.7383887181263638,7.756486674054884,0.3937441148520047
-2.598594689572456,-2.6884819407551945,7.760424115203404,0.3859935310291962
-2.625479508980008,-2.6419469842736145,7.764284050513695,0.3742071459050544
-2.651898978822744,-2.598582395459819,7.768026121972746,0.3586716482167795
-2.677884802777342,-2.5582020544202004,7.771612838454914,0.3396593860770479
-2.703466823321544,-2.5206356841639233,7.775009432315684,0.3174276763351953
-2.728673180163183,-2.4857289278540615,7.778183709079037,0.2922187822948055
-2.7535304694417237,-2.4533431130456704,7.781105896901985,0.26426036949431664
-2.7780639005721803,-2.42335479627913,7.783748500596928,0.23376629096318202
-2.8022974485349716,-2.395655159832001,7.7860861635065595,0.2009375877806242
-2.8262540001332916,-2.3701493148678097,7.788095539384366,0.16596361862934966
-2.84995549328197,-2.3467555511623908,7.789755175570659,0.12902325424254274
-2.873423048793594,-2.3254045625138615,7.791045408113084,0.0902860900958538
-2.8966770944187323,-2.306038668347765,7.791948269014043,0.0499136442461436
-2.91973748110221,-2.288611045458941,7.792447405456504,0.008060517619771272
-2.9426235915567993,-2.2730849788900724,7.792528010632702,-0.035124498048740925
-2.9653544413457,-2.25943313729864,7.792176765652214,-0.07949737349328354
-2.9879487727186866,-2.247636875532029,7.791381791917281,-0.1249178608651474
-3.010425141474007,-2.2376855652892087,7.79013261330863,-0.1712485795759326
-3.032801997126899,-2.2295759535156945,7.788420127512871,-0.2183541679147564
-3.0550977566620556,-2.2233115474126994,7.7862365858337235,-0.26610049765673466
-3.0773308721361827,-2.218902024528638,7.783575580857156,-0.3143539477272796
-3.099519892381469,-2.2163626662537204,7.780432041379883,-0.3629807322186222
-3.1216835190440064,-2.2157138130887786,7.776802234057697,-0.41184627757608794
-3.143840657174894,-2.2169803402565047,7.772683771281936,-0.4608146435115953
-3.1660104605774593,-2.220191152528793,7.76807562484682,-0.5097479821090002
-3.1882123721027473,-2.225378697530205,7.7629781450257305,-0.5585060296227875
-3.210466159078049,-2.2325784972254605,7.757393084729503,-0.6069456256110523
-3.232791944050304,-2.241828697795952,7.751323628473393,-0.6549202542658011
-3.2552102310282636,-2.253169638649737,7.744774425930735,-0.7022796030932072
-3.277741927414761,-2.266643441889154,7.737751629899803,-0.748869134441224
-3.3004083618336524,-2.2822936241816505,7.7302629385553905,-0.7945296657607386
-3.323231298075469,-2.3001647336473923,7.722317641897783,-0.8390969549078966
-3.346232945411943,-2.3203020150990095,7.7139266723487045,-0.882401287236814
-3.3694359655629333,-2.34275110775381,7.705102659476337,-0.9242670616788783
-3.3928634766404713,-2.3675577803979992,7.695859988859548,-0.9645123734395832
-3.4165390544444514,-2.394767709928128,7.686214865125152,-1.0029485913450293
-3.4404867315437326,-2.424426310240328,7.676185379211701,-1.0393799282123317
-3.464730994646136,-2.456578619596491,7.665791579929578,-1.073603002870922
-3.4892967808421007,-2.491269255882329,7.655055549900869,-1.1054063925896733
-3.514209473400924,-2.52854245059892,7.644001485974972,-1.134570174627058
-3.539494897906913,-2.568442174010278,7.632655784228701,-1.160865455371918
-3.565179319647016,-2.611012365617329,7.621047129674982,-1.1840538850295292
-3.5912894433031894,-2.6562972860549214,7.609206590824686,-1.203887154976064
-3.6178524161637386,-2.704342008623056,7.597167719274926,-1.2201064736965497
-3.6448958362499693,-2.7551930709735672,7.58496665453796,-1.2324420155801772
-3.672447766959705,-2.8088993099820674,7.572642234382158,-1.2406123347216134
-3.7005367600595256,-2.865512905537906,7.560236111034942,-1.2443237332315418
-3.7291918891149045,-2.925090661865951,7.547792873702626,-1.2432695703850847
-3.758442795733564,-2.9876955580160796,7.5353601779987756,-1.2371294952715832
-3.788319751313725,-3.053398602246794,7.52298888304606,-1.2255685815702526
-3.818853737336193,-3.1222810280557165,7.5107331972303575,-1.2082363389061768
-3.85007654761675,-3.1944368723383816,7.498650833841296,-1.1847655713818968
-3.882020916340134,-3.2699759781866464,7.486803178127477,-1.1547710510864209
-3.914720676122,-3.349027465491589,7.475255467616613,-1.117847973900878
-3.948210950776916,-3.431743710662081,7.464076987877604,-1.0735701687604167
-3.9825283878835367,-3.5183048705397537,7.45334128619,-1.021488042910103
-4.017711436588934,-3.608923971914697,7.443126405760899,-0.9611262697129532
-4.053800676308081,-3.7038525619142777,7.43351514306377,-0.8919812703124346
-4.090839201927224,-3.803386867808675,7.424595330360646,-0.8135186187016755
-4.1288730706053105,-3.907874334273007,7.416460144173628,-0.7251706317179996
-4.167951813948041,-4.01772027061849,7.4092084378564484,-0.6263346231065612
-4.208129016654226,-4.133394115853275,7.402945091625383,-0.5163726544784737
-4.249462957812759,-4.2554344612941355,7.397781365080598,-0.3946141849086188
-4.292017302425701,-4.38445137304519,7.393835223231512,-0.2603639284253564
-4.335861816156153,-4.521123596891663,7.391231583947258,-0.11291866388554128
-4.381073052125069,-4.666186705240872,7.390102397308403,0.04840101333849467
-4.427734919177478,-4.820405871465241,7.390586407441788,0.22419455466782842
-4.475938977892131,-4.98452335547623,7.392828352988466,0.41488632094988
-4.525784211446894,-5.1591655651214685,7.396977216197964,0.6205694327863474
-4.577375867098108,-5.34468759608293,7.403182910525827,0.8407568957893677
-4.630822743058937,-5.540925368806947,7.411590479483721,1.0739977614779819
-4.686231996747007,-5.746820659876508,7.4223304570985,1.3173103968432125
-4.743700203345772,-5.9598926510044885,7.435503561066932,1.565398981609534
-4.803299129855817,-6.175572653044711,7.4511575508830274,1.8096842805131108
-4.865054856386264,-6.386530683012325,7.469254393688159,2.0373445776746175
-4.928920163216387,-6.582330322507826,7.489627839464905,2.2308648079562854
-4.994743466441465,-6.749996461973139,7.511936487544468,2.3689498959301036
-5.062243431061196,-6.876107753382729,7.535625986503769,2.4296940446421242
-5.131004508595024,-6.9503891903408705,7.55992292695019,2.3959725563107197
-5.200508400498433,-6.969422260591829,7.583882652513297,2.2610494538556596
-5.2702026231043515,-6.938151893025749,7.606493147051854,2.031010593816449
-5.339584142034609,-6.867939760635924,7.626803252990018,1.722140146503646
-5.408263539640968,-6.772437459596194,7.6440246544550545,1.355004902286655
-5.4759879142369305,-6.663820265816201,7.657574703477921,0.9489096550433853
-5.542626116895093,-6.550877389617529,7.667063800028354,0.5189553406766308
-5.608134890791268,-6.4388156790187425,7.672253353435121,0.07557919953422193
-5.672523047581455,-6.329935030569385,7.673009145430463,-0.3745926281133792
-5.735822397887149,-6.224489297747352,7.669263219149329,-0.8275687701762298
-5.798067290864623,-6.121412853713996,7.660987531447566,-1.280973838673793
-5.859281419401762,-6.018840060789518,7.648177793060828,-1.733314757655497
-5.919469820009658,-5.914448220088068,7.630844645484273,-2.1835058478189047
-5.978614302210539,-5.805677564573045,7.609009587006084,-2.6305871871595023
-6.036671077856269,-5.689874516349088,7.582703715134489,-3.0735764333182547
-6.09356982301976,-5.564390558893395,7.5519679508013065,-3.51141049505701
-6.149213728608695,-5.426656853195177,7.516853845850736,-3.942947954125337
-6.203480297140646,-5.27424578143358,7.477424366309483,-4.36701326892377
-6.256222754954982,-5.10492451093117,7.433754233620245,-4.782470016863385
-6.307272000064294,-4.916701677943949,7.385929533451612,-5.188313911206066
-6.3564390168437335,-4.707865805086932,7.334046394339551,-5.583778113133497
-6.403517674894603,-4.477012733194629,7.278208613208216,-5.968444230381406
-6.44828780222655,-4.223059000282079,7.218524170904402,-6.342352858987328
-6.4905183922293705,-3.945238700020664,7.155100642314529,-6.706107838838552
-6.529970779229577,-3.6430829711214296,7.088039563926143,-7.060968534351469
-6.566401608940792,-3.3163841222839685,7.017429878582629,-7.408924035086889
-6.599565450163632,-2.9651509696787106,6.94334063823176,-7.752741270539925
-6.629216959860419,-2.5895692797792864,6.86581322552636,-8.095973829992957
-6.655112652658212,-2.1899933287778115,6.784853487226431,-8.442906424345688
-6.67701258594599,-1.7670154098277358,6.700424422982974,-8.798385464140383
-6.694682740044267,-1.3216964312879693,6.61244056834157,-9.167439073065083
-6.707899704357147,-0.8561026545647725,6.520766177610919,-9.554504915653744
-6.716460730902795,-0.37439034083746753,6.425221128454382,-9.961946394435614
-6.72020463431117,0.11520249005639788,6.3256016645100255,-10.387361442541298
-6.719052609410606,0.5970743626707177,6.221728050084613,-10.819121625294555
-6.713081865783899,1.0437796553092973,6.113536833831667,-11.230165534167947
-6.702644069230805,1.4123100660061874,6.0012351784899876,-11.572543641212235
-6.688520968570743,1.6470006331402978,5.885509742077865,-11.78048653158193
-6.67205096223934,1.69717220861085,5.767704876762045,-11.79291133978929
-6.655079240153232,1.54673492317941,5.649775763364152,-11.591731644879221
-6.639611890921438,1.2297364604237027,5.53385844691536,-11.221320131719038
-6.6273145263172015,0.810469908723792,5.42164524559817,-10.761458371427803
-6.619209827229963,0.3491728583930863,5.314030661883892,-10.2829278300494
-6.615718098646033,-0.1150316485642836,5.211201383583399,-9.82718237884328
-6.616868415131676,-0.5623541919690628,5.112929559794966,-9.41053524475302
-6.622491957051366,-0.9848033443984567,5.018824207347436,-9.034898678030729
-6.632339990495351,-1.3801943239499188,4.928475220567129,-8.695775592253616
-6.6461419337348495,-1.7487544370374883,4.841517464644593,-8.386560352507693
-6.663629478105224,-2.0914842352855825,4.757651861119515,-8.100495622125747
-6.68454432045808,-2.409454620577443,4.6766469048982575,-7.831446544264701
-6.708638866663855,-2.7035538941005797,4.598332439455611,-7.574143643891112
-6.735674405604861,-2.974437932137272,4.522591003016699,-7.324207780460927
-6.765418784926234,-3.222565693487474,4.44934892521209,-7.078096020285079
-6.797644441861109,-3.4482652536055642,4.378567965009239,-6.83302566323367
-6.832127094397165,-3.6518051189758207,4.310237708376903,-6.586897445250328
-6.868645145586923,-3.8334592826632514,4.244368733924399,-6.338223690747806
-6.906979738413555,-3.99356090167369,4.180986497016921,-6.086061359201265
-6.946915347430292,-4.1325426067180695,4.120125883424908,-5.829948236193255
-6.9882407734974725,-4.250963114045106,4.061826401062976,-5.569840560107913
-7.0307504046379234,-4.349520798655073,4.006127995461896,-5.3060510525493285
-7.074245612624474,-4.429055542131417,3.953067484936403,-5.0391871250258955
-7.118536168045789,-4.490540612135184,3.902675613686144,-4.770089733758654
-7.16344157416714,-4.535066605138481,3.8549747163485573,-4.499773851691774
-7.208792240218525,-4.563819603119971,3.8099769778316395,-4.229371796887625
-7.2544304362497245,-4.5780556709364895,3.767683259862763,-3.9600807147204096
-7.300210992959089,-4.579073673239133,3.728082452715559,-3.6931153951257136
-7.346001729691481,-4.568188145099977,3.691151298764302,-3.429667363549088
-7.39168361114248,-4.546703640632019,3.656854625128811,-3.1708708652435083
-7.4371506475488,-4.515891641293704,3.625145916476376,-2.917776013640118
-7.482309563961738,-4.476970760080142,3.595968156339975,-2.6713290337601205
-7.527079271562539,-4.431090654106942,3.5692548660023737,-2.4323592307973074
-7.571390178103608,-4.379319774421707,3.5449312736944005,-2.2015720718398337
-7.615183375847826,-4.322636849653911,3.522915552976002,-1.9795475953983652
-7.658409744344365,-4.261925824361622,3.5031200770220186,-1.7667432607503786
-7.701029002587981,-4.197973853229825,3.4854526444145146,-1.5635003121763003
-7.743008741120279,-4.131471884004389,3.4698176412927517,-1.370052752282683
