th1 (rad),w1 (rad/s),th2 (rad),w2 (rad/s)
4.941050977716035,2.6963787433667776,0.30461681916262356,0.9850042803916935
4.968014765149703,2.793077718988117,0.3144668619665405,0.8904541005254722
4.995945542339584,2.8888353173907944,0.32337140297179523,0.7878951773011736
5.024833895513492,2.9838191473960736,0.33125035474480696,0.6771474148170019
5.054672086987453,3.078246788174664,0.338021828892977,0.558034923738633
5.0854545548692,3.1723908759456205,0.3436021781303633,0.43037967021215806
5.117178463628656,3.2665845281342465,0.34790597483248487,0.29399352025234665
5.149844308909999,3.3612272211276237,0.3508459100350083,0.14866852029271313
5.183456581121275,3.4567912714527145,0.3523325952379354,-0.005834741682954198
5.218024493835802,3.5538291013401064,0.3522742478211059,-0.16980083880240385
5.253562784849203,3.652981490447472,0.35057623943308186,-0.34357538848265157
5.290092599753677,3.754987011913104,0.34714048554825533,-0.5275831708324396
5.327642469872808,3.8606927975408487,0.3418646538399309,-0.7223484064912608
5.366249397848216,3.9710666282000804,0.3346411697750183,-0.9285168558905118
5.405960064130217,4.0872100194246705,0.3253560012161132,-1.1468788925358602
5.446832164324464,4.210371321006099,0.3138872122907546,-1.3783917375303463
5.488935877534525,4.3419566074448674,0.3001032949154511,-1.6241972455943594
5.5323554436089735,4.483533827784722,0.2838613224595075,-1.8856283331657553
5.577190781886821,4.636821465786812,0.26500503912784995,-2.164191150913087
5.6235589965446895,4.803645373410828,0.2433631276187191,-2.4614993762372017
5.671595450278798,4.98583405795567,0.21874813385634706,-2.7791181459106613
5.721453790858355,5.184999863196741,0.19095695239724045,-3.1182430647161916
5.773303789490322,5.402116833189597,0.15977452175007853,-3.479088408313415
5.827324957822218,5.636754451575698,0.12498363766694437,-3.859786754317345
5.883692502337975,5.885776288309634,0.08638577012377091,-4.25453339292811
5.942550265221071,6.141336988629356,0.04384043619448981,-4.650746844366264
6.003963635107365,6.388315686909021,-0.002667032249172828,-5.025452514339551
6.0678467919764545,6.602285053457071,-0.05292155739256834,-5.342460434104413
6.1338696425110255,6.750877516404522,-0.10634616173361247,-5.554400398455481
6.201378417675071,6.802358648869661,-0.16189016571816728,-5.615008765665691
6.2694020041637675,6.740902911700119,-0.2180402533748242,-5.50093736073263
6.336811033280768,6.577918107742636,-0.2730496269821505,-5.227971795293176
6.402590214358194,6.3469541627523745,-0.32532934493508225,-4.843946407070867
6.466059755985718,6.0861979074281045,-0.3737688090057909,-4.403924089242696
6.526921735059999,5.824573661130545,-0.41780804989821785,-3.9503075862741923
6.585167471671305,5.578463754976937,-0.4573111257609598,-3.5079340541127073
6.640952109221074,5.354721470295993,-0.4923904663020868,-3.088150278239151
6.694499323924035,5.154649939597148,-0.5232719690844784,-2.6943574705742277
6.7460458233200065,4.97684914333747,-0.5502155437902206,-2.326024620541971
6.795814314753382,4.818835281986958,-0.5734757899956403,-1.9809976583544189
6.8440026675732515,4.677850108897754,-0.5932857665791845,-1.6566719846620848
6.890781168662229,4.551224105637839,-0.6098524864258054,-1.3505322146898833
6.936293409718607,4.4365161079701965,-0.6233578085727042,-1.060369992494056
6.980658570798308,4.331548544655807,-0.6339615084976448,-0.7843475181074164
7.0239740562448665,4.2343979514729755,-0.641804983678719,-0.5209914823360566
7.066318035759596,4.143369317824377,-0.6470148985020795,-0.2691584973562004
7.10775172893784,4.056967293308517,-0.6497064834756415,-0.027991226934988206
7.148321401870925,3.973869737181295,-0.6499863957449914,0.203126259101192
7.188060099242738,3.892905516187737,-0.6479551331539795,0.42461045918703044
7.226989154404615,3.8130368163832795,-0.6437090285621091,0.6367166214010676
7.2651195225684475,3.733345529492067,-0.6373418623480984,0.8395730034267608
7.302452977863368,3.6530230142231144,-0.6289461323138308,1.033211446456884
7.338983208005599,3.571362480584541,-0.618614017849262,1.2175945789401212
7.374696832811445,3.487753286857007,-0.6064380720598608,1.3926399325212537
7.409574365680015,3.401676520587928,-0.5925116727346482,1.558241186022734
7.443591130885895,3.3127013314112315,-0.5769292608744209,1.7142866907405447
7.476718144200007,3.2204815826947124,-0.5597863939670155,1.860675386183072
7.508922960026954,3.124752485022883,-0.5411796401051847,1.997330192860896
7.540170484877183,3.0253269640671454,-0.5212063381765758,2.124208965496706
7.570423754517854,2.9220915964450507,-0.49996424852160876,2.241313101331543
7.599644670482305,2.8150020184032156,-0.4775511175082933,2.3486939186988405
7.627794690666337,2.704077772809712,-0.4540641783213049,2.446456945753921
7.654835468394435,2.589396609770349,-0.4295996088637657,2.534764284139578
7.680729434492138,2.471088295429716,-0.4042519660223699,2.6138352345238234
7.705440317446435,2.349328012818979,-0.37811361367713164,2.683945388556918
7.728933597574625,2.22432945887818,-0.35127415979156246,2.745424403993708
7.751176892163406,2.096337754059199,-0.3238199157516254,2.7986526863439094
7.772140269703998,1.9656222862735737,-0.2958333888881863,2.844057201723487
7.791796492566734,1.8324696103901825,-0.2673928168709514,2.882106642091766
7.810121188670635,1.6971765189121588,-0.23857175045003373,2.9133061563567977
7.827092953859757,1.560043389670307,-0.20943868888646575,2.9381918494954458
7.84269338775646,1.4213679030901163,-0.1800567703915113,2.9573252374139614
7.856907066787362,1.2814392055175887,-0.1504835180173717,2.9712878283039363
7.8697214588425375,1.1405325769249877,-0.12077063973433233,2.9806759822796
7.881126784611787,0.9989046417826456,-0.09096387991153633,2.986096180715707
7.891115831029613,0.8567891417183425,-0.06110291810437926,2.9881608156026624
7.899683722446797,0.7143932685309581,-0.031221309948352635,2.987484588111744
7.906827655132107,0.5718945368829105,-0.0013464640672351952,2.9846815851545254
7.912546600500936,0.42943815819347675,0.028500351784310058,2.9803630837368247
7.916840982082871,0.28713486141050837,0.05830398262167831,2.9751361159751335
7.919712330696976,0.14505909284133472,0.08805534378142965,2.9696028132454977
7.921162921625389,0.0032475163393014816,0.11775137191388463,2.9643605363517667
7.921195396788782,-0.13830227296116573,0.1473949772774023,2.9600027898501806
7.919812374059171,-0.2796329133569495,0.1769950051759041,2.957120912437805
7.917016044925601,-0.420828413806373,0.20656621430028216,2.95630653086664
7.912807760787538,-0.5620153562896749,0.23612927960894856,2.9581547608778482
7.907187607224641,-0.7033642500634155,0.26571082721772704,2.963268133050016
7.900153964724007,-0.8450911126959719,0.2953435085482272,2.9722612109110242
7.891703053597047,-0.9874593319452596,0.3250661206573375,2.985765848017506
7.881828460277595,-1.1307818277677537,0.35492377913751255,3.0044369919007363
7.870520641999918,-1.275423476725106,0.38496814905651994,3.0289588731542416
7.857766407232667,-1.4218036682269006,0.41525773778806235,3.060051297522846
7.843548370550398,-1.5703987115645341,0.44585825076329083,3.098475556066597
7.827844383434752,-1.721743569671202,0.4768430063239568,3.1450391334491976
7.81062694773804,-1.8764320048776328,0.5082933976584488,3.2005978488095743
7.791862627689264,-2.0351135977581034,0.5402993761465446,3.266053185839139
7.771511491711683,-2.1984851115675177,0.5729599080049359,3.342341173365475
7.749526640596008,-2.3672721293568104,0.6063833197385906,3.430406992829096
7.725853919302439,-2.542194524061032,0.6406873896668815,3.531156140329524
7.700431974061829,-2.723905816858346,0.6759989510701768,3.645368009822263
7.673192915893246,-2.9128915822650665,0.7124526311683994,3.7735508298296305
7.644064000070595,-3.1093059414355193,0.7501881394666957,3.9157082155977134
7.61297094065624,-3.3127193608848406,0.7893452216226728,4.07097931742829
7.579843747047391,-3.5217502640017533,0.8300550147969558,4.237113443603717
7.5446262444073735,-3.733568912414652,0.8724261492329929,4.409762391040144
7.507290555283227,-3.9433165365249385,0.9165237731433943,4.581650465162219
7.467857389917977,-4.143604782972369,0.9623402777950165,4.741854350045871
7.426421342088254,-4.324456604929748,1.0097588212954753,4.87570203884738
7.383176776038956,-4.47422409349391,1.058515841683949,4.966047838074621
7.338434535104017,-4.581887688891532,1.1081763200646952,4.9964996992181145
7.2926156582151025,-4.640374788271039,1.1581413170568764,4.95609987809708
7.246211910332392,-4.649368715860847,1.2077023158378473,4.843316577920694
7.199718223173784,-4.615732237174255,1.2561354816170542,4.666706802089281
7.1535609008020415,-4.551101174173731,1.302802549637947,4.441609127250022
7.108049889060304,-4.4682234408614905,1.3472186409104472,4.185057254074557
7.063367654651689,-4.378085474815581,1.3890692134511928,3.911768811936142
7.019586799903533,-4.2886865562303145,1.4281869015705542,3.6324197873409156
6.97669993434123,-4.205106138214411,1.4645110994439634,3.3537183627210405
6.934648872959086,-4.1301502840093915,1.4980482830711739,3.0792883278775967
6.893347370118992,-4.065072784918178,1.52884116634995,2.8106615237925823
6.85269664226981,-4.010156887243753,1.5569477815878758,2.5480815632165235
6.812595073397373,-3.9651195480497177,1.5824285972200411,2.2910652948986487
6.772943877916876,-3.9293688015772177,1.6053392501690276,2.038763767861416
6.733650189901104,-3.9021577137732284,1.6257268878476416,1.7901823902534904
6.694628612763371,-3.8826713413913403,1.6436287117501764,1.5443102451002795
6.655801899349458,-3.8700723995422543,1.6590718142011793,1.3001937201985374
6.617101175354036,-3.863522375557588,1.6720737514031647,1.0569772030420752
6.57846595159846,-3.862188536691572,1.6826435234335855,0.8139248673192898
6.539844066231544,-3.865243210755321,1.6907827721067783,0.570431908463444
6.501191634123991,-3.8718592002481547,1.6964870911914127,0.32603004697689764
6.462473042121509,-3.881203671071731,1.6997473916611816,0.08038995502790489
6.423661005410792,-3.8924319542025634,1.7005512912114606,-0.16667804577561524
6.384736685868766,-3.9046821659233553,1.6988845107537045,-0.4152244510807357
6.3456898642095325,-3.917071235469448,1.6947322662428972,-0.6651621028821544
6.306519151854838,-3.928692733951412,1.6880806452140757,-0.9162689408518715
6.267232224515324,-3.9386167680924857,1.6789179558055571,-1.1681922683130215
6.227846056834399,-3.9458921027292186,1.667236033122427,-1.4204548702465636
6.1883871358071065,-3.949550587816858,1.6530314844199614,-1.6724633034340357
6.148891629928938,-3.9486138789407295,1.636306851385621,-1.923518616007805
6.109405491139531,-3.9421023513531246,1.6170716652255428,-2.1728296580165285
6.069984467625999,-3.9290460166523395,1.5953433686453775,-2.419529027254648
6.030694007459475,-3.908497161101123,1.571148078372831,-2.662691566063973
5.991609035848464,-3.8795443390007636,1.5445211627121913,-2.9013551949635277
5.952813592458456,-3.8413272772350404,1.515507610762556,-3.1345437464720423
5.914400319686106,-3.79305218107432,1.4841621732978356,-3.3612913541437015
5.876469797875362,-3.734006878542111,1.4505492597563987,-3.5806678621032675
5.839129729089941,-3.663575202180496,1.414742581135366,-3.79180465143638
5.802493977068136,-3.581249983689952,1.3768245346210022,-3.993920232249467
5.766681477231236,-3.4866440299127617,1.3368853322985075,-4.186344924169953
5.731815036932108,-3.3794984603620097,1.2950218830568079,-4.368543944439101
5.698020052328488,-3.2596878207244235,1.2513364436124168,-4.540138244322472
5.665423174121243,-3.1272214481551157,1.2059350611691921,-4.700922486243766
5.634150959639692,-2.9822406571014386,1.1589258363067545,-4.850879642241091
5.604328553068678,-2.8250114410932676,1.1104170398843436,-4.99019182530667
5.576078438657745,-2.6559125445775407,1.060515121631277,-5.119247142733662
5.549519313211969,-2.4754189419679435,1.0093226502039403,-5.238642583852494
5.52476512379229,-2.284080954956332,0.9569362243654154,-5.349183216217262
5.501924314242727,-2.082499424847937,0.9034443922032428,-5.451878250393098
5.4810993199942475,-1.8712975124717284,0.8489256096993119,-5.547934824433259
5.46238634486953,-1.651089803208337,0.7934462614549793,-5.638750632246595
5.445875446837446,-1.4224494333334632,0.7370587551325134,-5.725906752473766
5.4316509525041115,-1.1858739206090498,0.6797996876077758,-5.811162205213314
5.419792213298021,-0.9417502858599256,0.6216880655556426,-5.896451853293379
5.410374710439422,-0.6903199220702452,0.5627235470227088,-5.983889249005027
5.4034715112187195,-0.4316435604707255,0.5028846545326585,-6.075775864810383
5.399155075614012,-0.16556670049824435,0.44212689588455467,-6.174617750764576
5.39749940860903,0.1083138095544871,0.3803807183769089,-6.283149847936856
5.398582546704575,0.3906804115606992,0.31754921989754037,-6.404366575788622
5.402489350820182,0.6825189093402341,0.25350555413965414,-6.5415541407138225
5.409314539913584,0.9851277052363763,0.1880900127325159,-6.698313790916034
5.419165816965948,1.3000950466263081,0.12110687482335557,-6.878553104359643
5.432166767432211,1.6292099934117987,0.05232134377975914,-7.086398983857461
5.448458867366329,1.9742406691272882,-0.018542646058815476,-7.325941806993745
5.468201274057601,2.3364555127581275,-0.09180206412875293,-7.600639880661242
5.491565829185182,2.715667443250247,-0.16780846293536533,-7.9120789088106465
5.518722503617685,3.108450773654324,-0.2469292520234718,-8.257595474695625
5.549807011354228,3.5051032313371886,-0.32950520677042805,-8.626153161841613
5.5848580436676,3.8852518079762444,-0.41576673838884415,-8.99228773823212
5.623710561747362,4.213602817305049,-0.5056896157711653,-9.310124230305966
5.665846589920413,4.4410915258281465,-0.5987908580742249,-9.51465214093873
5.710257505178695,4.51974237502505,-0.6939373794836122,-9.541710377634155
5.755454928928946,4.4306883416943394,-0.7893544832599537,-9.365970180860195
5.799761812345889,4.201574877492369,-0.8830141850685557,-9.02430757089881
5.841777561120813,3.8899871142205025,-0.9732572607775438,-8.592867957292253
5.880677432263019,3.5505899212170515,-1.0591859403504664,-8.142594027153525
5.916183331475189,3.2179432143675686,-1.1406118806220016,-7.716715373535787
5.9483627636188645,2.908023285391576,-1.2177790343573593,-7.333575913863054
5.977442996472781,2.625620621795795,-1.29111479349599,-6.996992996977645
6.003699202690739,2.370203100038647,-1.3610847234657664,-6.704210302283825
6.027401233691125,2.1391840584699455,-1.4281268264886047,-6.45020796927596
6.0487930742758245,1.9294626512414335,-1.4926289061813642,-6.229656848389588
6.068087700788239,1.7380653518714078,-1.55492547466526,-6.037677789932047
6.085468354306953,1.5623698909691848,-1.6153022525645806,-5.870063337802487
6.101092053216645,1.400149588188491,-1.6740028859426055,-5.723279500659303
6.11509354909853,1.2495473966914121,-1.7312356809491984,-5.594389554173353
6.127589023065444,1.1090275326697916,-1.787179576490932,-5.4809596153882945
6.138679298392142,0.9773245329076057,-1.841989172644815,-5.380969133531913
6.148452543721218,0.8533971615247797,-1.8957988639801342,-5.292733752470001
6.156986515336466,0.7363892581977288,-1.948726201504834,-5.214841605735503
6.164350407918443,0.6255974629449507,-2.000874617562189,-5.146101749394248
6.170606382547892,0.5204449875346554,-2.0523356350561315,-5.08550278276845
6.175810832423239,0.4204604293150337,-2.103190662883816,-5.032179725480634
6.180015436716389,0.3252606822530397,-2.1535124601386224,-4.985387469057722
6.18326804353892,0.23453713576189744,-2.2033663348291994,-4.944479419004039
6.185613414896539,0.14804449886336363,-2.2528111290192396,-4.908890218862254
6.187093859885173,0.06559172027354988,-2.3019000312078624,-4.87812167998912
6.187749777087908,-0.012965413349196958,-2.3506812480077537,-4.85173122803501
6.187620122954416,-0.08773032875214073,-2.3991985602881036,-4.82932232508853
6.186742819666895,-0.15877062412331183,-2.447491783538989,-4.810536442653304
6.185155113425662,-0.22612213671557277,-2.495597147965522,-4.79504625235298
6.182893892058506,-0.28979228262752815,-2.543547610489052,-4.782549774865255
6.179995969232231,-0.34976280269397386,-2.5913731082377045,-4.7727652883448695
6.176498341205291,-0.4059920298744204,-2.639100761121153,-4.76542684976796
6.172438420906547,-0.458416783688525,-2.686755029618833,-4.760280329532162
6.167854253069661,-0.506953994955381,-2.7343578329141547,-4.75707990368142
6.162784713120107,-0.551502168096499,-2.781928631950969,-4.7555849907371615
6.157269691439142,-0.5919427969862374,-2.8294844818583407,-4.755557661684319
6.151350263469279,-0.6281418616458513,-2.877040058475184,-4.756760591334469
6.145068844852821,-0.6599515440950036,-2.9246076643885286,-4.758955654860468
6.138469329411871,-0.6872123086783254,-2.9721972209371335,-4.761903301156176
6.131597206325088,-0.7097554907189172,-3.019816253948695,-4.765362849970656
6.124499651417898,-0.7274065225910343,-3.0674698824484015,-4.769093856892702
6.117225586191988,-0.7399888937525273,-3.1151608210173283,-4.772858663746122
6.109825697254463,-0.7473288877839355,-3.1628894076547893,-4.776426197766675
6.102352408376624,-0.7492610644820904,-3.210653669632456,-4.779577000069659
6.094859797731803,-0.7456343617827412,-3.2584494396331527,-4.782109355997647
6.087403454113976,-0.73631858856392,-3.3062705331931292,-4.783846276275127
6.080040268228337,-0.7212109775836966,-3.3541089959558805,-4.784642953547505
6.0728281584524995,-0.7002423836180874,-3.4019554254913555,-4.784394213191974
6.065825734616318,-0.6733826617704959,-3.4497993676232754,-4.783041410828109
6.059091907998614,-0.6406447587511366,-3.4976297817315567,-4.7805782192590724
6.0526854604111024,-0.6020871032310626,-3.5454355639241473,-4.777054804640173
6.046664589378792,-0.5578139887225315,-3.593206111970549,-4.772580014561187
6.041086449491567,-0.5079737925379031,-3.640931912116161,-4.767321376470851
6.036006711566188,-0.45275504762773505,-3.6886051258808696,-4.761502910319948
6.03147916108991,-0.39238055626410373,-3.736220154984069,-4.755400965652349
6.027555355527269,-0.3270998816613493,-3.7837741646405925,-4.749338472166404
6.024284356710656,-0.2571806567796161,-3.8312675493622566,-4.7436781216479345
6.02171255014286,-0.18289919814039196,-3.878704330578736,-4.738815065887173
6.019883558161456,-0.10453090536775998,-3.9260924812376077,-4.735169718890137
6.0188382491077785,-0.02234087160993381,-3.973444178426509,-4.733181201575952
6.018614840391679,0.06342496104432631,-4.020775990442268,-4.7333018791923225
6.0192490900021225,0.1525478782288837,-4.068109009234192,-4.735993334648894
6.020774568784411,0.24484359584576443,-4.115468942580681,-4.741724012798394
6.023223004742869,0.3401685929034306,-4.1628861827086645,-4.750968675966319
6.026624690671904,0.4384256759692092,-4.210395869468328,-4.764209739781697
6.031008947431595,0.5395689564198543,-4.258037966866144,-4.781940516117006
6.036404636995794,0.6436084847990934,-4.305857372027314,-4.804670378560411
6.042840721843785,0.7506148360349356,-4.353904075812919,-4.832931884763648
6.050346870204134,0.8607239798536823,-4.402233394660555,-4.867289937574592
6.058954110002671,0.9741428081745401,-4.450906294036301,-4.908353141421757
6.068695538084416,1.0911557315195721,-4.499989825450519,-4.956787611095931
6.079607095399612,1.212132805128917,-4.549557701561478,-5.013333617121382
6.091728423450901,1.3375399071726943,-4.5996910377326925,-5.078825606465726
6.1051038225226275,1.4679515688477554,-4.65047929379735,-5.154216320306121
6.119783338211105,1.6040671477726893,-4.702021457000411,-5.240605939850193
6.135824009688832,1.7467311318585357,-4.754427516398913,-5.339277415685326
6.153291321007417,1.89695843254764,-4.807820290555766,-5.451739342998313
6.172260905332894,2.0559655079962784,-4.862337683985749,-5.579777853363744
6.192820560412857,2.2252079039084474,-4.918135462519387,-5.725518819637063
6.215072639451941,2.406424004998434,-4.975390650715758,-5.891500812097587
6.239136879501926,2.601682808862536,-5.034305658836733,-6.080756842800409
6.265153707590551,2.8134290230873864,-5.095113227264737,-6.296897176895946
