th1 (rad),w1 (rad/s),th2 (rad),w2 (rad/s),a1 (rad/s^2),a2 (rad/s^2)
6.076925908050901,2.667792239354666,2.832196978047996,2.9517799606338473,1.2014638801786022,-2.5215866562061193
6.103603830444448,2.6798068781564517,2.8617147776543344,2.9265640940717863,0.9400856882656885,-2.490831892542072
6.130401899226013,2.6892077350391084,2.8909804185950523,2.9016557751463656,0.6770976679610632,-2.462865851593439
6.157293976576404,2.695978711718719,2.919996976346516,2.877027116630431,0.4127322449919046,-2.437611415649908
6.184253763693591,2.700106034168638,2.94876724751282,2.852651002473932,0.1473000498758842,-2.4148838591819866
6.211254824035278,2.7015790346673967,2.9772937575375593,2.828502163882112,-0.11881843432767396,-2.394402203955456
6.2382706143819515,2.70039085032412,3.0055787791763806,2.804558141842558,-0.3851817580825408,-2.375801323713806
6.265274522885193,2.6965390327432948,3.033624360594806,2.78080012860542,-0.6512967734789019,-2.35864459609973
6.292239913212626,2.6900260650085057,3.0614323618808603,2.7572136826444225,-0.9166281425233308,-2.3424369071021047
6.319140173862711,2.6808597835832724,3.0890044987073044,2.7337893135734013,-1.180607951424262,-2.3266378183639067
6.345948771698543,2.6690537040690296,3.1163423918430384,2.710522935389762,-1.442645302997174,-2.3106747116817243
6.372639308739234,2.654627251039058,3.143447621196936,2.687416188272945,-1.702135765123203,-2.293955729303019
6.3991855812496246,2.637605893387826,3.1703217830796655,2.664476630979915,-1.9584705592146316,-2.2758823342800514
6.425561640183503,2.6180211877956796,3.196966549389465,2.6417178076371144,-2.2110453794389233,-2.255861323001826
6.45174185206146,2.5959107340012904,3.223383727465836,2.619159194407096,-2.459268741436149,-2.2333161326495072
6.4777009594014725,2.5713180465869288,3.249575319409907,2.596826033080601,-2.7025697686762835,-2.2076972999816618
6.503414139867342,2.544292348900166,3.275543579740713,2.5747490600807845,-2.940405335528847,-2.178491944566661
6.528857063356344,2.5148882955448775,3.301291070341521,2.552964140635118,-3.17226649849623,-2.145232169112265
6.554005946311793,2.483165630559915,3.3268207117478723,2.5315118189439954,-3.3976841607073527,-2.1075022914681014
6.578837602617392,2.4491887889528416,3.3521358299373123,2.5104367960293144,-3.616233929384092,-2.064944846596643
6.60332949050692,2.4130264496590006,3.3772401978976054,2.489787347563348,-3.8275401412041448,-2.0172653216063767
6.62745975500351,2.374751048246959,3.4021380713732388,2.469614694347284,-4.031279045857365,-1.9642356120220446
6.65120726548598,2.3344382577883853,3.4268342183167118,2.4499723382270635,-4.227181153167241,-1.9056962120098182
6.674551648063864,2.292166446256713,3.4513339416989823,2.4309153761069653,-4.415032763459285,-1.8415571744712693
6.697473312526431,2.24801611862212,3.475643095460052,2.4124998043622528,-4.594676713958802,-1.7717978980155094
6.7199534737126525,2.202069351482532,3.4997680935036746,2.394781825382098,-4.7660123854898915,-1.6964658161504798
6.741974167227478,2.154409227627633,3.5237159117574954,2.377817167220593,-4.9289950232821775,-1.6156740790526007
6.763518259503754,2.1051192773948113,3.5474940834297013,2.3616604264300673,-5.08363443300503,-1.529598329568907
6.784569452277702,2.054282933064761,3.5711106876940018,2.3463644431343784,-5.2299931180569565,-1.438472682412723
6.805112281608349,2.0019830018841915,3.5945743321253456,2.331979716310251,-5.368183926548965,-1.3425850187240658
6.825132111627191,1.948301162618702,3.617894129288448,2.3185538661230103,-5.498367276336685,-1.2422717073211555
6.844615123253378,1.893317489855335,3.641079667949678,2.306131149049799,-5.620748023970261,-1.137911859255178
6.863548298151931,1.8371100096156325,3.6641409794401762,2.2947520304572473,-5.735572038728489,-1.0299212140189167
6.881919398248088,1.7797542892283476,3.687088499744749,2.284452818317058,-5.84312253625514,-0.9187457443954185
6.899716941140372,1.7213230638657961,3.7099330279279195,2.275265360873104,-5.943716218072874,-0.8048550530205081
6.91693017177903,1.6618859016850673,3.7326856815366507,2.267216810342899,-6.037699253847363,-0.6887356179348337
6.933549030795881,1.6015089091465937,3.7553578496400797,2.2603294541635504,-6.125443133220424,-0.5708839274727249
6.949564119887347,1.5402544778143894,3.7779611441817154,2.254620614888823,-6.207340403915517,-0.4517995276334884
6.964966664665491,1.4781810737752341,3.8005073503306037,2.250102619612488,-6.283800303311633,-0.33197798855968724
6.979748475403244,1.4153430707421177,3.8230083765267286,2.246782839726891,-6.355244282533487,-0.21190378196576953
6.993901906110665,1.3517906279167828,3.8454762049239974,2.2446638019072336,-6.4221014161523735,-0.09204304948537383
7.007419812389832,1.287569613755259,3.8679228429430697,2.24374337141238,-6.484803687742525,0.027163765794570895
7.020295508527385,1.222721576877834,3.8903602766571934,2.2440150090703255,-6.543781142762957,0.1453094545150891
7.032522724296163,1.1572837654502044,3.912800426747897,2.2454681036154764,-6.59945690652733,0.2620277680874483
7.044095561950665,1.0912891963849312,3.9352551077840516,2.248088381296351,-6.65224207734388,0.37700134969220767
7.055008453914515,1.0247667756114924,3.957735991597015,2.251858394793273,-6.7025305240853115,0.48996985877589927
7.06525612167063,0.9577414703706393,3.980254575544948,2.2567580933810323,-6.750693644060429,0.6007382456406704
7.074833536374336,0.890234533930035,4.002822156478758,2.262765475837439,-6.797075171253249,0.709185089067085
7.083735881713636,0.8222637822175025,4.025449811237133,2.26985732672811,-6.841986166284211,0.8152708560787653
7.091958519535811,0.7538439205546604,4.0481483845044135,2.2780100352888977,-6.885700366478666,0.919045880670223
7.099496958741358,0.6849869168898738,4.070928484857302,2.2872004940956,-6.928450124750341,1.0206577908172119
7.106346827910256,0.6157024156423704,4.093800489798258,2.297407072003772,-6.970423215895783,1.1203580454122282
7.11250385206668,0.5459981834834126,4.116774560518295,2.308610652457894,-7.0117608332647245,1.2185071819081001
7.117963833901514,0.4758805751507653,4.139860667042874,2.3207957242769752,-7.052557131276544,1.3155783302582866
7.122722639653022,0.4053550038379999,4.163068624285644,2.3339515075795583,-7.092860682631939,1.412158529501013
7.126776189691402,0.3344263970116805,4.186408139361439,2.3480730928745683,-7.132678205794758,1.5089474009151989
7.130120453661519,0.2630996149537329,4.209888870290184,2.3631625668837204,-7.171980871579833,1.6067527962177963
7.132751449811056,0.19137980623793457,4.233520495959022,2.3792300948458984,-7.210713412650458,1.706483158448338
7.134665247873435,0.11927267211142999,4.257312796907481,2.396294926430382,-7.248806134989825,1.8091365102182355
7.135857974594549,0.04678461076153173,4.281275746171785,2.4143862915325642,-7.286189769330162,1.9157862157244385
7.136325820702164,-0.02607728693176989,4.30541960908711,2.433544153689809,-7.3228129122519405,2.027563938311498
7.1360650478328465,-0.09930541605428929,4.329755050624009,2.453819793072924,-7.358661606433921,2.145640515000133
7.1350719936723035,-0.17289203211862852,4.354293248554738,2.475276198222925,-7.393780417949372,2.271205766325879
7.133343073351117,-0.24682983629812225,4.3790460105369675,2.497988255886184,-7.428294209678656,2.4054485220171418
7.130874774988136,-0.3211127783949088,4.404025893095829,2.5220427411063557,-7.462429708504178,2.549538337409056
7.127663647204187,-0.39573707547995063,4.429246320506893,2.5475381244804463,-7.496535941481673,2.7046104730479725
7.123706276449388,-0.4707024348947674,4.454721701751698,2.574584229210926,-7.531102687194842,2.871755691192077
7.118999252100441,-0.5460134617667158,4.480467544043807,2.603301786122847,-7.566776257459651,3.0520162824509507
7.113539117482773,-0.6216812243413123,4.506500561905035,2.6338219489473564,-7.604372184140259,3.246389485028529
7.10732230523936,-0.697724946182715,4.532838781394509,2.6662858437976418,-7.6448847173141115,3.4558391261816124
7.100345055777533,-0.7741737933558561,4.559501639832486,2.7008442350594577,-7.689493416652264,3.681315942779041
7.092603317843974,-0.8510687275223787,4.58651008218308,2.737657394487248,-7.7395675052621415,3.923786676026773
7.08409263056875,-0.9284644025750002,4.613886656127953,2.7768952612475157,-7.7966690226399376,4.184271737035964
7.074807986543,-1.0064310928013995,4.641655608740428,2.8187379786178752,-7.8625561351105695,4.463891052341574
7.064743675614986,-1.0850566541525053,4.669842988526606,2.863376889141291,-7.939188222944961,4.763917658471701
7.053893109073461,-1.164448536381955,4.698476757418019,2.911016065726008,-8.02873456109849,5.085838745303825
7.042248623709641,-1.24473588199294,4.727586918075279,2.961874453179046,-8.133588556810937,5.4314241586045116
7.029801264889712,-1.3260717675610494,4.75720566260707,3.0161886947650913,-8.256389626224,5.802802861322063
7.016540547214102,-1.4086356638232893,4.7873675495547205,3.0742167233783118,-8.400054917633192,6.202548513392878
7.002454190575869,-1.4926362129996211,4.818109716788504,3.1362422085122406,-8.567823261463392,6.63377615349215
6.987527828445873,-1.578314445614255,4.849472138873626,3.202579970047162,-8.76331399016287,7.10025295143195
6.97174468398973,-1.6659475855158838,4.881497938574098,3.2735824995614817,-8.990603668520386,7.606527154768252
6.955085208134571,-1.7558536222010876,4.914233763569713,3.349647771109164,-9.254324346526227,8.158080696711803
6.93752667191256,-1.8483968656663499,4.947730241280804,3.4312285780762823,-9.559787724440199,8.761512491058557
6.919042703255897,-1.9439947429107518,4.982042527061567,3.5188437029868678,-9.91314061662106,9.424761234760545
6.899602755826789,-2.0431261490769623,5.017230964091436,3.613091315334473,-10.32155829162769,10.157378557153107
6.87917149433602,-2.1463417319932394,5.053361877244781,3.714665100906004,-10.793483543900216,10.970865489667652
6.857708077016087,-2.2542765674322416,5.0905085282538405,3.8243737558026805,-11.338920438523536,11.879087156922179
6.835165311341765,-2.367665771817477,5.128752265811867,3.9431646273719023,-11.969791933798216,12.898781519782075
6.81148865362359,-2.4873636911554593,5.168183912085587,4.072152442569723,-12.70036867511473,14.050176176524536
6.786615016712035,-2.6143673779066066,5.208905436511284,4.212654204334968,-13.547769355060652,15.357718909644788
6.760471342932969,-2.749845071457213,5.251031978554633,4.366231393431416,-14.532515374168183,16.85090506506118
6.732972892218397,-2.895170225198895,5.2946942924889475,4.534740444082028,-15.679082330053987,18.56513191844405
6.704021189966408,-3.0519610484994346,5.3400416969297675,4.720391763266469,-17.01630410926283,20.542393994632825
6.673501579481414,-3.222124089592063,5.387245614562432,4.925815703212797,-18.577303222837923,22.831386477870677
6.641280338585493,-3.4078971218204424,5.43650377159456,5.154129567991504,-20.398244505094272,25.486069086431243
6.6072013673672885,-3.611879566871385,5.4880450672744745,5.408990258855816,-22.514439918931615,28.560683624572263
6.571082571698574,-3.837023966060701,5.5421349698630324,5.694597095101539,-24.950783621217795,32.09707425055681
6.532712332037967,-4.086531802272879,5.599080940814048,6.015567837607107,-27.70046774445918,36.09594438841668
6.491847014015238,-4.363536479717471,5.659236619190119,6.376527281491274,-30.680366274092012,40.455901878125395
6.448211649218063,-4.670340142458391,5.723001892005032,6.781086300272528,-33.64271442331809,44.851805310482
6.401508247793479,-5.006767286691572,5.790812755007757,7.229604353377348,-36.014737790303556,48.51245489388378
6.351440574926563,-5.366914664594607,5.86310879854153,7.714728902316185,-36.65493573617633,49.88070971118346
6.297771428280617,-5.733464021956371,5.940256087564692,8.21353599942802,-33.63787617057645,46.30984559980074
6.240436788061054,-6.069842783662135,6.022391447558972,8.676634455426028,-24.547538678433167,34.46314975191405
6.179738360224432,-6.315318170446466,6.1091577921132325,9.021265952945168,-8.173006105090787,12.662176695071366
6.116585178519967,-6.397048231497374,6.199370451642684,9.14788771989588,12.63842546003928,-15.158607238493715
6.052614696204993,-6.270663976896981,6.290849328841643,8.996301647510943,30.945394980185355,-39.425800353127705
5.989908056436024,-5.961210027095127,6.380812345316753,8.602043643979666,41.2704050755092,-52.652494372839904
5.9302959561650725,-5.548505976340035,6.466832781756549,8.075518700251267,43.742979202944944,-55.12264761874417
5.874810896401672,-5.111076184310585,6.547587968759062,7.524292224063826,41.63158150417048,-51.39975519384175
5.823700134558567,-4.694760369268881,6.6228308909997,7.010294672125409,37.79365451685268,-45.41727817736891
5.776752530865878,-4.316823824100354,6.692933837720954,6.5561218903517195,33.74598648165717,-39.23327807200555
5.733584292624874,-3.979363959283782,6.758495056624471,6.163789109631664,30.086610581805303,-33.63879088913595
5.693790653032036,-3.678497853465729,6.820132947720788,5.827401200740304,26.974541623144756,-28.827677757411116
5.657005674497379,-3.4087524372342815,6.878406959728191,5.539124423166193,24.396065038309814,-24.763813534798707
5.622918150125036,-3.1647917868511835,6.933798203959853,5.291486287818206,22.282700558968177,-21.341740981677717
5.591270232256525,-2.9419647812615017,6.986713066838035,5.078068878001428,20.557429201575733,-18.448536894446484
5.56185058444391,-2.7363904892457445,7.037493755618049,4.893583509056963,19.15054646421768,-15.984338682251408
5.534486679551453,-2.5448850246035675,7.086429590708618,4.733740122234449,18.00359069029161,-13.866901596344832
5.509037829305417,-2.3648491177006514,7.133766991930963,4.595071106271001,17.068971113862276,-12.030556882333713
5.485389338128411,-2.1941594065620285,7.179717702993673,4.474765537447664,16.3083056493485,-10.423603853282362
5.46344774406279,-2.0310763500685436,7.22446535836815,4.37052949891484,15.69059288542807,-9.005605112539168
5.443136980562105,-1.874170421214263,7.2681706533572985,4.280473447789449,15.190592902229252,-7.74504778081749
5.424395276349963,-1.7222644921919703,7.310975387835193,4.203022969981274,14.787504265641822,-6.617455429466224
5.407172631428043,-1.5743894495355522,7.353005617535006,4.136848415686612,14.463922907302484,-5.603906262844576
5.391428736932688,-1.4297502204625272,7.394374101691872,4.080809353058166,14.20503963048978,-4.68987974465935
5.377131234728062,-1.2876998241576294,7.4351821952224535,4.033910555611572,13.998030917251308,-3.8643550506427045
5.364254236486486,-1.1477195149851163,7.475521300778569,3.9952670051051453,13.831604255119021,-3.119096467916747
5.352777041336635,-1.009403472433926,7.51547397082962,3.964076040425978,13.695667282826664,-2.4480742409783494
5.342683006612296,-0.8724467996056594,7.55511473123388,3.9395952980161946,13.581097150418865,-1.8469814858073144
5.333958538616239,-0.7366358281014708,7.594510684214042,3.9211254831581215,13.47959187797747,-1.3128180571578756
5.326592180335224,-0.6018399093216961,7.633721939045624,3.907997302586543,13.383589141309962,-0.8435208455226016
5.320573781242007,-0.46800401790859647,7.672801912071489,3.899562094131317,13.28624002146323,-0.4376272602822395
5.31589374106292,-0.33514161769396417,7.711797533012803,3.8951858215284947,13.18142612713772,-0.09396492022075957
5.312542324885981,-0.20332735642258695,7.750749391228087,3.894246172326287,13.063808479511586,0.18863403126884642
5.310509051321755,-0.0726892716274711,7.78969185295135,3.8961325126389754,12.928896018979069,0.4115910582754448
5.309782158605481,0.05659968856231959,7.828653178077739,3.90024842322173,12.77312096415864,0.5768054144657284
5.310348155491104,0.184330898203906,7.867655662309956,3.9060164773663875,12.593907944845578,0.6868357909469494
5.312191464473143,0.31026997765236175,7.90671582708362,3.912884835275857,12.389724228458842,0.7450301894542287
5.315294164249667,0.4341672199369502,7.945844675436379,3.920335137170399,12.160099758087235,0.7555958195530915
5.319635836449036,0.5557682175178226,7.985048026808083,3.92789109536593,11.905608258304996,0.7236035452150328
5.325193518624214,0.6748243001008726,8.024326937761742,3.9351271308180804,11.627804275576134,0.6549255764071208
5.331941761625223,0.7911023428566339,8.063678209069923,3.941676386582152,11.329115412300133,0.5561102186746946
5.33985278505379,0.9043934969796352,8.103094972935745,3.9472374887688986,11.012693700430919,0.4342028541059314
5.3488967200235855,1.0145204339839444,8.142567347823434,3.9515795173099577,10.682234436681394,0.29652712530264497
5.359041924363425,1.1213427783507584,8.182083142996534,3.954544788562984,10.341774257037077,0.15044377081081667
5.370255352146933,1.2247605209211292,8.221628590882164,3.9560492262710922,9.995482275248333,0.0031061554447935863
5.382502957356144,1.3247153436736125,8.261189083144874,3.9560802878255403,9.64745848459213,-0.13876899266604975
5.39575011079288,1.4211899285195337,8.30074988602313,3.95469259789888,9.301552339387362,-0.2690996660034987
5.409962010078075,1.5142054519134074,8.34029681200212,3.952001601238845,8.961211775144069,-0.38259361064475156
5.4251040645972095,1.603817569664848,8.379816828014508,3.9481756651323976,8.629369373980902,-0.47485342872317693
5.441142240293858,1.6901112634046571,8.419298584665832,3.9434271308451656,8.308368504837247,-0.5424300107498956
5.458043352927905,1.7731949484530296,8.458732855974283,3.9380028307376667,7.999928610488419,-0.582827172263316
5.475775302412435,1.8531942345579138,8.49811288428166,3.9321745590150337,7.705145801342109,-0.59446396525198
5.494307244758014,1.930245692571335,8.537434629871811,3.926229919362514,7.424522803731488,-0.5766034563136537
5.513609701683727,2.00449092060865,8.576696929065436,3.920463884799377,7.15802117207033,-0.5292577869569516
5.533654610889814,2.076071132329353,8.61590156791343,3.9151713069298077,6.905128431892312,-0.45307921851842176
5.554415322213107,2.145122416648276,8.655053280982727,3.9106405147446237,6.664933294090241,-0.3492458912778284
5.57586654637959,2.2117717495891784,8.694159686130174,3.907148055831845,6.436203041681331,-0.2193495129335428
5.597984263875482,2.2761337800059915,8.733231166688492,3.90495456070251,6.217458411222668,-0.06529043664009551
5.620745601675542,2.3383083641182183,8.772280712295517,3.904301656336109,6.007042576781248,0.1108161617005889
5.644128685316724,2.398378789886031,8.811323728858879,3.9054098179531147,5.803182050590075,0.30672087145589155
5.668112473215584,2.4564106103919316,8.85037782703841,3.908477026667674,5.604038350434664,0.5201065644457196
5.692676579319503,2.5124509938962785,8.889462597305085,3.913678092312131,5.407750106525712,0.7486409927235892
5.717801089258466,2.5665284949615357,8.928599378228206,3.9211645022393666,5.212465884283002,0.9900163031001198
5.743466374208081,2.618653153804366,8.9678110232506,3.931064665270368,5.016368403182636,1.2419767241082493
5.769652905746125,2.668816837836192,9.007121669903304,3.9434844325114504,4.81769106867163,1.5023358875873856
5.796341074124487,2.7169937485229085,9.046556514228419,3.958507791387324,4.614727842553656,1.7689852961193075
5.823511011609716,2.7631410269484453,9.086141592142292,3.976197644348517,4.405837495027945,2.039895391327698
5.8511424218792,2.8071994018987247,9.125903568585777,3.996596598261794,4.189443242423637,2.3131105613558076
5.879214415898187,2.8490938343229613,9.165869534568396,4.019727703875352,3.964028706534215,2.5867392846468458
5.907705354241417,2.8887341213883033,9.20606681160715,4.04559509672182,3.728131056095235,2.8589404687666766
5.9365926954553,2.9260154319492555,9.246522762574367,4.074184501409487,3.4803321243948067,3.127906927013695
5.965852849774792,2.9608187531932035,9.287264607588462,4.105463570679624,3.219248250305369,3.3918468551491863
5.995461037306724,2.9930112356962573,9.328319243295258,4.139382039231116,2.943519570055848,3.6489641338627816
6.025391149663686,3.0224464313968156,9.36971306368757,4.175871680569744,2.6517994972309586,3.8974382936426917
6.055615613977654,3.048964426369125,9.411471780493267,4.214846063506171,2.342745169184197,4.135405038314946
