th1 (rad),w1 (rad/s),th2 (rad),w2 (rad/s),a1 (rad/s^2),a2 (rad/s^2)
5.915612281029614,0.8055370541777763,5.6921967996299205,-0.07800596403243812,1.503278074595711,4.138237822594799
5.9236676515713915,0.8205698349237335,5.691416739989596,-0.03662358580649013,1.3529673719855524,4.30507060533931
5.931873349920629,0.834099508643589,5.691050504131531,0.006427120246902972,1.2034718410534968,4.466898592200726
5.940214345007065,0.8461342270541239,5.691114775334,0.051096106168910235,1.0550160977219478,4.623236782166625
5.948675687277606,0.8566843880313434,5.6916257363956895,0.09732847399057648,0.9077935608041621,4.773644457411335
5.957242531157919,0.865762323639385,5.692599021135595,0.14506491856468984,0.7619693314884379,4.917724093531201
5.965900154394313,0.8733820169542694,5.694049670321242,0.19424215950000184,0.6176839101282787,5.05511917816481
5.974633974563855,0.8795588560555522,5.695992091916242,0.24479335128164995,0.4750576268337143,5.185511071987537
5.983429563124411,0.8843094323238894,5.698440025429059,0.29664846200152534,0.3341956560559575,5.308615055405675
5.99227265744765,0.8876513888844489,5.701406510049074,0.3497346125555821,0.19519348569316602,5.4241757045139325
6.001149171336494,0.8896033237413806,5.70490385617463,0.4039763696007214,0.058142716999444205,5.531961732585296
6.010045204573908,0.8901847509113751,5.708943619870637,0.45929598692657436,-0.07686291866296317,5.631760420400349
6.018947052083021,0.8894161217247454,5.713536579739903,0.5156135911305778,-0.20972142791828774,5.723371742097027
6.027841213300269,0.8873189074455625,5.718692715651208,0.5728473085515481,-0.34031639668714114,5.806602274925119
6.036714402374725,0.8839157434786911,5.724421188736724,0.6309133313007993,-0.4685108800739379,5.881258963214395
6.045553559809512,0.8792306346779517,5.730730322049731,0.6897259209329433,-0.5941414047353111,5.947142790741026
6.054345866156291,0.8732892206305986,5.73762758125906,0.7491973488403535,-0.7170121388075167,6.004042403053164
6.063078758362598,0.8661190992425234,5.745119554747464,0.8092377728708852,-0.8368892792276548,6.051727713566726
6.071739949355023,0.8577502064502468,5.753211932476173,0.8697550500065524,-0.9534957054558238,6.089943525593602
6.080317451419526,0.8482152493956886,5.761909482976239,0.9306544852624884,-1.066505952933858,6.118403208024871
6.088799603913483,0.83755018986635,5.771216027828864,0.9918385173427371,-1.1755415697692781,6.1367824761787775
6.097175105812146,0.8257947741686572,5.781134413002291,1.0532063421045248,-1.2801669367110484,6.144713352271576
6.105433053553832,0.8129931048015467,5.791666476423336,1.1146534756272406,-1.3798856539967381,6.141778412903808
6.113562984601848,0.7991942482615794,5.802813011179608,1.1760712597562786,-1.4741376294666635,6.1275054745238045
6.121554927084464,0.7844528719669127,5.814573723777171,1.2373463145015167,-1.5622970405819674,6.101362922374062
6.129399455804133,0.768829901561093,5.826947186922186,1.2983599437252573,-1.6436713883732554,6.0627559537710916
6.137087754819745,0.7523931876773604,5.839930786359439,1.3589875032629681,-1.717501912985542,6.011024081734845
6.144611686696519,0.735218168547505,5.853520661392069,1.4190977440803165,-1.7829656965644902,5.94544032779118
6.151963868381993,0.7173885115818601,5.867711638832872,1.4785521473582284,-1.8391798366685934,5.8652126193558685
6.159137753497812,0.6989967132151742,5.882497160306454,1.537204273551787,-1.8852081274406034,5.769487991367253
6.166127720629964,0.6801446319407681,5.897869203041972,1.5948991534654595,-1.9200707295894441,5.657360264838379
6.1729291669493715,0.6609439246448737,5.913818194576626,1.6514727561138434,-1.9427573345512263,5.527881924498561
6.179538606195821,0.6415163512993615,5.930332922137764,1.706751575358829,-1.9522443211471818,5.380080927840603
6.1859537697088145,0.6219939080878897,5.9474004378913525,1.760552384637235,-1.9475163503601751,5.212983129420557
6.192173708789693,0.6025187445842879,5.965005961737725,1.8126822159314406,-1.9275927295613176,5.025640875410129
6.198198896235536,0.5832428172886747,5.983132783897039,1.862938624685542,-1.8915586855411908,4.817168091886137
6.204031324408422,0.5643272304332627,6.001762170143895,1.9111103056044034,-1.8386014023255266,4.586781836656475
6.209674596712755,0.5459412164100075,6.020873273199939,1.9569781239709683,-1.7680502972668655,4.333849796667582
6.215134008876856,0.5282607134373388,6.040443054439649,2.0003166219376443,-1.679420530163417,4.057942593071689
6.220416616011229,0.5114665081357046,6.060446220659025,2.0408960478683613,-1.5724581836702516,3.7588890263421173
6.225531281092586,0.4957419262990021,6.080855181137709,2.0784849381317825,-1.447184957759707,3.436831603828036
6.230488700355576,0.48127007672140504,6.101640030519027,2.1128532541700626,-1.303939648043701,3.0922789219636226
6.23530140112279,0.46823068024096803,6.122768563060728,2.143776043389699,-1.1434132107027655,2.7261508346031524
6.2399837079252,0.4567965481339404,6.1442063234946245,2.1710375517357305,-0.9666739539534068,2.3398119581236303
6.244551673406539,0.4471298085944063,6.165916699011982,2.194435671316967,-0.7751794375885189,1.93508907683219
6.249022971492483,0.43937801421852113,6.187861055725151,2.213786562085289,-0.5707720906388568,1.5142685300877814
6.253416751634668,0.4336702933121326,6.2099989213460045,2.2289292473861666,-0.35565641447543495,1.0800707433359154
6.257753454567789,0.4301137291673782,6.232288213819866,2.2397299548195257,-0.13235690441902853,0.6356006847192094
6.262054591859463,0.42879016012318794,6.254685513368061,2.2460859616667177,0.09634259861556786,0.1842750625940551
6.266342493460694,0.4297535861093436,6.2771463729847286,2.247928712292658,0.327475693664315,-0.2702706959952656
6.270640029321788,0.43302834304598675,6.2996256601076555,2.2452260053327056,0.5579822699467563,-0.7242905255710166
6.274970312752248,0.4386081657454543,6.322077920160982,2.2379831000769954,0.7848040326053063,-1.1740440033527442
6.279356394409702,0.4464562060715074,6.344457751161753,2.226242660043468,1.004980532350681,-1.6159129762252795
6.283820956470417,0.4565060113950142,6.366720177762187,2.210083530281215,1.2157394140642828,-2.0465105572935305
6.288386016584367,0.468663405535657,6.388821013064999,2.1896184247082795,1.4145751817719359,-2.462775302213227
6.293072650639723,0.4828091573533764,6.410717197312081,2.164990671686147,1.5993119662808175,-2.862044947747972
6.2979007422132565,0.49880227701618457,6.432367104028943,2.1363702222086673,1.7681473912435155,-3.2421062040587687
6.302888764983418,0.5164837509286198,6.45373080625103,2.1039491601680798,1.919676421328369,-3.6012194165148483
6.308053602492705,0.5356805151419034,6.474770297852711,2.0679369660029314,2.052895794406426,-3.938119125484145
6.313410407644124,0.5562094730859677,6.49544966751274,2.02855577474809,2.1671910805083496,-4.251993383049651
6.318972502374984,0.5778813838910511,6.5157352252602205,1.9860358409175936,2.2623094380645665,-4.542445960852602
6.324751316213894,0.6005044782716968,6.535595583669396,1.9406113813090675,2.3383217004480454,-4.809446241892761
6.330756360996611,0.6238876952761773,6.555001697482487,1.8925169188901398,2.3955775470082314,-5.053271670238127
6.336995237949373,0.6478434707462596,6.573926866671388,1.8419842021877586,2.434657272036223,-5.274447247423301
6.3434736726568355,0.6721900434666218,6.592346708693266,1.7892397297135256,2.4563231713471034,-5.473685860966376
6.350195573091502,0.6967532751800929,6.610239105990401,1.734502871103862,2.461472933345362,-5.651832361297202
6.357163105843303,0.7213680045135465,6.62758413470144,1.6779845474908899,2.451096750151234,-5.809813401021894
6.364376785888439,0.7458789720150589,6.644363980176349,1.619886413480671,2.4262392313400416,-5.948594214167836
6.371835575608589,0.7701413643284594,6.660562844311156,1.5604004713389925,2.3879666576797156,-6.069142805279022
6.379536989251874,0.7940210309052566,6.676166849024546,1.4997090432862024,2.337339679512128,-6.172401467905176
6.3874771995609265,0.8173944277003778,6.691163939457408,1.4379850286071505,2.275391248819408,-6.2592651619611175
6.39565114383793,0.8401483401885719,6.70554378974348,1.3753923769875394,2.203109366616903,-6.330566034876988
6.404052627239816,0.8621794338547409,6.719297713513355,1.3120867166387695,2.1214241114011188,-6.387063248007774
6.412674421578363,0.8833936749687521,6.7324185806797425,1.2482160841586918,2.0311983701453347,-6.429437239605517
6.421508358328051,0.9037056586702055,6.744900741521329,1.1839217117626366,1.9332217011806998,-6.458287591850399
6.430545414914753,0.9230378756820125,6.756739958638955,1.1193388358441325,1.8282068008213146,-6.474133748454787
6.439775793671573,0.9413199436902256,6.767933346997396,1.0545974983595847,1.7167881085040733,-6.477417932156995
6.449188993108475,0.9584878247752664,6.778479321980992,0.9898233190380148,1.59952215754496,-6.468509723591365
6.458773871356228,0.974483046350716,6.7883775551713725,0.9251382218021011,1.4768893524307665,-6.447711874301965
6.468518701819735,0.9892519398750237,6.797628937389393,0.8606611030590815,1.3492969234830687,-6.415267030233853
6.478411221218486,1.0027449091098544,6.806235548419984,0.796508432756743,1.2170828723346008,-6.371365133680574
6.488438670309584,1.0149157378332003,6.814200632747552,0.7327947814199373,1.0805207749626595,-6.3161513490525065
6.498587827687916,1.025720945582827,6.821528580561751,0.6696332679294121,0.9398253520047002,-6.2497344198558915
6.508845037143744,1.0351191991028739,6.828224913241045,0.6071359237308532,0.7951587483099442,-6.17219541058464
6.5191962291347725,1.0430707865859734,6.834296272478354,0.5454139696250069,0.6466374850633914,-6.083596817885415
6.529626937000632,1.0495371614366074,6.839750412174604,0.4845780014461527,0.49434005843379325,-5.983992050624716
6.540122308614998,1.0544805620209452,6.844596192189066,0.42473808093990556,0.338315158721898,-5.8734352787507875
6.550667114235207,1.0578637136081641,6.848843572998465,0.3660037281523977,0.17859047369671327,-5.751991636623998
6.561245751371288,1.0596496183451312,6.852503610279989,0.3084838117861577,0.015182019650821655,-5.6197477385481065
6.57184224755474,1.0598014385416394,6.85558844839785,0.2522863344006766,-0.1518960855919106,-5.476822423733171
6.582440261940156,1.0582824776857203,6.858111311741857,0.1975181101633449,-0.32262153076169653,-5.323377596627089
6.593023086717013,1.0550562623781032,6.86008649284349,0.144284334197074,-0.49695356687427805,-5.1596289690600035
6.6035736493407935,1.0500867267093605,6.861529336185461,0.09268804450647397,-0.6748228244098701,-4.985856446554045
6.614074516607887,1.0433384984652618,6.862456216630526,0.04282948004093352,-0.8561214534113646,-4.802413837187286
6.62450790159254,1.0347772839311482,6.862884511430935,-0.005194658330939343,-1.0406938919116895,-4.60973750340355
6.634855674431851,1.0243703450120314,6.862832564847626,-0.05129203336497484,-1.2283286034353136,-4.4083535318926925
6.645099377881971,1.0120870589776783,6.862319644513976,-0.09537556868390176,-1.4187511457418964,-4.198882971411609
6.655220248471748,0.9978995475202593,6.8613658888271365,-0.13736439839801784,-1.611618935187818,-3.982044690341662
6.665199243946951,0.9817833581683811,6.8599922448431565,-0.17718484530143447,-1.8065180493885895,-3.7586554410760113
6.675017077528635,0.9637181776744952,6.858220396390142,-0.21477139971219458,-2.002962361913904,-3.5296267912335417
6.68465425930538,0.9436885540553561,6.8560726823930205,-0.25006766762453,-2.200395225257307,-3.2959586934549465
6.694091144845934,0.921684601802783,6.853572005716775,-0.28302725455907946,-2.39819381373103,-3.058729613558432
6.703307990863961,0.8977026636654727,6.850741733171184,-0.31361455069466376,-2.5956761108150044,-2.819083314158243
6.712285017500616,0.8717459025573226,6.847605587664238,-0.3418053838362462,-2.792110383579823,-2.5782125861581373
6.721002476526189,0.8438247987215244,6.844187533825876,-0.36758750969782755,-2.9867268406041743,-2.3373404187983726
6.729440724513404,0.8139575303154827,6.840511658728897,-0.3909609138858113,-3.178731031656534,-2.0976992827629886
6.7375802998165595,0.7821702199989173,6.83660204959004,-0.41193790671344116,-3.36731843016131,-1.8605093523831313
6.745402002016549,0.7484970356973042,6.832482670522905,-0.4305430002372725,-3.5516895549064524,-1.6269565961079349
6.752886972373522,0.7129801401482396,6.8281772405205325,-0.44681256619835186,-3.7310649446950896,-1.3981717070505784
6.760016773775004,0.6756694907012888,6.823709114858549,-0.46079428326885763,-3.904699303834471,-1.1752108212407426
6.766773468682017,0.6366224976629441,6.819101172025861,-0.47254639148126504,-4.071894187824345,-0.9590388807744508
6.7731396936586465,0.5959035557847007,6.814375708111048,-0.4821367802890095,-4.232008692753974,-0.7505163498427705
6.779098729216494,0.5535834688571609,6.809554340308158,-0.48964194378743725,-4.384467739797413,-0.5503897971535283
6.784634563905065,0.5097387914591868,6.804657920870284,-0.4951458417589725,-4.528767695723671,-0.35928663628221913
6.7897319518196575,0.46445111450195004,6.799706462452694,-0.4987387081217947,-4.664479227903533,-0.17771408563702873
6.794376462964677,0.4178063222229147,6.794719075371477,-0.500515848978165,-4.791247444492332,-0.0060621910643447385
6.798554526186906,0.3698938477779914,6.789713916881695,-0.5005764708888085,-4.908789505667899,0.15538943706065134
6.802253464664686,0.3208059527213124,6.784708152172807,-0.49902257651820203,-5.016890001312516,0.30646167222070586
6.805461524191899,0.2706370527081872,6.779717926407625,-0.495957959795995,-5.115394469228822,0.4470633113421961
6.808167894718981,0.219483108015899,6.774758346809665,-0.49148732668257306,-5.204201474402983,0.577176569599507
6.8103627257991395,0.16744109327186915,6.769843473542839,-0.485715560986578,-5.283253685752415,0.6968413085013148
6.812037136731858,0.114608556414345,6.764986317932974,-0.4787471479015648,-5.352528376502818,0.8061386518247047
6.813183222296002,0.061083272649316823,6.760198846453958,-0.47068576138331775,-5.412027743709336,0.9051745918111943
6.813794055022495,0.006962995212223461,6.7554919888401255,-0.4616340154652058,-5.46176939802685,0.9940641169624567
6.813863684974617,-0.04765469876804504,6.750875648685473,-0.45169337429558126,-5.501777323077366,1.0729163121935674
6.813387137986936,-0.10267247199881871,6.7463587149425175,-0.4409642111736456,-5.532073550356358,1.1418208002685197
6.812360413266948,-0.1579932075023823,6.741949072830781,-0.4295460031709604,-5.552670745133956,1.2008358168851825
6.810780481191924,-0.21351991495372186,6.737653612799072,-0.4175376450021086,-5.563565854489013,1.249978145051424
6.808645282042387,-0.26915557349861197,6.73347823634905,-0.4050378635515944,-5.5647349323748925,1.2892150800768438
6.805953726307401,-0.3248029228223609,6.729427857713534,-0.39214571275082594,-5.556129229114331,1.3184585553390713
6.802705697079177,-0.3803642151135042,6.725506400586026,-0.37896112719743524,-5.537672613535594,1.3375615301369397
6.798902054928042,-0.43574094124886015,6.721716789314051,-0.36558551189606586,-5.509260383775397,1.346316722286438
6.794544645515553,-0.49083354508661414,6.7180609341950905,-0.35212234467320147,-5.470759515567954,1.3444577565131046
6.789636310064687,-0.5455411402422937,6.714539710748358,-0.3386777671080704,-5.422010392067903,1.3316627912607544
6.784180898662264,-0.5997612441629727,6.711152933077278,-0.32536113919546283,-5.362830054013863,1.307560676881463
6.778183286220634,-0.6533895447031114,6.707899321685323,-0.3122855324266482,-5.293017000221361,1.2717396826353904
6.771649390773603,-0.706319714705325,6.704776466361056,-0.29956813560029427,-5.212357552864365,1.223758803834022
6.76458619362655,-0.7584432902339686,6.701780785005053,-0.28733054756195403,-5.120633776805078,1.1631616194177876
6.7570017607242105,-0.8096496280020193,6.698907479529434,-0.2756989313677762,-5.017632904835469,1.0894926105395975
6.748905264444191,-0.859825957050374,6.696150490215756,-0.2648040052623802,-4.9031581693221815,1.0023157697296794
6.740307004873687,-0.9088575387435959,6.693502450163132,-0.2547808475650834,-4.777040874738671,0.9012352270175633
6.731218429486251,-0.9566279474909826,6.690954641687481,-0.24576849529490777,-4.639153465793287,0.7859174953359631
6.721652150011342,-1.0030194821489153,6.688496956734532,-0.23790932034154813,-4.489423255110042,0.6561147968399372
6.711621955189853,-1.0479137147000157,6.686117863531117,-0.23134817237314875,-4.327846377718898,0.5116887819806575
6.701142818042852,-1.0911921784772047,6.683804381807386,-0.22623128455334218,-4.154501444361708,0.3526338053409753
6.69023089625808,-1.1327371929208219,6.6815420689618525,-0.22270494649993242,-3.969562281436987,0.17909879074927298
6.678903524328872,-1.1724328157351918,6.679315019496853,-0.22091395859243967,-3.773309083591476,-0.008593380042075131
6.66717919617152,-1.2101659065711066,6.677105879910928,-0.22099989239286041,-3.566137277520966,-0.2099300677714502
6.655077537105809,-1.2458272793463163,6.674895880986999,-0.2230991930705749,-3.3485634137442357,-0.4241977564404624
6.642619264312346,-1.2793129134837586,6.672664889056294,-0.22734117063497952,-3.121227475754785,-0.6504766024873044
6.629826135177509,-1.3105251882413065,6.670391477349944,-0.23384593665985257,-2.884891127462747,-0.8876414481982023
6.616720883295096,-1.339374099515934,6.668053017983345,-0.2427223511418346,-2.6404316085921367,-1.1343698156882884
6.6033271422999364,-1.3657784156018553,6.665625794471927,-0.2540660492987175,-2.388831224932784,-1.3891570431694304
6.589669358143918,-1.3896667278511832,6.66308513397894,-0.2679576197304118,-2.1311626499929024,-1.6503383185271783
6.575772690865406,-1.4109783543511123,6.660405557781636,-0.2844610029156836,-1.868570534323517,-1.9161169388909314
6.561662907321895,-1.4296640596943475,6.657560947752479,-0.30362217230459293,-1.602250182250824,-2.1845977175471023
6.547366266724952,-1.4456865615168557,6.654524726029433,-0.325468149480064,-1.333424275876776,-2.4538241113714037
6.532909401109783,-1.4590208042756234,6.651270044534633,-0.350006390593778,-1.0633187789428185,-2.721817389125052
6.518319193067026,-1.4696539920650515,6.647769980628695,-0.37722456448502856,-0.7931392210939553,-2.986616030364573
6.503622653146376,-1.4775853842759912,6.643997734983845,-0.4070907247886743,-0.5240485382156598,-3.246313549850915
6.488846799303616,-1.4828258696581478,6.639926827735958,-0.43955386028718346,-0.2571475295387779,-3.4990930812168863
6.474018540607035,-1.4853973449535356,6.635531289133086,-0.4745447910993523,0.006541199893210675,-3.7432573091794805
6.459164567157499,-1.4853319329546035,6.630785841222092,-0.5119773641911471,0.2660851907745357,-3.9772526823511027
6.444311247827953,-1.4826710810468582,6.625666067580181,-0.5517498910146582,0.5206496320858379,-4.199687231552615
6.429484537017484,-1.4774645847259997,6.620148568670035,-0.5937467633301844,0.7695003514255899,-4.409341722007262
6.414709891170224,-1.4697695812117437,6.614211101036733,-0.637840180550257,1.0120024869706263,-4.605174245449201
6.400012195358107,-1.4596495563420375,6.60783269923123,-0.6838919230047491,1.2476152496636939,-4.786318680832371
6.385415699794686,-1.4471734038454005,6.600993780001183,-0.7317551098130728,1.4758833441916122,-4.95207770068324
6.370943965756232,-1.4324145704034843,6.5936762289030515,-0.7812758868199052,1.6964257175756061,-5.101911165630969
6.356619820052197,-1.4154503132277283,6.585863470034853,-0.8322949984762149,1.908922346713824,-5.2354208336197035
6.342465316919919,-1.39636108976059,6.57754052005009,-0.884649206812412,2.113099768387701,-5.352332322059819
6.328501706022314,-1.375230092076713,6.568694027981966,-0.9381725300330102,2.3087160080242346,-5.452475215369084
6.314749405101547,-1.3521429319964708,6.559312302681636,-0.992697282186701,2.4955454895160223,-5.535762124331953
6.301227975781583,-1.3271874771013106,6.549385329859769,-1.0480549034300204,2.6733644202821294,-5.6021673951296584
6.287956101010569,-1.3004538328984894,6.538904780825469,-1.104076577381317,2.8419370549405136,-5.651706050955386
