th1 (rad),w1 (rad/s),th2 (rad),w2 (rad/s)
3.3739437951165687,0.26011181773683456,2.5856123466849392,0.49077866815687976
3.376544913293937,0.3130425186888613,2.590520133366508,0.40221870552369865
3.3796753384808254,0.36652314322404184,2.5945423204217453,0.31380633962214516
3.3833405699130656,0.42047420953304654,2.5976803838179667,0.22562004189217566
3.3875453120083963,0.47481741440178793,2.5999365842368887,0.1377403569302284
3.3922934861524143,0.5294752586375591,2.601313987806191,0.050250198794780196
3.39758823873879,0.584370696546545,2.6018164897941385,-0.03676486750500166
3.4034319457042552,0.6394268426561636,2.6014488411190886,-0.1232164046574923
3.409826214130817,0.6945667669620701,2.6002166770725137,-0.20901298425747733
3.416771881800438,0.7497134062238503,2.598126547229939,-0.2940602075513811
3.4242690158626763,0.8047896133703061,2.5951859451544252,-0.37826089488151665
3.4323169119963794,0.8597183601358636,2.59140333620561,-0.4615154631371451
3.440914095597738,0.9144230999669948,2.5867881815742386,-0.5437224990905052
3.450058326597408,0.9688282894452168,2.5813509565833335,-0.6247795240993904
3.45974660949186,1.0228600574926299,2.5751031613423394,-0.70458393302368
3.4699752100667864,1.0764470030394577,2.568057322012103,-0.7830340781434213
3.480739680097181,1.1295210942428517,2.5602269812306684,-0.8600304582162503
3.4920348910396095,1.182018636321597,2.551626676648506,-0.9354769643568778
3.5038550774028256,1.2338812710905758,2.542271907004937,-1.0092821288132112
3.5161938901137315,1.2850569696738563,2.532179085716805,-1.0813603203950648
3.52904445981047,1.3355009807886382,2.5213654825128544,-1.1516328314560165
3.5423994696183563,1.3851767003542241,2.509849154198294,-1.2200288058112194
3.5562512366218986,1.4340564337112869,2.497648866140182,-1.2864859643745423
3.5705918009590114,1.4821220289769454,2.4847840064964366,-1.3509510949470402
3.585413021248781,1.5293653684216775,2.4712744955469663,-1.4133802836384866
3.6007066749329977,1.5757887135837936,2.4571406927105817,-1.47373887692551
3.6164645620688356,1.6214049084939337,2.4424033039413264,-1.5320011744333266
3.632678611153775,1.6662374532979047,2.4270832921969934,-1.5881498623728243
3.649340985686754,1.710320467297705,2.411201793573265,-1.6421752055512315
3.666444190359731,1.7536985656886066,2.3947800415177527,-1.6940740216055385
3.683981176016617,1.79642667792726,2.377839301301697,-1.7438484644194256
3.7019454427958896,1.8385698377433306,2.360400816657503,-1.7915046446298872
3.7203311411733226,1.8802029754468212,2.342485770211204,-1.8370511139425763
3.739133170927791,1.921410742608461,2.324115259071778,-1.8804972370212998
3.7583472783538756,1.9622873976646618,2.305310286701565,-1.9218514704463991
3.7779701523305222,2.0029367787837025,2.2860917719971012,-1.9611195631384346
3.7979995201183594,2.0434723876504246,2.266480576365717,-1.998302687216595
3.8184342439948638,2.0840176048382855,2.246497549493551,-2.0333955029996016
3.8392744200432465,2.124706054200197,2.226163594463555,-2.0663841572533523
3.8605214805852484,2.1656821301638125,2.2054997528910216,-2.0972442103583337
3.8821783018868863,2.207101697758991,2.184527310787438,-2.125938486388382
3.9042493188644762,2.249132970256816,2.163267925923554,-2.152414840863222
3.926740648567044,2.2919575628686255,2.1417437775149217,-2.176603845071211
3.9496602241957306,2.3357717121808617,2.11997773906421,-2.19841639458162
3.973017941317539,2.38078763869101,2.0979935751183936,-2.217741264550806
3.9968258177044493,2.4272350123392994,2.0758161624728855,-2.234442657953338
4.021098167827843,2.4753624561478875,2.053471735893352,-2.2483578280047634
4.045851792389321,2.5254389881919583,2.0309881576133044,-2.259294906830366
4.071106182271241,2.5777552536159836,2.008395208545001,-2.2670311440518196
4.096883734807401,2.6326243320122513,1.9857248971044827,-2.2713118577769635
4.123209978127523,2.690381816351579,1.9630117785267132,-2.271850533848976
4.150113796291039,2.7513847428598313,1.9402932731882234,-2.268330684815687
4.177627643719637,2.8160088028338826,1.9176099663400665,-2.260410304339101
4.205787731747976,2.884643086550974,1.8950058632966755,-2.2477300277941463
4.234634162613486,2.9576814020403748,1.872528563018734,-2.2299264280565567
4.26421097663389,3.0355089959646167,1.8502292987381685,-2.20665221112165
4.294566066593536,3.118483319529316,1.8281627766269521,-2.177605372443018
4.3257508997888285,3.2069074002836486,1.806386722902522,-2.1425695274327743
4.357819973791665,3.30099451506179,1.7849610276281942,-2.1014674687886123
4.390829918942283,3.4008233740980667,1.763946352940308,-2.0544292826755624
4.424838152683264,3.5062841268980187,1.7434020601135525,-2.0018747619079
4.459900993952244,3.6170173937855217,1.7233833124944735,-1.9446070633641552
4.4960711678901,3.7323513313171044,1.703937241860832,-1.8839103677618836
4.533394681203271,3.8512453322742126,1.6850981381832133,-1.8216388625067854
4.571907134526013,3.972252786180815,1.6668817495581454,-1.7602784799792028
4.611629662387821,4.093518246924181,1.6492789647583534,-1.7029581735799428
4.6525648448570625,4.212824701481161,1.632249383022554,-1.6533866406763729
4.694693091871874,4.3277026364209865,1.6157155166157902,-1.6156960825869697
4.737970118236084,4.435603242846101,1.5995585557899206,-1.5941885520631267
4.782326150664545,4.534124164261584,1.5836166702692893,-1.5930017307568287
4.827667392307161,4.621260835642988,1.567686652961721,-1.6157349563378944
4.873880000663591,4.695644683374667,1.5515293033983422,-1.665095300667187
4.920836447497337,4.756726242331989,1.5348783503916703,-1.7426295137572136
4.968403709920658,4.8048691765131855,1.5174520552540982,-1.8485962189873333
5.01645240168579,4.841338850372209,1.4989660930642248,-1.9820056307985314
5.064865790189511,4.868191363216589,1.4791460367562395,-2.1408191344847327
5.113547703821677,4.888089058387717,1.457737845411392,-2.322269178163112
5.162428594405554,4.904080786851535,1.434515153629761,-2.52324045113426
5.211469402274069,4.919387136498007,1.4092827491184183,-2.7406505992443586
5.260663273639049,4.937223605487876,1.3818762431259748,-2.971781037614732
5.310035509693928,4.9606821239477785,1.3521584327498275,-3.2145296217429995
5.359642330933406,4.992678025494662,1.3200131365323975,-3.467579586584104
5.409569111188353,5.035959199521178,1.2853373406665565,-3.7304974485669544
5.459928703183564,5.093168518315889,1.248032366180887,-4.003783821303531
5.510860388366723,5.166949738912561,1.2079945279678517,-4.288905665164696
5.562529885755849,5.260089832649414,1.1651054713162048,-4.588338554005706
5.615130784082343,5.37569567959744,1.1192220857761477,-4.90564575186097
5.668887740878318,5.517409023961438,1.070165628257538,-5.245619344875407
5.724061831117932,5.6896693894123445,1.017709434808784,-5.614508201814489
5.780958525012055,5.89803851620725,0.9615643527906391,-6.020356735443054
5.839938910174128,6.1495971151823134,0.9013607854362086,-6.473470987641594
5.901434881325951,6.453401698369648,0.8366260755597926,-6.98699530275029
5.965968898309647,6.820906811357637,0.7667561225322898,-7.577469079836627
6.034177966423224,7.266006130511844,0.6909814317339235,-8.264885294498296
6.106838027728342,7.80362455815515,0.6083325787889405,-9.070771424223544
6.184874273309894,8.443851549778499,0.5176248645467051,-10.010106597246875
6.269312788807679,9.17405828340149,0.4175237985742363,-11.066525988569431
6.3610533716416935,9.91508001086665,0.306858538688542,-12.13131646595878
6.46020417175036,10.45237355203802,0.1855453740289542,-12.90734249536882
6.56472790727074,10.459456782635387,0.05647194907526601,-12.941820039608302
6.669322475097093,9.829952190266921,-0.07294625132081703,-12.08956967609408
6.767621996999763,8.9006908351999,-0.1938419480817578,-10.821198334083153
6.856628905351762,8.019745425028455,-0.30205393142258935,-9.619285780395423
6.936826359602047,7.295107142565318,-0.39824678922654355,-8.632057720205152
7.0097774310277,6.716872186439987,-0.4845673664285951,-7.84515799252736
7.0769461528921,6.25262883660738,-0.5630189463538687,-7.213823532286473
7.1394724412581745,5.873827659136754,-0.6351571816767334,-6.699030243460003
7.198210717849542,5.5591934755185655,-0.7021474841113334,-6.2720129474505715
7.253802652604728,5.293379062874607,-0.7648676135858391,-5.912327903507037
7.306736443233474,5.0652473802846885,-0.8239908926209094,-5.605462350348072
7.357388917036321,4.8665565210778245,-0.8800455161243901,-5.341026597473652
7.406054482247099,4.691051750514141,-0.9334557820991266,-5.111517545740581
7.452964999752241,4.5338537066497855,-0.9845709575565325,-4.911490330837947
7.498303536818739,4.391047399904752,-1.033685860864912,-4.73699791723448
7.542214010817786,4.259407486862554,-1.0810558400372567,-4.585200050475929
7.5848080856864115,4.136219726986368,-1.126907840542016,-4.45407465410413
7.626170282956275,4.019174912629715,-1.1714485870830573,-4.342185749779543
7.6663620320825725,3.906321357198052,-1.2148704445808527,-4.248476319297454
7.705425245654553,3.7960662772272853,-1.2573552077738273,-4.172066373318517
7.743385908426825,3.6872154830244193,-1.2990758715070123,-4.112049168258595
7.78025806325707,3.579035180562536,-1.3401963631895983,-4.067293737897673
7.816048415062695,3.471311235632527,-1.380869300568575,-4.0362784971759895
7.85076152741902,3.364374254561993,-1.4212320855403349,-4.016993421677682
7.88440526996464,3.259059633714455,-1.4614020197571116,-4.006948831887172
7.916995866301785,3.1565856169672815,-1.5014715080759833,-4.003310155604062
7.9485617224714575,3.058358607994842,-1.541504609632024,-4.003141820286022
7.979145308551406,2.9657437567275173,-1.5815360278348842,-4.003703839934989
8.00880274611868,2.8798552930602277,-1.621573066234234,-4.002722810774686
8.037601299049284,2.80141520206653,-1.661600294341981,-3.9985687115905932
8.065615451069949,2.730703548105314,-1.7015859814578869,-3.9903054590298526
8.092922486551002,2.6675930491603586,-1.7414890360481854,-3.9776265581376125
8.119598417042605,2.611639129506934,-1.7812653016295614,-3.960716766581723
8.145714808337674,2.5621910095039464,-1.8208724692953786,-3.9400879362186916
8.171336718432714,2.5184963093222295,-1.8602733486575656,-3.916426919951232
8.196521681525937,2.479783717217576,-1.8994376178570778,-3.8904762680916045
8.221319518698113,2.445319242446082,-1.9383423805379938,-3.8629531310991307
8.245772711122575,2.4144386017698203,-1.976971911848985,-3.8345021633360794
8.269917097140272,2.3865613600361186,-2.015316933482346,-3.805674170594222
8.293782710740633,2.3611928158341717,-2.053373675188288,-3.776921925062642
8.317394638898975,2.3379186466730317,-2.0911428944389145,-3.7486060673101913
8.340773825365705,2.316395954896507,-2.1286289551120166,-3.7210060047326006
8.36393778491467,2.29634308715862,-2.1658390151593427,-3.694332517452322
8.386901215786256,2.2775296217119387,-2.202782340333866,-3.668740155111279
8.409676512003376,2.2597672430937945,-2.239469741884979,-3.64433844440209
8.432274184434315,2.2429017976034396,-2.275913126329,-3.6212015125918184
8.454703202410348,2.2268065753202686,-2.312125141454918,-3.599376068250749
8.47697126816355,2.2113767344003783,-2.3481189021374256,-3.578887853561427
8.499085035507555,2.1965247255952387,-2.3839077806730398,-3.559746756712339
8.521050282763508,2.1821765585069683,-2.419505248240163,-3.5419507908549734
8.542872048348578,2.168268756419175,-2.4549247561487126,-3.525489134918181
8.56455473591277,2.1547458618486877,-2.4901796474978943,-3.5103444072864782
8.586102194531257,2.1415583735909847,-2.525283091570759,-3.496494314969967
8.607517778267168,2.12866101449106,-2.5602480347204586,-3.4839127931336065
8.628804388412078,2.116011245861328,-2.5950871626517946,-3.4725707249345166
8.649964500870691,2.1035679588767104,-2.62981286990114,-3.462436310414276
8.671000180459458,2.0912902855058855,-2.6644372330052826,-3.4534751359404225
8.691913083314518,2.079136482040259,-2.698971984364687,-3.445649982398696
8.71270444813492,2.0670628477350856,-2.733428484188674,-3.4389204010544967
8.73337507661227,2.0550226503327393,-2.767817688199219,-3.433242080981033
8.753925303115599,2.04296504032229,-2.802150109009029,-3.428566031755874
8.774354953518822,2.0308339479151023,-2.8364357693265876,-3.4248376106956373
8.794663292997972,2.0185669722805777,-2.870684145433544,-3.4219954365532255
8.814848962720777,2.00609429311187,-2.9049040997990763,-3.419970252964313
8.834909905651896,1.9933376615490137,-2.9391038023287193,-3.418683836663792
8.854843282267387,1.9802095619188915,-2.973290640695357,-3.418048088772575
8.874645377886576,1.9666126775978368,-3.007471121583083,-3.41796450201744
8.894311504662555,1.9524398413419244,-3.0416507666032575,-3.418324259409303
8.913835903075976,1.937574696831084,-3.0758340091973504,-3.419009282541276
8.933211650044287,1.9218933328649157,-3.1100241020227632,-3.41989459492
8.952430583372935,1.9052671571099262,-3.144223047971963,-3.420852373316556
8.971483254944035,1.8875672289485064,-3.178431571705129,-3.421757995289312
8.99035892723352,1.8686701448955003,-3.212649151658022,-3.4224982177644687
9.009045628682475,1.8484653457589715,-3.2468741338356666,-3.4229813127397404
9.027530282140065,1.8268633934665193,-3.281103946963064,-3.42314854339426
9.04579891607473,1.8038043857811055,-3.3153354323970063,-3.422985840494025
9.06383695993254,1.7792653253224933,-3.3495652908019466,-3.4225340546930894
9.081629613185767,1.7532650616001968,-3.3837906313488775,-3.4218958901121956
9.099162263801768,1.7258655111055883,-3.4180095902499996,-3.4212377482589162
9.116420918912823,1.697168304274787,-3.452221967732589,-3.420785329648072
9.13339260195557,1.6673067669602126,-3.48642982102907,-3.4208128929105532
9.150065669625173,1.6364340412130645,-3.5206379499581755,-3.4216273107661026
9.166430010037303,1.604708923938549,-3.5548542230658366,-3.423549125012109
9.182477099276689,1.5722814106192966,-3.589089714315958,-3.4268933544038527
9.198199913382881,1.5392798596309583,-3.6233586478599964,-3.4319526933944555
9.21359271197919,1.5058011980819153,-3.657678174793941,-3.4389850400639035
9.22865072396001,1.4719048636700287,-3.69206802519458,-3.448206276880299
9.24336977259671,1.4376104492830033,-3.7265500879633833,-3.459788219456834
9.25774587708954,1.402898465796705,-3.7611479701579515,-3.4738608918040614
9.271774861747508,1.3677133422905485,-3.7958865790759924,-3.4905178878293377
9.285451995170414,1.3319677271080435,-3.8307917579542856,-3.509823514417589
9.298771672441495,1.2955472677524158,-3.8658899930984614,-3.531820581403301
9.311727145119018,1.2583152485870566,-3.9012081989124945,-3.5565379901570355
9.324310297604889,1.2201166832620858,-3.9367735788140648,-3.5839975786592473
9.33651146443751,1.1807816499423212,-3.9726135546006573,-3.6142199465308513
9.348319280936934,1.140127802351866,-4.008755754065966,-3.647229182386257
9.359720558960452,1.0979620862055353,-4.045228045889829,-3.68305654586353
9.370700179822508,1.0540817460291576,-4.082058611348464,-3.7217432284659497
9.3812409972828,1.0082747323644896,-4.119276043633124,-3.763342346113058
9.391323744606446,0.9603196243797189,-4.156909467094255,-3.807920316694464
9.400926940850242,0.9099851765313279,-4.194988670261199,-3.855557759748949
9.410026792615556,0.8570295863878938,-4.233544247858688,-3.9063500310708927
9.418597088479435,0.8011995681733847,-4.272607748169397,-3.960407477964343
9.42660908416117,0.7422293055366008,-4.312211822949041,-4.017855474072901
9.434031377216536,0.6798393488978656,-4.35239037768977,-4.078834267630721
9.440829770705514,0.6137355181452185,-4.393178720366077,-4.14349865398337
9.446967125886967,0.5436078707252201,-4.43461370690591,-4.212017462088369
9.45240320459422,0.469129798370457,-4.476733881526794,-4.284572824890848
9.457094502577924,0.3899573228172903,-4.519579609775702,-4.361359184341107
9.460994075806097,0.3057286718580272,-4.5631932016191135,-4.442581962765036
9.464051362524676,0.21606423188760132,-4.607619021246764,-4.5284558128223065
9.466212004843552,0.12056699163935704,-4.652903579374987,-4.619202338099892
9.467417674759945,0.018823613826056462,-4.699095602755986,-4.7150471554891205
9.467605910898206,-0.08959370355781894,-4.746246074310878,-4.816216149283475
9.466709973862628,-0.2051243873202379,-4.794408235803712,-4.922930746357709
9.464658729989425,-0.3282154537005316,-4.843637543267289,-5.035402023523584
9.46137657545242,-0.4593160344428528,-4.893991563502525,-5.15382344484019
9.45678341510799,-0.5988702000837813,-4.945529797950927,-5.278362022145094
9.450794713107152,-0.7473078052361051,-4.998313418172378,-5.409147701714109
9.443321635054792,-0.9050330866726758,-5.052404895189519,-5.546260810810521
9.434271304188066,-1.0724107770112126,-5.107867503297625,-5.689717458798948
9.423547196417953,-1.2497495658617588,-5.164764677885614,-5.83945288890571
9.411049700759335,-1.4372828592366171,-5.223159206774671,-5.9953029299125
9.39667687216697,-1.6351469702825514,-5.283112236073796,-6.1569839127768144
9.380325402464143,-1.8433571319394586,-5.344682075201565,-6.324071702943501
9.361891831144748,-2.0617820619925156,-5.407922792231,-6.495980855523944
9.341274010524822,-2.2901182303201377,-5.47288260078624,-6.671945315982481
9.318372828221621,-2.5278654579565547,-5.539602053946065,-6.851002533616609
9.293094173642055,-2.7743059760167377,-5.608112079282231,-7.031983274917237
9.265351113881888,-3.0284895194405514,-5.678431912031403,-7.213509737136826
9.235066218687482,-3.2892273263915603,-5.750567009402771,-7.394004661734442
9.202173945423567,-3.5550979370226883,-5.824507056020115,-7.571713911190563
9.16662296605334,-3.8244673092931123,-5.900224195132021,-7.744744288777035
9.12837829296041,-4.095524896354483,-5.977671638019792,-7.911117182499553
9.087423043996864,-4.366335930627546,-6.056782809844787,-8.068836923420221
9.043759684690588,-4.634908315520352,-6.1374711790789895,-8.215970712752394
8.997410601535385,-4.89927045369548,-6.219630886206513,-8.350734878807867
8.94841789699843,-5.157554382952428,-6.3031382349945915,-8.471580471933065
8.896842353168905,-5.408077156834368,-6.387854039713922,-8.577270221894336
8.842761581600561,-5.6494128737876395,-6.473626741932865,-8.666939009530404
8.786267452862685,-5.880448352866419,-6.560296132028169,-8.74013137600735
8.72746296933402,-6.100417161237218,-6.647697445788243,-8.796812057083578
8.666458797721647,-6.308909240216248,-6.735665566359079,-8.837348659847255
8.603369705319485,-6.5058562717106065,-6.824039052957551,-8.862468798123196
8.53831114260238,-6.691495624942814,-6.912663740938783,-8.873196667781473
8.471396186352951,-6.86631775475357,-7.001395707616598,-8.870775732123528
8.402733008805416,-7.031003014814049,-7.090103464937833,-8.856584721254702
8.332422978657275,-7.186353967528251,-7.17866931215038,-8.832053622410163
8.260559438981993,-7.333228586884285,-7.266989848374482,-8.798585046476019
8.18722715311315,-7.472478549788702,-7.354975698839243,-8.7574846821609
8.112502367615264,-7.604895407764875,-7.442550545660852,-8.709902853181202
8.036453413537615,-7.731166085651041,-7.529649574192664,-8.656787739654815
7.959141752681104,-7.851838039225467,-7.616217451589212,-8.598849755706066
7.8806233722888495,-7.9672935984676485,-7.702205949146273,-8.53653592520809
7.800950436304173,-8.077732531816245,-7.787571308398354,-8.470012824605188
7.720173110986011,-8.183161646689083,-7.8722714366444055,-8.399156684427691
7.6383414945191195,-8.2833902293026,-7.956263003488682,-8.323549468715843
7.5555075922260935,-8.378030257839724,-8.03949849817584,-8.242480103505374
7.4717272896476965,-8.466500542991698,-8.121923299210893,-8.154950440430914
7.387062284217779,-8.548034219775031,-8.203472803615202,-8.059685978688231
7.301581942020029,-8.621689310552775,-8.284069663402084,-7.955151804696704
7.215365048914501,-8.686362390104792,-8.363621181449052,-7.839574631764279
7.128501425013453,-8.74080570596131,-8.442016927766694,-7.7109722236299
7.04109336795384,-8.783648439428077,-8.519126650002994,-7.5671918528260935
6.953256883559559,-8.813423127588077,-8.594798568531255,-7.405959749443186
6.865122652283679,-8.828598582269404,-8.668858166025688,-7.224943684214128
