th1 (rad),w1 (rad/s),th2 (rad),w2 (rad/s),a1 (rad/s^2),a2 (rad/s^2)
2.1040309067630605,2.556884804287811,1.2963603963626662,-0.5297339797252731,-9.083270049487998,1.5695721373827862
2.1295997548059384,2.466052103792931,1.2910630565654135,-0.5140382583514452,-8.719401509181985,0.9328435584127205
2.1542602758438676,2.378858088701111,1.2859226739818992,-0.504709822767318,-8.382544429860111,0.33013764659861694
2.1780488567308787,2.29503264440251,1.280875575754226,-0.5014084463013319,-8.071607884656448,-0.2391193858439185
2.2009991831749036,2.2143165655559454,1.2758614912912127,-0.5037996401597711,-7.785396114742211,-0.7759802112683746
2.223142348830463,2.136462604408523,1.270823494889615,-0.5115594422724549,-7.522707992395682,-1.2817858498360046
2.244506974874548,2.0612355244845664,1.2657079004668905,-0.5243773007708149,-7.282397775055596,-1.7580370645914087
2.265119330119394,1.9884115467340104,1.2604641274591823,-0.541957671416729,-7.063409776253575,-2.2063088306464524
2.285003445586734,1.9177774489714747,1.255044550745015,-0.5640207597231935,-6.864795762834155,-2.6281945076546154
2.3041812200764484,1.849129491343133,1.249404343147783,-0.5903027047997397,-6.685721156013172,-3.025270318135332
2.32267251498988,1.7822722797830013,1.2435013160997856,-0.620555407981093,-6.525464186772633,-3.3990735688221574
2.3404952377877097,1.717017637915275,1.2372957620199747,-0.6545461436693145,-6.38341081058711,-3.7510900540006777
2.3576654141668625,1.653183529809404,1.2307503005832816,-0.6920570442093212,-6.259047253964623,-4.08274748349616
2.3741972494649564,1.5905930572697577,1.2238297301411885,-0.7328845190442829,-6.15195142263232,-4.39541275723288
2.390103180037654,1.5290735430434346,1.2165008849507457,-0.7768386466166117,-6.061783960317275,-4.6903915887295335
2.405393915468088,1.4684557034402619,1.2087324984845795,-0.8237425625039071,-5.988279445802315,-4.968929451054799
2.4200784725024906,1.4085729089822387,1.2004950728595405,-0.873431857014455,-5.931238010800694,-5.232213143856648
2.434164201592313,1.3492605288742319,1.191760754289396,-0.9257539884530215,-5.890517521970692,-5.4813725034438034
2.4476568068810556,1.290355353654525,1.1825032144048657,-0.9805677134874595,-5.866026376159921,-5.717481930518283
2.4605603604176007,1.2316950898929258,1.172697537269991,-1.0377425327926424,-5.857716894289957,-5.941561513619299
2.47287731131653,1.1731179209500262,1.1623201119420645,-1.0971581479288355,-5.8655792562246,-6.154577595657128
2.48460849052603,1.1144621283877802,1.1513485304627762,-1.1587039238854067,-5.889635889687237,-6.357442676532778
2.495753111809908,1.055565769490908,1.1397614912239222,-1.2222783506507344,-5.929936206142042,-6.551014574025518
2.5063087695048174,0.9962664074294876,1.1275387077174148,-1.2877884963909896,-5.986551562368085,-6.736094782965233
2.5162714335791123,0.9364008918058068,1.1146608227535049,-1.355149444220642,-6.059570316120483,-6.913425982772065
2.5256354424971703,0.8758051886446019,1.1011093283112985,-1.4242837040483627,-6.149092836414576,-7.083688648308859
2.5343934943836164,0.8143142602804562,1.0868664912708148,-1.4951205905314513,-6.255226322747018,-7.24749672055035
2.542536636986421,0.751761997052986,1.0719152853655003,-1.5675955577369547,-6.378079282538344,-7.405392293299093
2.550054256956951,0.6879812042276026,1.0562393297881307,-1.6416494806699455,-6.517755512113025,-7.557839271295255
2.5569340689992273,0.6228036491064723,1.0398228349814314,-1.717227873382898,-6.674347423753688,-7.705215954679078
2.5631621054902918,0.5560601748689354,1.0226505562476025,-1.7942800329296889,-6.8479285601393025,-7.84780650594815
2.5687227072389813,0.4875808892675424,1.0047077559183055,-1.8727580979891703,-7.038545138392275,-7.985791259427735
2.5735985161316566,0.4171954378836197,0.9859801749384138,-1.9526160105834476,-7.246206469834887,-8.119235841054408
2.577770470510493,0.3447333731852708,0.9664540148325793,-2.033808368993992,-7.47087410944638,-8.248079079299735
2.5812178042423457,0.270024632090807,0.9461159311426394,-2.116289159786989,-7.712449602217688,-8.372119707806172
2.5839180505632537,0.19290013606863016,0.9249530395447695,-2.2000103568650506,-7.970760713665165,-8.491001888377381
2.58584705192394,0.11319252893197851,0.902952935976119,-2.2849203757488246,-8.245546060463122,-8.604199621058404
2.58697897721326,0.030737068327347294,0.8801037322186308,-2.3709623719594086,-8.53643809645526,-8.711000157883662
2.5872863478965336,-0.054627312637205314,0.8563941084990367,-2.4580723735382453,-8.842944461297417,-8.810486600104035
2.5867400747701614,-0.1430567572501795,0.8318133847636543,-2.5461772395392854,-9.164427765759266,-8.901519936721122
2.5853095071976595,-0.23470103490777217,0.8063516123682615,-2.6351924389064965,-9.500083971186264,-8.98272087587755
2.5829624968485816,-0.3297018746196348,0.7799996879791965,-2.725019647665272,-9.848919622281857,-9.05245193022714
2.579665478102385,-0.42819107084245334,0.7527494915025438,-2.8155441669675434,-10.209728312938568,-9.108800341852655
2.5753835673939607,-0.530288353971839,0.7245940498328683,-2.90663217038607,-10.581066903869585,-9.149562569057027
2.5700806838542425,-0.6360990230105349,0.6955277281290076,-2.99812779607664,-10.961232166135655,-9.172231201826502
2.563719693624137,-0.7457113446718915,0.6655464501682412,-3.089850108094905,-11.348238691963509,-9.173985317827523
2.5562625801774184,-0.8591937315915266,0.6346479490872922,-3.18158996127318,-11.739799086367595,-9.15168542639362
2.5476706428615032,-0.9765917224552025,0.6028320494745604,-3.2731068155371164,-12.133307619612607,-9.101874260843909
2.537904725636951,-1.0979247986513285,0.5701009813191892,-3.3641255581455556,-12.525828667538729,-9.020784753284994
2.5269254776504377,-1.2231830853267158,0.5364597257377336,-3.4543334056784056,-12.914091376772312,-8.904356541807093
2.514693646797171,-1.352323999094439,0.5019163916809495,-3.5433769710964764,-13.294492044504358,-8.748262297262995
2.5011704068062266,-1.4852689195394824,0.4664826219699847,-3.6308595940691064,-13.663105675848719,-8.547944995673928
2.4863177176108318,-1.6218999762979696,0.4301740260292936,-3.7163390440258457,-14.015708054319674,-8.298666986127653
2.470098717847852,-1.7620570568411664,0.39301063558903515,-3.7993257138871224,-14.34780941482387,-7.99557130323065
2.4524781472794404,-1.9055351509894052,0.3550173784501639,-3.879281426919429,-14.654700433427541,-7.633755149509515
2.4334227957695465,-2.0520821553236805,0.3162245641809696,-3.955618978414524,-14.931510745782376,-7.208354844207438
2.4129019742163096,-2.201397262781504,0.27666837439682435,-4.027702526856598,-15.173279594777847,-6.714640837898896
2.3908880015884946,-2.3531300587292825,0.23639134912825838,-4.094848935235587,-15.37503752618843,-6.148120686142546
2.3673567010012015,-2.506880433991167,0.1954428597759025,-4.156330142097012,-15.531897358945924,-5.504647239605496
2.34228789666129,-2.662199407580626,0.1538795583549324,-4.211376614493067,-15.63915203427793,-4.780528837736857
2.3156659025854838,-2.818590927923405,0.11176579221000171,-4.259181902870435,-15.692376489189153,-3.972638088079392
2.2874799933062495,-2.9755146928152967,0.06917397318129737,-4.298908283751229,-15.687530501120946,-3.0785159626341523
2.2577248463780966,-3.132389997826506,0.02618489034378508,-4.32969344337757,-15.621059595271666,-2.0964685039388002
2.2264009463998313,-3.288600593779223,-0.01711204408999062,-4.350658128416958,-15.489991644482417,-1.0256544104433083
2.1935149404620393,-3.4435005102240472,-0.0606186253741602,-4.360914672521391,-15.292027721500132,0.1338369076608401
2.1590799353597987,-3.5964207874390484,-0.10422777209937412,-4.359576303444783,-15.025627012646716,1.380915705237112
2.123115727485408,-3.7466770575655155,-0.14782353513382196,-4.3457671463924115,-14.690087018596405,2.7134281778570153
2.085648956909753,-3.8935779277514797,-0.19128120659774608,-4.318632864613841,-14.28562162227656,4.128095067611237
2.0467131776322383,-4.036434143974246,-0.2344675352438845,-4.2773519139377285,-13.813440604535318,5.620448778374103
2.0063488361924957,-4.174568550019599,-0.2772410543832618,-4.221147426153988,-13.27583451510066,7.184766087824338
1.9646031506922996,-4.307326895170605,-0.31945252864480167,-4.149299765275744,-12.676268159249004,8.81399591452956
1.9215298817405935,-4.434089576763095,-0.3609455262975591,-4.061159806130449,-12.019484120631914,10.499685577658822
1.8771889859729625,-4.554284417969415,-0.4015571243588636,-3.9561629503538605,-11.311614639605406,12.2319144732856
1.8316461417932683,-4.667400564365469,-0.4411187538624022,-3.8338438056210045,-10.560295955232712,13.999250656659997
1.7849721361496136,-4.7730035239177955,-0.47945719191861225,-3.6938512990544043,-9.77477432449724,15.788752655503826
1.7372421009104357,-4.870751267162768,-0.5163957049091563,-3.535963772499366,-8.965988083228613,17.58604475513729
1.688534588238808,-4.960411147995054,-0.5517553426341499,-3.360103324947993,-8.146606317582561,19.375497503550147
1.6389304767588575,-5.041877211170879,-0.5853563758836299,-3.1663483499124916,-7.331003161953434,21.140544692770355
1.5885117046471486,-5.115187242790414,-0.6170198593827548,-2.9549429029847882,-6.535148612972778,22.864162212637606
1.5373598322192445,-5.180538728920142,-0.6465692884126027,-2.7263012808584124,-5.776402955102828,24.529522225035013
1.485554444930043,-5.23830275847117,-0.6738323012211869,-2.4810060586080622,-5.0732127351462175,26.12081846024466
1.4331714173453314,-5.289034885822632,-0.6986423618072675,-2.2197978740056157,-4.444721110980995,27.62423694312528
1.380281068487105,-5.333482096932442,-0.7208403405473236,-1.9435555045743629,-3.9103227038205333,29.029024499538455
1.3269462475177805,-5.372585323970647,-0.7402758955930673,-1.6532652595789783,-3.4892102488439214,30.328589529283082
1.273220394278074,-5.407477426459086,-0.756808548188857,-1.3499793642861475,-3.1999743318532117,31.52156064566694
1.2191456200134831,-5.439477169777618,-0.7703083418317185,-1.0347637578294782,-3.060325534793248,32.612732891480576
1.164750848315707,-5.47008042512555,-0.7806559794100133,-0.7086364289146724,-3.0870086893225936,33.61385027005258
1.1100500440644514,-5.500950512018776,-0.7877423436991601,-0.37249792621414657,-3.2959716927918943,34.54420627112671
1.0550405389442636,-5.533910228946695,-0.7914673229613015,-0.027055863502879474,-3.7028384301932027,35.431086879652916
0.9997014366547967,-5.570938613248627,-0.7917378815963303,0.3272550052936497,-4.323720142388469,36.31012681223098
0.9439920505223105,-5.614175814672512,-0.7884653315433938,0.6903562734159596,-5.176385640036195,37.22569166004015
0.8878502923755853,-5.6659396710728736,-0.7815617688092342,1.0626131900163611,-6.281799827010295,38.23142755760897
0.8311908956648566,-5.7287576693429765,-0.7709356369090706,1.4449274655924507,-7.666028947096727,39.39112472381985
0.7739033189714268,-5.805417958813944,-0.7564863622531461,1.8388387128306491,-9.362486478155125,40.7800016524421
0.7158491393832874,-5.8990428235954955,-0.7380979751248397,2.24663872935507,-11.414421055719322,42.486387883501585
0.6568587111473325,-6.013187034152689,-0.715631587831289,2.671502608190086,-13.877346094152108,44.6134581737337
0.5967268408058056,-6.15196049509421,-0.6889165617493881,3.1176371899274233,-16.820593367100287,47.27989573479411
0.5352072358548635,-6.320166428765213,-0.6577401898501138,3.5904361472753643,-20.325910905842537,50.61654279817404
0.4720055715672114,-6.5234255378236385,-0.6218358283773602,4.096601575257105,-24.47803846815191,54.75186371571926
0.406771316188975,-6.768205922505158,-0.5808698126247891,4.644120212414298,-29.335297749598354,59.76934289414657
0.33908925696392345,-7.061558900001141,-0.5344286105006462,5.241813641355764,-34.852942318744745,65.59848653872902
0.26847366796391203,-7.410088323188589,-0.4820104740870885,5.897798506743054,-40.70115617374253,71.75787878582624
0.19437278473202613,-7.817099884926014,-0.423032489019658,6.615377294601316,-45.87259825812217,76.80310226875177
0.11620178588276599,-8.275825867507235,-0.35687871607364485,7.3834083172888345,-47.97707387706114,77.33716281444342
0.03344352720769364,-8.755596606277846,-0.2830446329007565,8.156779945433268,-42.51907994034179,67.00340725612163
-0.05411243885508482,-9.180787405681265,-0.2014768334464238,8.826814017994485,-24.04331394132795,38.11983698625039
-0.14592031291189747,-9.421220545094545,-0.11320869326647896,9.20801238785699,7.409922873238884,-9.201827673163578
-0.24013251836284294,-9.347121316362157,-0.021128569387909066,9.115994111125353,39.19200193354747,-57.03032807056854
-0.3336037315264645,-8.955201297026683,0.07003137172334446,8.545690830419668,56.05176561221172,-83.73110471200839
-0.4231557444967313,-8.394683640904566,0.15548828002754114,7.708379783299584,57.024944006965725,-87.79889294747277
-0.507102580905777,-7.824434200834908,0.232572077860537,6.830390853824857,50.27525035640798,-80.66282251598167
-0.585346922914126,-7.321681697270828,0.30087598639878554,6.02376262866504,41.893656510597516,-70.92420550116263
-0.6585637398868344,-6.902745132164853,0.36111361268543596,5.314520573653414,34.260297208006435,-61.99569200891717
-0.7275911912084829,-6.560142160084788,0.4142588184219701,4.694563653564241,27.912047725287795,-54.69023684839869
-0.7931926128093308,-6.28102168283191,0.46120445495761253,4.147661285080255,22.771719090786853,-48.939557940075076
-0.85600282963765,-6.053304491924042,0.502681067808415,3.658265705679504,18.623057996636202,-44.46331657196896
-0.9165358745568903,-5.86707391195768,0.5392637248652101,3.2136325399598142,15.256882085961383,-40.978170459423595
-0.9752066136764671,-5.714505091098066,0.5714000502648082,2.803850835365578,12.504817362924094,-38.248412870110265
-1.0323516645874478,-5.589456917468825,0.599438558618464,2.4213667066644757,10.239514883590543,-36.08872601515415
-1.088246233762136,-5.487061768632919,0.6236522256851087,2.060479446512934,8.366912370231184,-34.35518421290237
-1.143116851448465,-5.403392644930607,0.644257020150238,1.7169276043839103,6.818093231047483,-32.93537341598017
-1.1971507778977712,-5.335211712620132,0.6614262961940771,1.3875738702241085,5.542564258597869,-31.740377223017553
-1.2505028950239725,-5.279786070034153,0.6753020348963182,1.070170097993933,4.503077928345426,-30.698923763628464
-1.303300755724314,-5.234755290750699,0.6860037358762575,0.7631808603576484,3.6717135476954907,-29.75334364162116
-1.355648308631821,-5.198038155273744,0.693635544479834,0.4656474239414368,3.026904862723811,-28.85689449496091
-1.4076286901845585,-5.167769106646506,0.6982920187192484,0.17707847899182771,2.5511718897280864,-27.97205746251597
-1.4593063812510236,-5.142257387749225,0.7000628035091667,-0.10264209563333199,2.229392980738217,-27.069482474644644
-1.510728955128516,-5.119963457941842,0.6990363825528334,-0.37333692037977845,2.0475149689258645,-26.127322646048402
-1.5619285897079342,-5.0994883082525835,0.6953030133490357,-0.6346101468402625,1.991640191847415,-25.13075143621932
-1.61292347279046,-5.07957190633411,0.688956911880633,-0.8859176612024557,2.047450835301379,-24.071504668586066
-1.663719191853801,-5.059097397981096,0.6800977352686085,-1.1266327078883165,2.199937023910721,-22.947337225213953
-1.714310165833612,-5.037098027741989,0.6688314081897253,-1.356106080140456,2.433390115855996,-21.761332432347427
-1.7646811461110319,-5.012764126583429,0.6552703473883208,-1.5737194044639304,2.7316120634045813,-20.5210487893779
-1.8148087873768661,-4.985448005949383,0.6395331533436814,-1.7789298923577095,3.0782807808349664,-19.237529612094157
-1.86466326743636,-4.954665198141034,0.6217438544201044,-1.971305188478651,3.4574046424170537,-17.9242317642848
-1.9142099194177702,-4.920091151716863,0.6020308025353178,-2.150547506121499,3.853799266214271,-16.595946603587926
-1.9634108309349387,-4.881553159054721,0.5805253274741028,-2.316506972157378,4.253527281279929,-15.267788649987631
-2.012226362525486,-4.839017886241922,0.5573602577525291,-2.4691848586572545,4.644255519508111,-13.954317084756305
-2.060616541387905,-4.792575331046841,0.5326684091659565,-2.6087280295048174,5.015501376015849,-12.668835912552321
-2.1085422946983736,-4.742420317286682,0.5065811288709083,-2.7354163886303406,5.358757846855876,-11.422895365005255
-2.1559664978712405,-4.688832738818124,0.47922696498460493,-2.849645342280393,5.667502263105353,-10.225994538963539
-2.2028548252594216,-4.63215771618707,0.450730511561801,-2.9519052876700287,5.937105208498898,-9.085466815839235
-2.249176402421292,-4.572786664102081,0.4212114586851007,-3.042759955828421,6.1646628533530246,-8.00651716222156
-2.294904269062313,-4.51114003556855,0.39078385912681646,-3.1228251274506365,6.348778244777101,-6.9923742851280215
-2.3400156694179985,-4.447652253120779,0.3595556078523101,-3.1927488703019167,6.489315883493065,-6.044519978804336
-2.384492191949206,-4.3827590942858485,0.32762811914929096,-3.25319407008996,6.587150382454181,-5.162961395797375
-2.4283197828920646,-4.316887590461307,0.29509617844839137,-3.304823684047934,6.6439253017932645,-4.346517789849288
-2.4714886587966776,-4.250448337443374,0.262047941607912,-3.348288861946427,6.6618333286766465,-3.5931000777937174
-2.5139931421711115,-4.183830004156608,0.22856505298844773,-3.384219862724364,6.643424464437061,-2.89996827058161
-2.5558314422126776,-4.117395759512237,0.1947228543612041,-3.41321954543018,6.591445153316609,-2.26395774134519
-2.5970053998078,-4.0514813079790715,0.1605906589069023,-3.435859122843632,6.508708465122353,-1.6816700896794663
-2.6375202128875905,-3.986394223327848,0.12623206767846598,-3.4526758237404267,6.397993497655468,-1.1496279456687923
-2.677384155120869,-3.9224142883512934,0.09170530944106171,-3.4641721031971144,6.261970972955291,-0.6643955225108292
-2.716608298004382,-3.8597945786217402,0.057063588409090565,-3.4708160584222227,6.103151405652504,-0.2226682496430958
-2.7552062437905995,-3.798763064565215,0.022355427824868337,-3.4730427409186535,5.923852061577493,0.1786643938195628
-2.793193874436252,-3.73952454394944,-0.012374999584318196,-3.471256096980458,5.72617905816769,0.5424784726708736
-2.8305891198757465,-3.682262753367763,-0.047087560554122776,-3.465831312253749,5.5120212703825375,0.8713933527333525
-2.8674117474094243,-3.6271425406639377,-0.08174587367666027,-3.457117378726416,5.283053110601179,1.1677636910186033
-2.9036831728160637,-3.574312009557926,-0.11631704746392443,-3.4454397418162297,5.040743687926535,1.4336821817965428
-2.939426292911643,-3.5239045726786604,-0.15077144488208674,-3.4311029199982643,4.786370282063987,1.6709900823062527
-2.9746653386384296,-3.4760408698580205,-0.18508247408206938,-3.414393019175202,4.521034466076234,1.881293042093985
-3.00942574733701,-3.4308305251972584,-0.2192264042738214,-3.395580088754262,4.245679568819817,2.0659802302686234
-3.043734052588982,-3.3883737295090604,-0.253182205161364,-3.3749202864515757,3.961108477355038,2.226245179456481
-3.077617789884073,-3.34876264473551,-0.2869314080258798,-3.352657834657011,3.668001042459533,2.363107137193536
-3.111105416331428,-3.3120826343109147,-0.32045798637244993,-3.3290267632850754,3.366930569640918,2.4774320340400764
-3.144226242674537,-3.2784133286145054,-0.3537482540053007,-3.3042524429446747,3.0583790581254693,2.5699524454364746
-3.1770103759606823,-3.2478295380332507,-0.3867907784347474,-3.27855291849031,2.742750996026172,2.6412861456742918
-3.2094886713410147,-3.220402028072989,-0.4195763076196505,-3.252140057033567,2.4203856360196605,2.6919530325571284
-3.241692691621745,-3.1961981717127923,-0.4520977081899862,-3.2252205267079956,2.0915677668077457,2.722390345736514
-3.2736546733388727,-3.1752824940447146,-0.48434991345706613,-3.1979966232506305,1.7565370653815142,2.7329662154840175
-3.30540749827932,-3.1577171233908996,-0.5163298796895724,-3.1706669610957903,1.4154961671623671,2.7239916665675405
-3.3369846695132286,-3.143562161719276,-0.5480365493005304,-3.1434270444301147,1.0686176285521398,2.695731268249416
-3.3684202911304215,-3.1328759854337545,-0.5794708197448315,-3.1164697317476207,0.7160499819846587,2.64841267006549
