th1 (rad),w1 (rad/s),th2 (rad),w2 (rad/s)
4.5209562463493045,0.5351391326651984,4.604215034614581,0.7668781523381922
4.526307637675957,0.6305356866043598,4.611883816137963,0.7690010774466357
4.532612994542,0.7261489753153786,4.619573826912429,0.7709033154833919
4.539874484295154,0.8220298660569901,4.627282860067263,0.7725049557855003
4.548094782955724,0.9182234937356971,4.635007909625118,0.7737339737733089
4.557277017893081,1.0147675474540516,4.642745249362851,0.7745292027023353
4.567424693367621,1.111690481673723,4.650490541389875,0.7748434483885462
4.5785415981843585,1.2090096302843085,4.65823897587376,0.7746467812899492
4.590631694487201,1.3067292067031024,4.66598544368666,0.7739300310102026
4.603698986554233,1.404838180224015,4.673724743996762,0.7727084951071945
4.617747368356473,1.5033080287221683,4.681451828947834,0.7710258561965591
4.632780448643695,1.6020903810896472,4.6891620875098,0.7689582778300702
4.6488013524545915,1.7011145799778886,4.6968516702881,0.7666186196653938
4.66581249825437,1.800285216939604,4.704517856484754,0.7641606754630834
4.6838153504237665,1.89947971793565,4.712159463239385,0.7617832934446831
4.702810147603123,1.9985460868451825,4.719777296173832,0.7597341884531602
4.722795608471575,2.0973009466523926,4.727374638058364,0.7583132014872311
4.743768617938099,2.195528049754357,4.734957770073236,0.7578747086969221
4.765723898435643,2.292977456283033,4.742536517160205,0.7588288352193152
4.788653672998473,2.3893655968915373,4.750124805512398,0.76164109804384
4.812547328967389,2.4843764372832724,4.757741216492836,0.7668300971694247
4.837391093340221,2.577663938473664,4.765409517464531,0.7749629073281165
4.863167732724958,2.668855952736224,4.773159146537812,0.7866479041527574
4.88985629225232,2.7575596064057817,4.781025625579339,0.8025248956504565
4.917431888316378,2.8433680980617355,4.789050874535843,0.8232526217706368
4.945865569296996,2.9258686918563797,4.79728340075355,0.8494939209298286
4.975124256215559,3.0046515266093845,4.805778339962848,0.8818991196811391
5.005170771481653,3.079318714691178,4.81459733115966,0.9210884462195584
5.035963958628565,3.1494930976803577,4.823808215621855,0.9676344592851636
5.067458889605368,3.2148259840124673,4.833484560214707,1.0220455815825311
5.099607149445493,3.2750032351547973,4.843705016030532,1.0847518022967861
5.132357181797041,3.329749195280623,4.8545525340535,1.1560934577079822
5.165654673749848,3.378828162208989,4.86611346863058,1.2363137280679994
5.1994429553719375,3.422043346302424,4.87847660591126,1.3255551418676643
5.2336633888349615,3.459233521202792,4.891732157329937,1.4238600096733742
5.268255724046989,3.490267796866786,4.905970757426671,1.531174375907829
5.303158402015657,3.5150391102699228,4.921282501185749,1.6473548251313475
5.338308793118356,3.5334571153275025,4.937756049437062,1.772177336675868
5.373643364271631,3.545441159985268,4.955477822803821,1.9053473517930613
5.4090977758714835,3.5509139777785634,4.974531296321751,2.0465102841483698
5.44460691564927,3.5497966148358984,4.9949963991632345,2.195261837326185
5.480104881797629,3.5420049854364706,5.016949017536496,2.3511576567700416
5.515524931651993,3.527448321688867,5.0404605941041964,2.513722005397478
5.550799414868882,3.5060296722526987,5.0655978141581715,2.682455286266952
5.585859711591409,3.4776485216267434,5.092422367020841,2.8568403253249484
5.620636196807676,3.4422055502063293,5.120990770274091,3.0363473639555285
5.65505825230974,3.399609536962109,5.151354243913646,3.220437692700459
5.6890543476793605,3.3497864199088987,5.1835586208406506,3.40856578606254
5.722552211878449,3.292690572371414,5.217644278701276,3.6001796777737187
5.755479117602164,3.2283184230322175,5.253646075479013,3.7947191513276235
5.787762301832486,3.1567246418548724,5.291593266992289,3.991611118112534
5.8193295482510345,3.0780412269058486,5.331509378173415,4.190261324190965
5.8501099605200935,2.992499947913936,5.373411991415325,4.39004128249638
5.880034959999233,2.9004587089235936,5.417312404240288,4.590269099518162
5.90903954708847,2.802432442539451,5.46321509523547,4.7901827088548306
5.937063871513864,2.699129067733113,5.511116922324018,4.988904034097343
5.964055162191195,2.591490709931107,5.561005962664992,5.185392939117334
5.989970069290506,2.480739610957543,5.612859892056165,5.378390729577566
6.014777465400082,2.3684266943364434,5.666643799351941,5.5663547867021546
6.038461732343446,2.2564783065749032,5.722307347218962,5.747389049662007
6.061026515409195,2.147233001234655,5.779781237715582,5.919179858012786
6.082498845421542,2.043455447489371,5.83897303629571,6.078953088589954
6.102933399896435,1.9483094220327828,5.899762567181609,6.223475619089447
6.122416494116763,1.8652684087344613,5.961997323372504,6.349129346204904
6.141069178204107,1.797944120135133,6.025488616834553,6.45208467030422
6.159048619405459,1.7498246165813955,6.090009463537595,6.528586757820485
6.1765468655712725,1.723937274013606,6.1552953311158,6.575338361268091
6.193786238311408,1.7224843933003207,6.221048714728481,6.589921533772575
6.211011082244411,1.74652849784435,6.286947930066207,6.571163067789787
6.2284763672228545,1.795812019119422,6.3526595607441045,6.519338713374272
6.2464344874140485,1.8687691994064999,6.417852947877847,6.436145813690911
6.265122179408113,1.9627323239709302,6.482214406014756,6.324445087699884
6.284749502647823,2.0742753748118523,6.545458856891755,6.1878463073438565
6.305492256395941,2.1996050470855004,6.607337319965193,6.0302520185871815
6.327488306866796,2.3349140009599907,6.6676398401510655,5.855463637428625
6.350837446876396,2.476643644896699,6.726194476525352,5.666910355419681
6.375603883325363,2.621642227678759,6.782863580079549,5.467511683203223
6.4018203056021505,2.7672319947143222,6.837538696911581,5.25965010120469
6.429492625549294,2.911211561536728,6.8901351979236285,5.045216702212636
6.458604741164661,3.051819905473472,6.940587364945755,4.825694562312784
6.489122940219396,3.1876825092991137,6.988844310568883,4.602253638476306
6.520999765312387,3.3177529813375757,7.034866846953646,4.375841087900614
6.554177295125762,3.4412574122000072,7.078625257832652,4.147259020671921
6.5885898692477625,3.5576445415247426,7.120097848039371,3.917227112623535
6.62416631466301,3.6665423239376724,7.159270119165606,3.686430611985377
6.660831737902387,3.7677202326241277,7.196134425285459,3.4555557709393514
6.698508940228629,3.8610561652010698,7.2306899829948525,3.225315247044172
6.737119501880639,3.9465067808611347,7.262943135465294,2.996465990315956
6.77658456968925,4.024080283714545,7.292907795368453,2.7698218264142134
6.816825372526395,4.093810953997749,7.320606013632595,2.5462625051389836
6.857763482066373,4.1557350599828125,7.346068638683985,2.3267404661089985
6.899320832666201,4.209868142148901,7.369336043345075,2.1122859944162005
6.94141951408769,4.256184051331875,7.390458903289237,1.9040107921241556
6.983981354601009,4.29459655335697,7.409499011210478,1.7031092699604105
7.026927320134579,4.3249447833348516,7.426530103910082,1.5108560798202673
7.0701767679679275,4.346984315088923,7.441638664708285,1.328597617275416
7.113646611118817,4.360386029505284,7.454924640881039,1.1577345469549944
7.15725047141387,4.364745179766329,7.466501986350589,0.9996920557863145
7.200897923211533,4.3596028534814915,7.476498906908452,0.8558748250885533
7.244493951746348,4.344481176086674,7.485057655159337,0.7276049833087321
7.287938763507214,4.318931887569335,7.492333704992424,0.6160438292207694
7.331128082382908,4.282595346674676,7.498494143284631,0.522101887348413
7.373954035849655,4.235263919920219,7.503715162158115,0.4463463387164684
7.416306675048857,4.176940888250657,7.50817862554528,0.38891888465432745
7.458076083931364,4.107884565456338,7.5120678143918225,0.34947901970343637
7.499154929585927,4.028628295871007,7.515562604588857,0.327186030937013
7.539441212544637,3.939970740028306,7.5188344648982275,0.3207273217218179
7.57884091994492,3.842936627367711,7.522041738115446,0.32839200045465977
7.617270286218597,3.738714229128714,7.525325658119993,0.3481796396028862
7.654657428509884,3.628580185850792,7.528807454516022,0.37792764237209625
7.690943230368392,3.513823691175329,7.532586730939743,0.4154386971462923
7.726081467280145,3.395680318629606,7.536741117911205,0.45859244931130705
7.760038270466441,3.275282035658182,7.541327042404318,0.5054312124454126
7.792791090823023,3.1536256928951953,7.546381354528772,0.5542160267534451
7.824327347751975,3.0315587628596568,7.551923514796306,0.6034547719720916
7.854642935380571,2.909778949149495,7.557958062516027,0.6519074126287796
7.883740724872066,2.788843496725298,7.564477136642315,0.6985747688803927
7.911629159839319,2.6691842432988033,7.571462884331119,0.742676990148883
7.938321002272307,2.5511252050584634,7.578889654232608,0.7836268361723797
7.963832254322892,2.4349004105249246,7.586725922594332,0.8210015070658294
7.988181258428141,2.320670548181131,7.5949359376649905,0.8545154731290955
8.011387963909952,2.208537668484987,7.603481092396281,0.8839957096912298
8.033473340594801,2.0985576575349727,7.612321049493193,0.9093599844597023
8.054458917170152,1.990750502428688,7.62141464933779,0.9305983456796241
8.074366422194439,1.8851085382249535,7.630720632794587,0.9477576623000084
8.09321750757669,1.7816029443875327,7.640198209417587,0.9609289133734866
8.111033537020564,1.6801887784055671,7.649807498551322,0.9702368633822551
8.12783542480462,1.5808088207361994,7.659509867185145,0.9758317558235041
8.14364351301198,1.4833964750267905,7.66926818474338,0.9778826834892939
8.158477477762249,1.3878779312302227,7.679047011578273,0.9765723338824526
8.17235625707455,1.2941737627942718,7.688812734917097,0.9720928521660883
8.185297994702493,1.2022000957410182,7.6985336634387584,0.964642606435717
8.197319995659903,1.1118694585070419,7.708180089503116,0.9544236782349867
8.208438690244973,1.0230913971955746,7.717724326285466,0.9416399341026898
8.21866960421693,0.9357729211465153,7.727140725626493,0.9264955614793264
8.228027333428395,0.8498188279506117,7.736405681241286,0.9091939749336386
8.236525521707902,0.7651319446283359,7.745497620990623,0.8899370170110994
8.244176841154186,0.6816133120812097,7.754396991160734,0.8689243927183183
8.250992974274999,0.5991623325794807,7.763086235087917,0.8463532883621534
8.256984597600793,0.5176768945254071,7.771549767971538,0.8224181347070431
8.262161366546048,0.4370534846529864,7.779773949318608,0.7973104816587266
8.266531901392577,0.35718729489118384,7.787747054135195,0.7712189573019264
8.27010377434149,0.27797232908994896,7.795459243708215,0.7443292884113781
8.272883497632389,0.19930151350170444,7.802902536592328,0.7168243627505503
8.274876512767406,0.12106681418581296,7.810070780219834,0.6888843157446204
8.276087180909265,0.04315936425761133,7.81695962337728,0.660686625590613
8.27651877455184,-0.03453039593397429,7.823566489633186,0.6324062016355367
8.2761734705925,-0.11211256209023507,7.829890551649541,0.604215450967507
8.275052344971598,-0.18969758823113314,7.835932706159216,0.5762843076523103
8.273155369089286,-0.26739608226811695,7.841695549235739,0.5487802079125741
8.270481408266605,-0.34531856764900465,7.8471833513148646,0.5218679927733623
8.267028222590115,-0.4235752019173156,7.852402031242598,0.49570971725612034
8.262792470570941,-0.5022754406951019,7.857359128415159,0.47046434205155635
8.25776971616399,-0.581527632816637,7.8620637718356745,0.4462872796965526
8.251954439835824,-0.6614385290703267,7.86652664463264,0.4233297625816186
8.245340054545121,-0.7421126832174785,7.870759942258457,0.4017379946047858
8.237918927712947,-0.823651719641789,7.874777322204505,0.3816520419874753
8.22968241051653,-0.9061534371784417,7.87859384262438,0.3632044117721394
8.220620876144745,-0.9897107134845773,7.882225886742101,0.34651825904118283
8.210723769009899,-1.074410168964491,7.885691069332513,0.3317051563206543
8.199979667320255,-1.1603305441424454,7.889008120895719,0.3188623516107591
8.18837636187883,-1.2475407401137093,7.892196744411827,0.3080694360385283
8.175900954477694,-1.3360974692622039,7.8952774387722116,0.2993843397802916
8.162539979785072,-1.4260424642096885,7.898271282170015,0.2928385778359302
8.148279555142974,-1.5173991989009008,7.901199667948374,0.2884316784529264
8.133105563153965,-1.6101690894088243,7.904083984732903,0.28612475043711055
8.117003872259877,-1.704327166696676,7.906945232237274,0.28583318615627007
8.09996060059291,-1.799817252968256,7.909803564098837,0.2874185604327691
8.081962428063227,-1.8965467313186435,7.912677749703165,0.29067987765406644
8.06299696075004,-1.9943810785257137,7.915584548479705,0.29534444533506715
8.043053149964782,-2.0931384344930217,7.9185379929330555,0.3010588142643666
8.022121765619852,-2.192584606762407,7.921548581075699,0.307380419813682
8.000195919552228,-2.2924290460515033,7.924622385273836,0.3137707731667241
7.977271629091713,-2.3923224613206826,7.927760093005504,0.31959125893038515
7.953348404478506,-2.4918568418132243,7.930956005594807,0.32410275425858776
7.928429836060373,-2.590568679443214,7.934197033137393,0.32647033556127114
7.9025241492659415,-2.687946092090504,7.937461736493006,0.32577421366850184
7.875644688345036,-2.783440295112872,7.940719478629691,0.32102767390982495
7.847810285393908,-2.8764814335809237,7.9439297553687895,0.3112021603672923
7.819045471058098,-2.9664981904119028,7.947041776972463,0.2952587582619988
7.789380489153979,-3.05293990024648,7.949994364555083,0.27218430095877394
7.758851090151515,-3.135299256332669,7.952716207564671,0.24102934762632194
7.727498097588188,-3.2131332621483466,7.955126501040934,0.20094458480806776
7.695366764966704,-3.2860800022965284,7.957135946889014,0.1512120252981407
7.662505964943739,-3.3538691693600913,7.958648067141996,0.09126783734365171
7.6289672732501375,-3.416325052239737,7.959560745515432,0.02071469962719706
7.5948040227277405,-3.4733617156506873,7.959767892511704,-0.06067696730451208
7.560070405571234,-3.524971152104928,7.959161122838659,-0.15297801971962505
7.5248206940501845,-3.5712060368948566,7.957631342641463,-0.25611773045277103
7.489108633681236,-3.6121592047324795,7.955070165336935,-0.3699061700151728
7.452987041633912,-3.6479420475358193,7.951371103636784,-0.4940587826398735
7.416507621158553,-3.6786637677625533,7.946430515810385,-0.6282204518021042
7.379720983480928,-3.7044129393821397,7.940148311292364,-0.7719870217248204
7.342676854087106,-3.7252422729391643,7.932428441075116,-0.9249230408595841
7.305424431357714,-3.7411569695085607,7.92317921066652,-1.086575250169572
7.268012861662629,-3.7521066511330536,7.9123134581648245,-1.2564819468735668
7.230491795151298,-3.7579805962203725,7.899748638696089,-1.4341787721533135
7.192911989189095,-3.7586058766052,7.885406850974555,-1.6192017072299174
7.155325930423043,-3.7537479592672414,7.869214833902256,-1.8110881513792276
7.11778845083037,-3.74311336567057,7.851103952388463,-2.0093769413847293
7.0803573171736645,-3.726354044502957,7.831010182974616,-2.2136080941653304
7.043093776728635,-3.7030731859354757,7.808874102032963,-2.4233229426748486
7.00606304486928,-3.6728322724160534,7.784640872606214,-2.638065208588736
6.96933472214512,-3.6351592149251966,7.758260220520327,-2.8573834232420188
6.9329831299958675,-3.5895574630511775,7.7296863862879075,-3.0808349730591216
6.8970875553653554,-3.535516005438729,7.698878036557316,-3.307991904610149
6.861732395310968,-3.472520201357041,7.665798117511215,-3.5384484712142714
6.827007193297398,-3.4000634153141602,7.630413632799072,-3.7718302285416296
6.793006559144256,-3.3176594799591665,7.5926953305136555,-4.007804278440053
6.759829964344664,-3.2248561082253553,7.552617287729255,-4.246090000815523
6.727581403262411,-3.1212495407584813,7.5101563877211,-4.486469277648029
6.696368907854826,-3.006500985100886,7.46529169494462,-4.728794763901813
6.666303898003817,-2.880355826645192,7.418003747305602,-4.972994142180885
6.6375003397373655,-2.7426672305559183,7.368273805883793,-5.21906743207501
6.610073667431807,-2.593426687228366,7.316083131563043,-5.467073202079091
6.584139400559523,-2.4328053709911837,7.261412399542252,-5.717097814753328
6.559811346849611,-2.261211961095494,7.204241421394719,-5.969199483242109
6.5371992272386565,-2.0793748196632804,7.144549426562298,-6.223315861476032
6.516405479042024,-1.8884589111964518,7.0823162679475375,-6.4791203329726
6.497520889930059,-1.6902298096045005,7.017525064617812,-6.735809007990856
6.4806185918340145,-1.4872766289800516,6.950166974537903,-6.991800134335926
6.4657458255442135,-1.2832986247753677,6.8802489731945435,-7.244335553606618
6.452912839296459,-1.0834391519457771,6.807805617658477,-7.488999924725302
6.442078447777002,-0.8946051563846459,6.732915618411225,-7.719232142856521
6.433132396213155,-0.7256323815928757,6.65572329698266,-7.92600653228463
6.425876072397227,-0.587058230639173,6.5764632316598135,-8.097994357645266
6.420005490090835,-0.49021037457110467,6.495483288083361,-8.222594212725387
6.415103386345124,-0.4454440205597561,6.413257345956107,-8.288063588951125
6.410648946139527,-0.4597856076429416,6.330376710066596,-8.286429509559355
6.406051090063097,-0.5348388109663476,6.247512414971003,-8.21607150955139
6.400702701953434,-0.6660585951095706,6.165351699875489,-8.082550538266432
6.394042116002338,-0.8439114193416739,6.084526194492825,-7.897045188019303
6.385603001808922,-1.0563317256296711,6.005555742612632,-7.673208762219522
6.3750396845526245,-1.291246703574111,5.9288236549904365,-7.4240567695726165
6.362127217516884,-1.5382484050860104,5.85458308729471,-7.160039268528563
6.346744733466023,-1.7892313793662105,5.782982694609425,-6.888465688239311
6.328852419672361,-2.038307710849215,5.714098037727031,-6.613825555294568
6.308469342563869,-2.2813967869046987,5.647959782174086,-6.338471247073729
6.285655374694822,-2.5157604244822735,5.584575069703348,-6.063317572256382
6.260497770449999,-2.739608157426449,5.523941893980784,-5.788411032589437
6.233101688875735,-2.9518047696689087,5.46605778365489,-5.5133409372463165
6.203583641179046,-3.1516701602785986,5.410924374282426,-5.237514687169904
6.1720669395762595,-3.33884920001969,5.358549227410727,-4.960331492955037
6.138678447576063,-3.5132297607826937,5.308945912481176,-4.681285240674725
6.103546149968236,-3.67489167374118,5.262133060074429,-4.400019710614268
6.066797233230824,-3.8240742509135948,5.218132862968287,-4.116352399253792
6.028556490721688,-3.961153990599689,5.1769693389757485,-3.830277990736262
5.988944950815691,-4.086627016777681,5.138666559068386,-3.5419590059139274
5.948078680647915,-4.201092840831457,5.103246969009247,-3.251708918665698
5.9060677522396,-4.305237396547065,5.07072987982259,-2.9599716636199465
5.863015378274129,-4.399814165847408,5.0411301631863905,-2.6673006542225672
5.819017236615655,-4.485622713508188,5.0144571566441645,-2.3743399724567382
5.774161009480573,-4.563484174953552,4.990713756919597,-2.0818101470356085
5.7285261677310375,-4.634213258503604,4.969895655449241,-1.79050082343251
5.682184035146001,-4.698586189078903,4.951990647214916,-1.5012725908143731
5.635198173255212,-4.757303797924403,4.936977921306772,-1.2150702105384565
5.587625135275968,-4.810948742679039,4.924827219201387,-0.9329493962589357
5.539515647849178,-4.859935769160018,4.915497725238798,-0.6561189558455724
5.490916290157577,-4.9044542389010894,4.9089365356803425,-0.3859992130293876
5.441871747768567,-4.944403220937907,4.905076543550049,-0.12429567527208951
5.3924277155591875,-4.979321824167486,4.903833586797328,0.12691683814763433
5.342634497317513,-5.008321782774485,4.905102755178804,0.36511084315253417
5.292551279489768,-5.030036109622746,4.90875386361033,0.5872446631217454
5.24225091839354,-5.042606601569229,4.914626310241547,0.7897564496749012
5.191824852377848,-5.043741819735439,4.922523874738296,0.9686596333432009
5.141387434180493,-5.030880199681571,4.932210471071728,1.119789150054305
5.091078632183677,-5.0014810146642645,4.943408362572271,1.2392295111741307
5.041063822037035,-4.953430389374045,4.955800657684012,1.3239036587746245
4.991529518143294,-4.885492315955927,4.969039694271759,1.3722187114001871
