th1 (rad),w1 (rad/s),th2 (rad),w2 (rad/s),a1 (rad/s^2),a2 (rad/s^2)
3.2551699592465617,1.1542352907846114,2.28932172921954,1.830830845732161,1.811212627310128,-7.31146343099185
3.2667123121544077,1.1723474170577126,2.3076300376768617,1.7577162114222424,2.0587032191093853,-7.31496136479439
3.2784357863249847,1.1929344492488065,2.325207199791084,1.6845665977742985,2.29673055107858,-7.31071496145995
3.290365130817473,1.2159017547595923,2.342052865768827,1.611459448159699,2.5253812137890144,-7.298268855820074
3.3025241483650687,1.2411555668974825,2.358167460250424,1.5384767596014983,2.744754886578076,-7.277149245963477
3.3149357040340437,1.2686031157632633,2.3735522278464387,1.4657052671418636,2.954963527550592,-7.246865985844162
3.327621735191676,1.2981527510387694,2.388209280517857,1.393236607283422,3.1561309134842714,-7.206914460727083
3.340603262702064,1.3297140601736122,2.4021416465906915,1.3211674626761511,3.3483926433917386,-7.156777446219345
3.3539004033038,1.3631979866075294,2.415353321217453,1.2495996882139577,3.53189671545704,-7.095927139339322
3.367532383169875,1.3985169537620998,2.4278493180995926,1.1786404168205644,3.706804772058755,-7.023827523062525
3.3815175527074963,1.4355850014826874,2.4396357222677985,1.1084021415899392,3.8732940818975776,-6.939937184501926
3.3958734027223234,1.4743179423016632,2.450719743683698,1.03900276974492,4.031560292919655,-6.8437126528444105
3.41061658214534,1.5146335452308597,2.4611097713811474,0.9705656432164759,4.181820946593321,-6.734612258958624
3.4257629175976487,1.5564517546967929,2.4708154278133123,0.9032195206268896,4.324319695695467,-6.612100447803787
3.4413274351446166,1.5996949516537475,2.479847623019581,0.8370985161488518,4.459331117239201,-6.475652401854964
3.457324384661154,1.6442882628261395,2.4882186081810698,0.7723419921303021,4.587165963104617,-6.324758763795173
3.473767267289415,1.6901599224571857,2.4959420281023728,0.7090944044923504,4.708176647099302,-6.1589301850906315
3.490668866513987,1.7372416889281788,2.503032972147296,0.6475051026414441,4.822762732271868,-5.977701379049665
3.508041283403269,1.7854693162508974,2.509508023173711,0.5877280888509475,4.9313761596188135,-5.780634327308491
3.525895976565778,1.8347830778470855,2.5153853040622205,0.5299217455778626,5.034525951407474,-5.567320281111798
3.5442438073442486,1.8851283373611603,2.520684521517999,0.47424854276674466,5.132782130673102,-5.33738021553736
3.56309509071786,1.9364561586678912,2.525427006945667,0.4208747406113711,5.226778623218978,-5.090463436439174
3.582459652304539,1.988723944900081,2.5296357543517805,0.36997010624697935,5.317214948390304,-4.826244104870906
3.6023468917535397,2.041896094383984,2.5333354554142504,0.32170766519827027,5.4048565572931375,-4.5444155286657715
3.6227658526973796,2.0959446599569156,2.536552532066233,0.2762635099116125,5.490533737981929,-4.244682170547396
3.643725299296949,2.150849997336735,2.5393151671653493,0.23381668820613857,5.575139071451931,-3.9267494302376846
3.6652337992703163,2.2066013880512543,2.541653334047411,0.19454919390376174,5.659623484500941,-3.5903113675121245
3.6872998131508288,2.263197622896264,2.5435988259864484,0.1586460802286405,5.744991000078352,-3.235036637162483
3.7099317893797914,2.3206475328970475,2.5451852867887346,0.12629571385701566,5.832292327498616,-2.8605529993795313
3.733138264708762,2.3789704561720337,2.546448243927305,0.09769018386322034,5.922617459671403,-2.4664308457316526
3.7569279692704822,2.438196630768748,2.547425145765937,0.07302587540590381,6.0170874493710835,-2.0521662392965165
3.78130993557817,2.4983675052624585,2.548155404519996,0.052504213012938644,6.116845520063304,-1.6171640075004572
3.8062936106307945,2.5595359604630916,2.5486804466501254,0.03633257293793407,6.22304762891238,-1.1607214500143483
3.8318889702354255,2.6217664367522153,2.5490437723795045,0.024725358437790588,6.336852541600881,-0.6820132358483931
3.858106634602948,2.6851349621682243,2.5492910259638824,0.017905226079306655,6.45941140282414,-0.18007806934274076
3.8849579842246302,2.749729076196466,2.5494700782246755,0.016104445385879247,6.591856695794638,0.3461922892161964
3.912455274986595,2.815647643154412,2.549631122678534,0.019566368278041212,6.7352903821809536,0.8980610491112501
3.940611751418139,2.8830005469762217,2.5498267863613147,0.028546978769153714,6.890770904075823,1.4769508339983377
3.969441756887901,2.95190825601698,2.5501122561490064,0.04331648710913709,7.0592986152294985,2.0844438718941545
3.998960839448071,3.022501242169275,2.550545421020098,0.06416092582807864,7.241799093211663,2.7222771853807988
4.029185851869764,3.0949192331013915,2.5511870302783786,0.09138369768188663,7.43910367077889,3.3923319408451085
4.060135044200778,3.16931026980918,2.5521008672551972,0.1253070170903377,7.651926417355221,4.096615995001179
4.0918281468988695,3.2458295339827323,2.5533539374261007,0.1662731770403495,7.880836704943016,4.837238536380439
4.124286442238697,3.3246379010321623,2.555016669196504,0.2146455624041539,8.126226413306531,5.616375567342881
4.157532821249019,3.4059001651652276,2.5571631248205455,0.2708093180775827,8.38827077555797,6.436224821797432
4.191591822900671,3.489782872920807,2.5598712180013212,0.335171566295557,8.666881849042868,7.298948584404566
4.226489651629879,3.576451691411236,2.5632229336642767,0.40816105213960263,8.961653633148702,8.206602794602365
4.262254168543992,3.666068227742723,2.5673045441856726,0.49022708008562627,9.271797965057322,9.161050817086561
4.2989148508214186,3.758786207393296,2.572206814986529,0.5818375882564919,9.596070530503475,10.163860381270018
4.336502712895352,3.8547469126983307,2.5780251908690937,0.6834761920691921,9.932686656841573,11.216182485340731
4.375050182022335,3.9540737792667464,2.5848599527897855,0.7956380169225994,10.279227039519531,12.318611581206738
4.414590919815002,4.0568660496619415,2.5928163329590115,0.9188241327346668,10.632534218300432,13.471027161842393
4.455159580311622,4.163191391844946,2.602004574286358,1.0535344043530908,10.988601487494561,14.672418013637715
4.496791494230071,4.273077406719891,2.612539918329889,1.200258584489468,11.342457002306146,15.920691907832987
4.53952226829727,4.386501976742953,2.6245425041747836,1.3594655035677978,11.688047114989956,17.21247538950184
4.583387288064699,4.503382447892853,2.6381371592104617,1.5315902574628162,12.01812438952296,18.542910531483557
4.628421112543628,4.623563691788083,2.6534530617850898,1.7170193627776518,12.324147207052828,19.905457934575395
4.6746567494615086,4.746805163858611,2.6706232554128664,1.9160739421234056,12.596199240018219,21.291717665512902
4.722124801100095,4.872767156258793,2.6897839948341002,2.1289911187785346,12.822938143049958,22.691281924320418
4.770852472662683,5.000996537689293,2.711073906021886,2.355903938021739,12.99158334847653,24.091634627449555
4.820862438039576,5.130912371174058,2.734632945402103,2.5968202842962347,13.08795262218691,25.47811333604371
4.872171561751316,5.261791897395927,2.7606011482450654,2.851601417656672,13.096555836454195,26.83394762397046
4.924789480725275,5.392757455760469,2.789117162421632,3.1199408938963766,13.00075217161794,28.1403847733118
4.97871705528288,5.5227649774766485,2.8203165713605958,3.4013447416294946,12.782973785791484,29.37690858002502
5.033944705057647,5.650594715334563,2.8543300187768907,3.695113827429745,12.425015271756127,30.521550432432402
5.0904506522109925,5.774844868052124,2.8912811570511883,4.0003293317540685,11.908384622560513,31.551284581040044
5.148199100891514,5.893928714277729,2.9312844503687288,4.315842177564469,11.214708861031395,32.4424930533951
5.207138388034291,6.006075802888043,2.9744428721443734,4.64026710809842,10.326186949354373,33.17148175523763
5.267199146063172,6.109337672381587,3.0208455432253576,4.971981925650796,9.226084902318643,33.7150297596535
5.328292522786988,6.201598521404773,3.0705653624818656,5.309132223247332,7.899273472247686,34.05095999711885
5.390308508001036,6.28059125612725,3.123656684714339,5.64964182321852,6.332816737213133,34.15873186347148
5.453114420562309,6.343919423499382,3.180153102946524,5.991229141853235,4.516628568531175,34.02007339202435
5.516553614797303,6.389085709184694,3.240065394365056,6.331429875773479,2.4442200932608418,33.61968931625638
5.58044447188915,6.413527910117303,3.303379693122791,6.667626768936042,0.11356055365830994,32.94609625934874
5.644579750990323,6.414663515653886,3.3700559608121514,6.99708773152953,-2.4719385015440847,31.992640539810093
5.708726386146862,6.389944130638445,3.4400268381274466,7.3170141369276305,-5.302334298049156,30.75874037630039
5.772625827453246,6.336920787657953,3.513196979496723,7.624601540690635,-8.360024464197435,29.251356790724728
5.835995035329826,6.253320543015979,3.5894429949036293,7.917115108597882,-11.618706999895474,27.486634499444577
5.898528240759986,6.137133473017024,3.668614145989608,8.191981453592328,-15.042626054021076,25.49157078403104
5.959899575490156,5.986707212476813,3.7505339605255315,8.44689716143264,-18.586361556464446,23.30548133385886
6.019766647614924,5.800843596912169,3.835002932139858,8.679951974771228,-22.195449475523596,20.980961675054793
6.077775083584045,5.578889102156933,3.9218024518875705,8.889761591521776,-25.808091661451215,18.584021770076
6.1335639746056145,5.320808185542421,4.010700067802788,9.075601809222535,-29.35811182962319,16.193128682279198
6.186772056461039,5.027227067246189,4.1014560858950135,9.237533096045327,-32.77913665243073,13.897043052188716
6.237044327133501,4.699435700721882,4.193831416855467,9.376503526567214,-36.0097539447584,11.791568888174586
6.28403868414072,4.339338161274298,4.287596452121139,9.49441921544896,-38.9991765723643,9.975610767698035
6.327432065753463,3.9493463955506547,4.382540644275629,9.59417532312594,-41.7127896625191,8.5471814142832
6.366925529708969,3.532218498925464,4.478482397506888,9.679647137268772,-44.13694113922561,7.600155311823432
6.402247714698224,3.0908490875332078,4.575278868879576,9.755648690387005,-46.282478870376956,7.2225736102443
6.433156205573556,2.628024298829438,4.672835355783446,9.827874426489448,-48.186818177789235,7.497169385512522
6.45943644856185,2.1461561170515457,4.771114100048341,9.902846120344574,-49.914667604491626,8.504542299171515
6.480898009732366,1.6470094410066296,4.870142561251787,9.98789154333629,-51.55784152627511,10.329127205086392
6.497368104142432,1.1314310257438784,4.97002147668515,10.091182815387153,-53.23471773416756,13.067792650841048
6.508682414399871,0.5990838484022029,5.070933304839022,10.221860741895563,-55.08968369440056,16.840458371258762
6.5146732528838935,0.04818701145819726,5.173151912257977,10.390265325608151,-57.29201820908557,21.80109919124212
6.515155122998475,-0.5247331706326585,5.277054565514059,10.608276317520573,-60.03123091598523,28.14469834295033
6.509907791292149,-1.1250454797925107,5.383137328689265,10.889723300950077,-63.499718249193165,36.09799323073331
6.498657336494224,-1.7600426622844423,5.492034561698765,11.250703233257411,-67.83803278059347,45.86128101228568
6.48105690987138,-2.438422990090377,5.604541594031339,11.709316043380268,-72.97961073810606,57.41610996756224
6.456672679970476,-3.1682190974714377,5.721634754465142,12.28347714305589,-78.24435549655823,69.99194832277473
6.424990488995761,-3.95066265243702,5.8444695258957005,12.983396626283637,-81.3816098043213,80.77246275003789
6.385483862471391,-4.764478750480233,5.974303492158537,13.791121253784016,-76.79959581370677,82.45056379400786
6.337839074966588,-5.5324747086173005,6.1122147046963775,14.615626891724094,-54.4346094819305,61.56983349051174
6.282514327880415,-6.076820803436606,6.258370973613618,15.231325226629211,-6.717783294540085,7.850454163542108
6.221746119846049,-6.1439986363820065,6.41068422587991,15.309829768264633,51.59343612616779,-59.011211671891076
6.160306133482229,-5.6280642751203285,6.563782523562557,14.719717651545722,87.86088227561476,-95.95592479818241
6.104025490731026,-4.749455452364181,6.710979700078014,13.760158403563898,94.61481942071794,-94.64723810489204
6.056530936207384,-3.8033072581570018,6.848581284113653,12.813686022514977,87.74036654884992,-77.17429432388933
6.018497863625814,-2.9259035926685026,6.976718144338802,12.041943079276084,78.70984946700683,-58.52535860836807
5.989238827699129,-2.1388050979984343,7.097137575131563,11.456689493192403,71.15997707604222,-42.9937064365974
5.967850776719144,-1.427205327238012,7.211704470063487,11.026752428826429,65.56444051642956,-30.832170192874603
5.953578723446764,-0.7715609220737165,7.321971994351752,10.718430726897683,61.59375508333914,-21.410507344769464
5.945863114226027,-0.1556233712403251,7.429156301620728,10.504325653449989,58.81858610086647,-14.093256644606512
5.944306880513624,0.43256248976833955,7.534199558155228,10.363393087003924,56.86773489993697,-8.404354658972089
5.948632505411307,1.0012398387677093,7.637833489025267,10.279349540414204,55.44307604145721,-4.0180340517627355
5.958644903798985,1.5556705991822812,7.740626984429409,10.239169199896576,54.30516499985073,-0.7200302532755302
5.974201609790807,2.0987222491807884,7.8430186764283745,10.23196889736382,53.2582732872121,1.628273474285242
5.995188832282615,2.6313049820529093,7.945338365402013,10.248251632106673,52.140717631359976,3.118087812369586
6.021501882103144,3.152712158366509,8.04782088172308,10.279432510230368,50.820516956744974,3.8150285398686523
6.0530290036868095,3.6609173279339586,8.150615206825384,10.317582795629054,49.19502662243547,3.7760452050188404
6.089638176966149,4.152867594158313,8.253791034781674,10.355343247679242,47.19287722670983,3.0622562002672242
6.131166852907732,4.624796366425412,8.357344467258466,10.385965809681915,44.77647326888501,1.7477514088416783
6.177414816571987,5.072561099114262,8.461204125355286,10.403443323770333,41.94339490988135,-0.07594161987043373
6.22814042756313,5.4919950482130755,8.56523855859299,10.402683907571628,38.72537196130582,-2.2999449246856725
6.283060378045261,5.879248767826134,8.669265397668706,10.379684458324771,35.184105411060145,-4.802398725046016
6.3418528657235225,6.231089821936735,8.773062242251953,10.331660471074311,31.40401983258895,-7.456134205252827
6.40416376394289,6.545130020262625,8.876378846962696,10.257099129021784,27.482839124822185,-10.138034178371568
6.469615064145517,6.8199584115108465,8.978949838252914,10.155718787238069,23.521440961729418,-12.738166777237415
6.537814648260625,7.05517282112814,9.080507026125295,10.028337119465695,19.61458448679618,-15.166963246652948
6.608366376471906,7.251318665996102,9.180790397319951,9.876667486999166,15.843801787165138,-17.35932499464864
6.680879563131867,7.409756683867753,9.279557072189943,9.703074237052679,12.273141377565274,-19.275363865904236
6.754977129970545,7.532488097643406,9.37658781456047,9.510320598393637,8.947782626589241,-20.898227851043018
6.830302010946979,7.621965923909299,9.471691020544405,9.301338319883207,5.895012438023689,-22.229939900899666
6.906521670186072,7.680916048289536,9.564704403743237,9.079038920874211,3.1267791370787683,-23.286316516088192
6.983330830668967,7.712183839660323,9.655494792951979,8.846175755713329,0.6430110851532812,-24.09189692724697
7.06045266906557,7.718613950511856,9.743956550509113,8.60525678644086,-1.564967345387143,-24.67552759947964
7.1376388085706886,7.702964277057985,9.830009118373521,8.358501510446063,-3.511369398336052,-25.066932903894347
7.214668451341268,7.667850583074625,9.913594133477982,8.107832181407119,-5.213458989496277,-25.294342809077214
7.291346957172014,7.615715993179662,9.994672455292054,7.854888753316347,-6.68970345206872,-25.383075969087717
7.367504117103811,7.548818958658974,10.073221342825217,7.60105799362547,-7.958517355172965,-25.354889296872653
7.442992306690401,7.469233785107245,10.149231922761471,7.347509100656743,-9.037493919818099,-25.22788238245893
7.517684644541474,7.378858845909064,10.222707013768039,7.095230276832154,-9.943004722470173,-25.016762209542865
7.591473233000564,7.279428798684362,10.29365931653636,6.845062654736725,-10.690056044817334,-24.733309681027887
7.664267520987408,7.172528238236189,10.362109943083727,6.597729557926446,-11.29230910963204,-24.38693021090897
7.735992803369769,7.059605147139869,10.428087238662991,6.353860255817356,-11.762193393159935,-23.985208000752095
7.806588854841168,6.941983213208269,10.491625841221165,6.114008175809835,-12.11106266694104,-23.534414084316452
7.87600868697325,6.820872586538859,10.552765922979264,5.878664034966671,-12.34936038325004,-23.03994110854222
7.944217412838639,6.697378982706359,10.61155256332893,5.648264623881249,-12.486774015605436,-22.506653894477335
8.011191202665703,6.572511242550304,10.668035209567742,5.423198084936476,-12.532367339387624,-21.939155417201416
8.076916315091205,6.447187569156427,10.722267190417107,5.203806530764462,-12.494686048327864,-21.34197434070424
8.14138819078277,6.3222407086731485,10.774305255724752,4.990386787357419,-12.38183625898512,-20.71968383827432
8.204610597869502,6.198422346083297,10.824209123598326,4.783189948974676,-12.201537982826645,-20.07696305689725
8.266594821330335,6.07640696625503,10.872041023088073,4.5824203184057035,-11.961157041306334,-19.418612928652713
8.327358890992885,5.956795395841967,10.91786522627213,4.388234189119176,-11.66771953210723,-18.74953756770136
8.386926844951304,5.8401182005208945,10.961747568163322,4.200738813442163,-11.327913084957386,-18.074701536552297
8.445328026956513,5.72683906967132,11.003754956297744,4.0199917980766395,-10.948078951418816,-17.399072029919164
8.502596417653226,5.6173582801571325,11.04395487427851,3.846001077777448,-10.534198575342032,-16.72755364815186
8.558770000454798,5.512016294403712,11.082414885056284,3.678725541295929,-10.091877771817522,-16.06492201103901
8.613890163398835,5.411097516685537,11.119202140469243,3.518076321185539,-9.626331061125272,-15.41576106661513
8.66800113856569,5.314834206074284,11.154382903681098,3.3639187105193873,-9.142368104284138,-14.784407631945404
8.721149480626433,5.223410525031443,11.188022090786292,3.2160746341999333,-8.6443836025191,-14.174905505238332
8.773383585876747,5.136966689006251,11.220182837128291,3.07432557914755,-8.13635148108752,-13.590970442049535
8.82475325276681,5.055603174195376,11.250926092919768,2.9384158747270543,-7.621823698569663,-13.035966413255899
8.875309284508763,4.979384937209679,11.280310251667037,2.8080562105944953,-7.10393361948756,-12.512892868676706
8.92510313388086,4.908345601014804,11.308390813772982,2.682927281907728,-6.585403567992986,-12.024382217138625
8.974186589891008,4.842491565334874,11.33522008659206,2.5626834597363417,-6.0685559442199395,-11.572706391664708
9.022611505544358,4.781806005892674,11.360846921189422,2.4469563958196945,-5.555327128202736,-11.159791180184625
9.070429565603284,4.726252734610647,11.38531648514762,2.3353584840178483,-5.047283310233104,-10.787236945514048
9.11769209294939,4.6757799015083155,11.408670069987798,2.2274861145627076,-4.545637359438921,-10.456344408486384
9.164449891964473,4.6303235279139265,11.430944931133425,2.122922670477844,-4.051265860870033,-10.168144299805212
9.210753127243613,4.589810869305226,11.452174157838202,2.0212412274797917,-3.5647255016927546,-9.923429875690177
9.256651235936666,4.554163614288298,11.472386570113,1.92200692872289,-3.0862680559480853,-9.722791518869471
9.302192872079548,4.523300933728818,11.49160663940023,1.8247790135341952,-2.615853292568414,-9.5666528928538
9.347425881416836,4.497142400803134,11.509854429535572,1.7291124846056571,-2.153159202286678,-9.455308370811304
9.392397305424867,4.475610808780267,11.52714555438163,1.6345594008975441,-1.6975889965338642,-9.38896171207813
9.43715341351267,4.458634918814929,11.543491148390604,1.540669783776763,-1.248274367588692,-9.367766204737066
9.481739762700819,4.4461521751390425,11.558897846228373,1.4469921217293922,-0.8040745073323776,-9.391866730824963
9.52620128445221,4.438111430065718,11.573367767445667,1.3530734544211425,-0.36357035579540853,-9.461444443962158
9.570582398752867,4.434475726507764,11.586898501989879,1.258459009981521,0.07494651578627662,-9.576764982902715
