th1 (rad),w1 (rad/s),th2 (rad),w2 (rad/s)
4.160369790592228,2.9758747447213674,5.6249919612655885,-2.0236525215446393
4.190128538039442,3.0817633864134586,5.604755436050142,-2.0629881809106885
4.220946171903576,3.1915611401616677,5.584125554241035,-2.11238049420339
4.252861783305193,3.30599915395779,5.5630017492990005,-2.172579771921364
4.2859217748447715,3.425897241028433,5.541275951579787,-2.2444504500809184
4.320180747255056,3.5521776380452965,5.518831447078978,-2.328985719853904
4.355702523635509,3.685878770894971,5.495541589880439,-2.4273211027876505
4.392561311344459,3.828167069058369,5.471268378852562,-2.5407439314687608
4.430842982035043,3.9803430270370077,5.445860939537875,-2.670692998955136
4.470646412305413,4.143834435146897,5.419154009548324,-2.8187378969215304
4.512084756656882,4.320163978585131,5.390966630579109,-2.986519341422339
4.5552863964427335,4.510868638097407,5.361101437164885,-3.1756178451592088
4.600395082823708,4.717332287767512,5.3293452587132935,-3.387295321177191
4.647568405701382,4.9404683238369635,5.295472305501521,-3.622019499419183
4.696973088939752,5.180156687738404,5.2592521105073295,-3.8786354551861
4.748774655817137,5.43431182865456,5.220465755955469,-4.153010188297272
4.803117774103682,5.69748174301416,5.178935654072496,-4.436011725257454
4.860092591533824,5.959072129080324,5.134575536819921,-4.710962511387406
4.919683312824627,6.201855015550667,5.087465911706047,-4.951512871781045
4.981701862980134,6.402432001902624,5.037950782988236,-5.122318140792559
5.04572618299916,6.53599885557614,4.986727601580311,-5.185866489316828
5.111086171554922,6.585862953860356,4.934868936687143,-5.116119428729278
5.1769448010935255,6.552660961276995,4.88370774239985,-4.91181019794626
5.242471410706296,6.455051026885122,4.834589640420388,-4.597689982303409
5.307021920975147,6.320467007549901,4.788612740597354,-4.211596188664574
5.3702265910506455,6.17406722888186,4.746496778710708,-3.7887732184082235
5.431967263339464,6.0331689149730865,4.708609046526626,-3.353821244173461
5.492298952489195,5.907241256998102,4.675070834084892,-2.9205003030645593
5.551371365059176,5.800189878824317,4.645865831054246,-2.4948430176866014
5.609373263847419,5.712640329574028,4.620917400877381,-2.078340736432475
5.666499667143159,5.6435104097242945,4.600133993513055,-1.670176284816941
5.722934771240403,5.590922864112064,4.583432230664886,-1.2685532173063419
5.7788439998815235,5.5526806162741815,4.570746698491822,-0.8714204242807893
5.834370806044265,5.526489999027473,4.5620324942490145,-0.476845484375315
5.8896357060345395,5.510050017550454,4.557264039405261,-0.08319844636518076
5.944736206210044,5.50107508082233,4.5564320549416095,0.3107622804149972
5.999746957018267,5.497287897304393,4.559539677745759,0.7058533222260334
6.054719835991311,5.496402133351116,4.566598210968019,1.1024547128324955
6.109683857324822,5.496105307324758,4.577622758096344,1.500512070186108
6.16464491039807,5.4940475856304625,4.592627878798205,1.8995483147840335
6.219585386254375,5.487839564937964,4.611623361946045,2.2986841467086068
6.274463781903754,5.475060629149113,4.634610203413131,2.6966680647256864
6.329214388195245,5.453278462782861,4.661576884060388,3.091917168228362
6.383747172823074,5.420079486703068,4.692496055742671,3.4825697700358824
6.437947967690104,5.37310922618985,4.72732175344303,3.8665502252590254
6.491679059952003,5.310120886108445,4.76598725569562,4.241645525457073
6.544780268813088,5.22902970322764,4.808403710950191,4.605592254652474
6.597070565845364,5.127970004462199,4.854459633496716,4.956171565895121
6.648350265889986,5.005351363230112,4.904021349155667,5.291309003917865
6.6984037795222875,4.859909858038936,4.956934439194846,5.609175341638489
6.747002878102677,4.69075024435545,5.013026192611231,5.908284173160627
6.793910380546231,4.497374903571621,5.072109034342837,6.187581866685743
6.838884129581947,4.279695783771268,5.133984853009695,6.446525683539702
6.8816810874196594,4.038026238019027,5.1984501098450915,6.685146471636246
6.92206134979985,3.773050707459027,5.2653015745614535,6.904093386431862
6.95979185687444,3.4857715427921976,5.334342508425772,7.104659582798604
6.994649572302362,3.1774337900186724,5.405389104253758,7.288789691996702
7.026423910202548,2.8494302976570007,5.478277001173725,7.459071998617731
7.054918213179119,2.503190811952824,5.5528677211599025,7.618720330684437
7.079950121298647,2.1400596236676033,5.629054924466747,7.771552478541377
7.101350717535323,1.7611667452510258,5.7067704492521605,7.921973126836025
7.118962384987833,1.367297694407199,5.785990180520521,8.074969405584234
7.132635361931905,0.9587672946833358,5.866739874576363,8.236125600461587
7.1422230348787386,0.5353047025863542,5.94910113058098,8.411659039783661
7.147576081904602,0.0959626167185802,6.033217720978816,8.60846890090715
7.148535708071788,-0.3609216753514415,6.119302409987887,8.83416743558315
7.144926491318273,-0.8376519084897887,6.207644084343719,9.097015393312128
7.136549972233375,-1.3368500992292505,6.29861423827684,9.405582019045646
7.123181471241082,-1.860598497025677,6.392670058467297,9.76774033206172
7.104575486270826,-2.4084682978180374,6.4903474617879136,10.188202959813523
7.080490803292646,-2.9733907077352795,6.592229491386049,10.663142232826145
7.050756896215293,-3.5339472199841446,6.69886091371431,11.169863662027382
7.015417424015451,-4.042885073401141,6.810559550334584,11.651087181921579
6.97498857328144,-4.418776895331779,6.9270704221537995,12.003049139570825
6.930800804328122,-4.56306970869721,7.0471009135495075,12.097698945168384
6.88517010724115,-4.422054052706948,7.168077903001191,11.865682961620744
6.84094956671408,-4.04422203629137,7.286734732617399,11.37244722995284
6.800507346351167,-3.5449402693116707,7.4004592049169275,10.76878706323506
6.76505794365805,-3.0224192283978453,7.508147075549278,10.178473139496724
6.7348337513740715,-2.526102493535591,7.609931806944245,9.658992272258969
6.709572726438716,-2.0711961958897454,7.706521729666835,9.223354553205235
6.688860764479818,-1.6574526669010643,7.798755275198888,8.865783356226931
6.672286237810807,-1.2795158728826763,7.887413108761157,8.575238216922948
6.65949107908198,-0.931187011863893,7.973165490930387,8.340651629580874
6.650179208963341,-0.6068784904873774,8.056572007226196,8.15248974965804
6.644110424058468,-0.3019709717250261,8.138096904722776,8.002958263686269
6.6410907143412174,-0.01279067353907043,8.218126487359639,7.885787845228859
6.640962807605827,0.26352052583806174,8.296984365811927,7.795936217902013
6.643598012864207,0.5291462825792453,8.374943727990948,7.729315006352747
6.64888947569,0.7857190234195306,8.452236878054475,7.6825675256366095
6.656746665924195,1.0344199134730898,8.52906255331084,7.652896625506702
6.667090865058926,1.2760580705169744,8.605591519565907,7.6379344414938455
6.679851445764095,1.5111334497020437,8.681970863980846,7.6356453023826925
6.694962780261116,1.7398876869024298,8.758327317004673,7.644254346586852
6.71236165713014,1.9623464439300176,8.83476986047054,7.6621959598710525
6.731985121569441,2.1783559503314907,8.911391820069252,7.6880774573106185
6.7537686810727555,2.3876156421256276,8.988272594642359,7.72065439357454
6.7776448374940115,2.5897080931644703,9.065479138578104,7.758814533252966
6.8035419184256565,2.7841268203974723,9.143067283910634,7.80156792071141
6.8313831866296315,2.9703020180844866,9.221082963117748,7.848040735404515
6.8610862068104765,3.1476238431000687,9.299563370471793,7.8974707765543535
6.892562445241477,3.315462546765068,9.378538078237336,7.949202553922792
6.925717070709128,3.4731845450295697,9.458030103776563,8.002680120581074
6.960448916159423,3.6201634541126357,9.538056904982374,8.05743600670439
6.99665055070055,3.755785202788094,9.618631265049418,8.113074922969846
7.034208402728431,3.8794465663525313,9.699762014279116,8.169251306093717
7.073002868391956,3.9905468425040613,9.781454527340053,8.225640274123156
7.1129083368169965,4.088472890404043,9.863710930081284,8.281902136448785
7.153793065721037,4.172578362615055,9.946529951445772,8.337641255621918
7.195518849347187,4.2421586578593855,10.029906364001992,8.392360784511325
7.237940435925781,4.296423894958784,10.113829971847105,8.445415611146315
7.2809046748753685,4.334473036184853,10.198284127958567,8.495966744932147
7.324249405237217,4.355273136715132,10.28324379540789,8.542941367364016
7.367802136604368,4.35764849329155,10.36867320908153,8.5850038008786
7.411378621537284,4.3402850718892765,10.454523247090316,8.620543594937391
7.454781472256177,4.301755784583346,10.54072868303969,8.647687547583564
7.49779903010201,4.240571639162281,10.627205558515525,8.664342399451812
7.540204746493633,4.155262123469006,10.713848982510044,8.668273676382407
7.581757367728323,4.044485077208852,10.800531719273868,8.657223236619455
7.622202218500411,3.907161637043099,10.887103951640063,8.629063218158043
7.661273834870842,3.7426259533338,10.973394583821642,8.58197747127739
7.69870009440418,3.5507732368692824,11.059214358534417,8.514654114687627
7.734207826772873,3.332184900628725,11.144360899681294,8.426466279388258
7.76752967577916,3.088208024779493,11.228625562475177,8.317614617847806
7.7984117560269555,2.8209696463055134,11.311801708653654,8.189206774608786
7.82662145249001,2.53331484161377,11.393693776399742,8.043256617155965
7.851954600906148,2.228669891274919,11.474126342571301,7.88259862263606
7.874241299818897,1.9108450540715036,11.552952328797662,7.710727519511131
7.893349750359612,1.5838020288651742,11.630059603992773,7.5315861897620255
7.9091877706482645,1.2514161501908747,11.705375465890393,7.3493324932059965
7.921701932150174,0.9172616863743792,11.778868790822454,7.16811640395961
7.930874549013917,0.584441362778664,11.85054995486205,6.991893257777871
7.936718962641704,0.255470997291212,11.920468887439828,6.824289387458996
7.9392736726146165,-0.06778014961158879,11.988711781314418,6.66852600687389
7.9385958711185,-0.38410078327914743,12.055397041383157,6.5273984410521235
7.934754863285709,-0.6929130211867531,12.120671025793678,6.403302105790083
7.927825733073841,-0.9942257735456668,12.184704046851579,6.298294249661647
7.917883475338384,-1.2885791865989291,12.247686989348194,6.214180794481124
7.904997683472395,-1.5769911698685553,12.309828797293006,6.15261970856701
7.88922777177371,-1.8609145126514313,12.371354994378676,6.115235309973334
7.870618626647196,-2.142210808687921,12.43250734747841,6.103741035931797
7.8491965185603165,-2.4231456616602,12.493544757837729,6.120071087263005
7.824965061943715,-2.706408440950107,12.554745468710358,6.166523659087904
7.797900977534214,-2.995158876522663,12.616410705301238,6.245919816144101
7.767949388768987,-3.293101217274288,12.67886990346268,6.361781588644561
7.735018376596244,-3.604582737094648,12.742487719349125,6.518528371455162
7.698972549225298,-3.9347030423057534,12.807673003063677,6.721676917484564
7.65962551880224,-4.289394789933563,12.874889772238522,6.977994664725849
7.616731570902905,-4.675374369919988,12.94466971888578,7.295470109137193
7.569977827203705,-5.099717046712236,13.017624419977153,7.682763422399803
7.518980656736583,-5.568490974860455,13.09445205420115,8.147353377930997
7.463295746987979,-6.083233527729217,13.17592558798046,8.690683680741175
7.402463411710686,-6.633008172970918,13.262832424787872,9.297137172571304
7.336133329980977,-7.179355906613375,13.355803796513586,9.913036338693601
7.264339770914844,-7.637020249562143,13.454934159900521,10.419584150760045
7.187969568419222,-7.8762153240106825,13.559130001408121,10.635615960671144
7.109207415179115,-7.7955104411861775,13.665486161014833,10.41863978491995
7.031252310767253,-7.431441647341739,13.769672558864032,9.816860337850072
6.956937894293835,-6.936498639615929,13.867841162242533,9.038051421525983
6.887572907897676,-6.443811899411022,13.958221676457793,8.262239351194006
6.823134788903565,-6.012418114288669,14.040844069969733,7.567177722375198
6.763010607760679,-5.6538498615557735,14.116515847193485,6.965816566554151
6.706472109145121,-5.361816601812411,14.186174012859027,6.447252022704273
6.652853943126997,-5.126059259758122,14.25064653308607,5.995588144804329
6.601593350529416,-4.936986111657269,14.310602414534113,5.596119229456094
6.552223489412844,-4.786763964218167,14.366563606828674,5.2367060944004855
6.504355849770662,-4.6692849490769435,14.41893066777268,4.907666416726146
6.457663000279893,-4.57985388490901,14.46800733193994,4.60132439076121
6.4118644614308025,-4.514857905518571,14.514020575847553,4.311568837010484
6.366715882375617,-4.471484267427147,14.557136264217657,4.033505578167199
6.3220010397013455,-4.4474914608056375,14.597471319999329,3.7632100773398705
6.2775261250932894,-4.441022816754702,14.635103420772728,3.4975662554788856
6.233115896925742,-4.450450142998242,14.670079083327517,3.2341752517454
6.18861139549576,-4.474237492923644,14.70242083584497,2.9713198253424262
6.143869020566523,-4.510818899482228,14.732134034098394,2.7079716606076185
6.098760831571701,-4.558487976904353,14.75921375070447,2.443828719184342
6.0531759518026576,-4.615301507009063,14.783652037896314,2.179367839802132
6.007022936732567,-4.679003237780932,14.805445716294335,1.9158945248307002
5.960232904354758,-4.7469775618444405,14.824604661542642,1.6555683951774398
5.912763128736313,-4.816244556424399,14.841160345494416,1.4013808766469222
5.864600683172069,-4.8835068894564095,14.855174154260885,1.1570634027218736
5.815765614277505,-4.945254412490184,14.866744788288104,0.9269115873416831
5.766313070152603,-4.997923852652023,14.876013904161521,0.7155239443555692
5.716333831626083,-5.0381003011008545,14.883169143605077,0.527471093018596
5.665952828615075,-5.062737006815605,14.888443854535263,0.3669288948811653
5.615325458546919,-5.069363713835154,14.892113143484075,0.23732125914588467
5.564631821408567,-5.056253920896295,14.894486356075534,0.14102099453433664
5.514069282199604,-5.0225283145114075,14.895896566020877,0.07914870772672283
5.4638439990544905,-4.968183126810712,14.896688053098144,0.05149281905720318
5.414162167786383,-4.89404477585948,14.897202981288716,0.056553425130238776
5.3652217200277885,-4.801662541852985,14.897768515540019,0.09169444409173674
5.317205094609259,-4.693157351276972,14.898685459980936,0.15337592116687288
5.270273521096489,-4.571046831382598,14.900219219192604,0.23743268960510855
5.224563052782663,-4.438065643911441,14.902593546088655,0.33936590404185046
5.180182396343549,-4.296997000145612,14.905987205129072,0.4546185120709124
5.137212426342093,-4.150527233573162,14.910533390249782,0.5788127188141782
5.095707154006361,-4.001131005421537,14.916321517437924,0.7079355051238273
5.055695843952146,-3.8509905324632796,14.923400872489163,0.8384662049025706
5.017185938627514,-3.701948466014336,14.931785534538188,0.9674471804782816
4.980166453967371,-3.5554910118326943,14.94146000634297,1.0925041031577032
4.944611543849044,-3.4127557996298132,14.952385047374547,1.211825857861316
4.910483985852746,-3.274557987050531,14.96450330595316,1.324115588851911
4.877738405982241,-3.1414280384476854,14.977744461841679,1.428524157374004
4.846324125597763,-3.013655327220452,14.992029703415419,1.5245757867250116
4.816187572325559,-2.89133287161876,15.007275461282669,1.6120934976140806
4.787274243609371,-2.774399835202864,15.023396396258809,1.6911295985720762
4.759530245257342,-2.6626796775565933,15.04030769224453,1.7619043621255566
4.7329034484817765,-2.5559128897658123,15.057926735865786,1.8247542930253888
4.707344319584118,-2.4537840362729977,15.07617427879604,1.8800901453037588
4.682806479221388,-2.3559433540307517,15.094975180249078,1.9283640397001938
4.659247045681081,-2.262023470305188,15.11425882064608,1.9700445908572088
4.636626810978029,-2.17165194452376,15.133959266554653,2.0055987780719478
4.614910291532792,-2.0844603690969468,15.154015254335372,2.035479294327331
4.594065687841822,-2.0000907229248392,15.174370047278645,2.060116212920055
4.574064780612574,-1.9181995924100164,15.194971209407845,2.0799119660072907
4.554882784688473,-1.8384607810562195,15.215770329067917,2.0952387993504344
4.536498176877911,-1.7605667344941645,15.236722717061422,2.106438031071431
4.51889250953297,-1.6842291211007265,15.257787097372136,2.1138205881159458
4.502050218321963,-1.6091788330156906,15.278925303253295,2.1176684178049534
4.485958429991806,-1.5351656093395347,15.300101987431345,2.118236472892522
4.47060677389841,-1.46195743207898,15.321284352160271,2.115755048692393
4.455987199577621,-1.3893398046730554,15.342441902647195,2.1104323128559304
4.44209380153089,-1.3171149910689872,15.363546225775755,2.1024569153176222
4.4289226516202005,-1.2451012687088188,15.384570794928932,2.092000600676002
4.416471638933112,-1.1731322299664773,15.405490800935691,2.0792207704245103
4.404740316633448,-1.1010561522863034,15.426283008639937,2.0642629601721487
4.393729755110585,-1.0287354464911747,15.446925638241659,2.0472632090940466
4.383442400645674,-0.9560461846405497,15.4673982703326,2.0283503067765185
4.3738819387992685,-0.8828777028058911,15.487681773400364,2.0076479075251608
4.365053161771209,-0.8091322697333975,15.507758252475616,1.9852765050030128
4.356961839073875,-0.7347248092521249,15.527611017525647,1.9613552614807415
4.349614590981354,-0.6595826622307462,15.547224570140454,1.9360036865795653
4.343018764359047,-0.5836453727342431,15.56658460700625,1.9093431606122835
4.337182310631705,-0.5068644826793326,15.585678038612373,1.8814982978155634
4.332113665804911,-0.4292033196608177,15.604493021590528,1.8525981451636995
4.327821632608303,-0.3506367636586319,15.623019003042165,1.8227772132239073
4.324315264971716,-0.2711509799727792,15.641246775174404,1.7921763367424175
4.321603755171989,-0.19074310789286097,15.659168538541827,1.7609433643536574
4.31969632409306,-0.10942089719263372,15.676777972185365,1.7292336789300633
4.318602115121134,-0.02720228742831135,15.694070308974664,1.6972105525285508
4.3183300922468515,0.055885071926954466,15.71104241449995,1.665045342487191
4.3188889429661215,0.13980435941228592,15.727692867924821,1.6329175377986338
4.3202869865602445,0.2245101735437592,15.744022043302808,1.6010146672411991
4.322532088295682,0.3099491721411857,15.76003218997522,1.5695320826999393
4.3256315800170935,0.39606075010176006,15.77572751080222,1.5386726325035562
4.329592187518111,0.4827777449527496,15.791114237127255,1.508646240330437
4.334419964967639,0.5700271582955355,15.80620069953056,1.4796694052484143
4.340120236550594,0.6577308805633059,15.820997393583044,1.4519646377621704
4.346697545356227,0.7458064063068011,15.835517039960665,1.4257598454253646
4.354155609419295,0.8341675274106234,15.84977463841492,1.4012876797599314
4.362497284693402,0.9227249921133522,15.863787515212518,1.378784854077981
4.371724534614535,1.011387118331403,15.877575363753298,1.3584914395051202
4.38183840579785,1.1000603504446518,15.89116027814835,1.3406501442368732
4.392839009302296,1.1886497492835861,15.904566779590718,1.32550557897746
4.404725506795132,1.2770594054844504,15.917821835380494,1.3133035097276682
4.417496100849976,1.365192766609484,15.93095487047777,1.3042900976703098
4.431148028516071,1.4529528684642128,15.943997771454473,1.2987111248575824
4.445677557200713,1.5402424609235632,15.956984882703049,1.2968112036931145
4.461079981809949,1.6269640183789233,15.96995299473998,1.2988329677396844
4.477349621993738,1.713019624740697,15.982941324417377,1.3050162410624162
4.494479818241144,1.7983107228917492,15.995991486828,1.3155971830195223
4.512462925470062,1.882737718705818,16.009147458658195,1.330807405032734
4.53129030265712,1.9661994303330368,16.022455532708523,1.3508730553316257
4.550952296960451,2.0485923745070806,16.03596426326184,1.3760138669394053
4.571438220705521,2.129809883217633,16.049724401931233,1.4064421632775366
4.592736319537697,2.2097410462655565,16.063788823564007,1.44236181479902
4.614833730000353,2.2882694780001978,16.078212441711997,1.483967139162161
4.637716424780354,2.36527190993226,16.093052113103617,1.5314417368298905
4.661369143879677,2.4406166149100916,16.108366530471915,1.5849572538704417
