th1 (rad),w1 (rad/s),th2 (rad),w2 (rad/s)
1.8427630348649915,-2.113121428533794,1.2065870122638769,0.4541823231327926
1.8216318205796536,-2.214898785358304,1.2111288354952048,0.47100688593796725
1.7994828327260706,-2.3195330252237047,1.2158389043545845,0.4931344293825294
1.7762875024738336,-2.427150793643002,1.2207702486484098,0.5206951225408382
1.7520159945374036,-2.5378498416980055,1.2259771998738183,0.5537589025332869
1.7266374961204236,-2.6516854476200313,1.2315147888991511,0.5923122800208473
1.7001206416442234,-2.768652460216447,1.2374379116993597,0.6362284958303239
1.672434117042059,-2.888662103372514,1.2438001966576628,0.685229846617537
1.6435474960083338,-3.0115128586952564,1.2506524951238382,0.7388413002854355
1.6134323674213813,-3.1368552437917154,1.2580409081266926,0.7963353067090846
1.582063814983464,-3.2641513220856693,1.2660042611937834,0.8566692599910724
1.5494223017626074,-3.392631540669718,1.2745709537936942,0.9184197079918177
1.5154959863559103,-3.521254165815996,1.2837551508736125,0.9797213745295824
1.4802834446977504,-3.6486761077433636,1.2935523646189082,1.0382242573036082
1.4437966836203169,-3.7732477042011876,1.3039346071919442,1.0910876178565627
1.406064206578305,-3.8930466091037457,1.3148454833705099,1.1350334622788132
1.3671337404872677,-4.0059648792933364,1.326195817993298,1.1664805881438471
1.3270740916943342,-4.1098558821524565,1.3378606238747364,1.1817693831008311
1.2859755328728097,-4.2027323813137905,1.3496783177057448,1.1774652638188754
1.2439482090596718,-4.282986684454982,1.3614529703439335,1.1506986157172685
1.201118342215122,-4.349586024343363,1.3729599565011061,1.0994728048475937
1.1576224819716883,-4.402192224506587,1.383954684549582,1.022864997989661
1.1136005597266223,-4.441170877281193,1.3941833345294787,0.9210670808076475
1.0691888509538103,-4.467487476448334,1.4033940053375553,0.7952601500509231
1.024513976189327,-4.482521483606303,1.4113466068380645,0.6473649242512929
0.9796887613532639,-4.487848380508924,1.4178202560805775,0.47973911709101524
0.9348102775481746,-4.485038040337436,1.4226176472514875,0.2948917651604278
0.8899598971448002,-4.475500823359175,1.4255665649030917,0.09526119269842215
0.8452048889112084,-4.460391876693142,1.426519176830076,-0.1169264338847264
0.800600970144277,-4.440568113044956,1.4253499124912288,-0.33972427803680305
0.7561952890138275,-4.416584425514649,1.4219526697108607,-0.5714760389210858
0.712029444758681,-4.388714523133203,1.4162379093216497,-0.8107918582808222
0.6681422995273489,-4.356984357517349,1.4081299907388416,-1.056506435138059
0.6245724559521755,-4.321209866209738,1.397564926387461,-1.3076318261826754
0.5813603572900781,-4.281034180130164,1.3844886081256342,-1.563312678029353
0.5385500154887765,-4.235961964181442,1.3688554813453406,-1.8227880549069437
0.496190395846962,-4.185390158283962,1.3506276007962712,-2.0853616643859962
0.45433649426412237,-4.128635257705997,1.3297739841524112,-2.3503808917334994
0.4130501416870624,-4.064957649224189,1.3062701752350763,-2.617224315782463
0.3724005651948205,-3.9935835964499646,1.2800979320772516,-2.8852970315054716
0.3324647292303209,-3.9137253809754027,1.251244961762197,-3.1540329602082395
0.29332747542056686,-3.8245999461431097,1.2197046321601146,-3.4229032697696318
0.2550814759591358,-3.725446215245163,1.1854755994624182,-3.691429986982757
0.21782701380668415,-3.6155411049171993,1.1485612995925907,-3.959203825765702
0.18167160275751215,-3.494214157757437,1.1089692613349336,-4.225905159518664
0.1467294611799378,-3.3608607047026653,1.066710209739747,-4.4913269186690705
0.11312085413291115,-3.2149535708608155,1.0217969405530563,-4.755397974925314
0.080971318424303,-3.0560536022413185,0.9742429608038031,-5.018205243897558
0.050410782401889814,-2.883819777297406,0.9240609083648276,-5.2800122276221755
0.021572584628915755,-2.6980204680978335,0.8712607860886058,-5.54127090697237
-0.005407620052062582,-2.4985486688126235,0.8158480770188821,-5.8026225821105255
-0.030393106740188816,-2.28544591856312,0.7578218511977768,-6.064881136871649
-0.053247565925820015,-2.058942503521902,0.6971730398290603,-6.328988814370093
-0.07383699096103903,-1.8195257073473157,0.6338831516853594,-6.595929326105579
-0.09203224803451218,-1.5680537688657972,0.5679238584243036,-6.866575308495792
-0.10771278572317015,-1.3059408605891052,0.49925810533934567,-7.1414364750389225
-0.12077219432906121,-1.035446656966646,0.42784374058895647,-7.420262522483669
-0.13112666089872768,-0.7601083831284375,0.3536411153641198,-7.701446617664344
-0.13872774473001206,-0.485341425278605,0.27662664918747637,-7.981187160991512
-0.1435811589827981,-0.21918038808717444,0.19681477757756125,-8.252432912939028
-0.14577296286366986,0.02700712212221676,0.11429044844817096,-8.503818765333016
-0.1455028916424477,0.23826294197102246,0.029252260794840806,-8.719148799632924
-0.14312026222273747,0.3969826805464859,-0.05793922720148843,-8.878416115692001
-0.1391504354172726,0.48583858717331163,-0.14672338835840845,-8.961409067463986
-0.13429204954553947,0.4925973923833511,-0.2363374790330483,-8.953822447215508
-0.12936607562170596,0.4149043666514385,-0.3258757035052034,-8.853340341391302
-0.12521703195519157,0.26188531939340376,-0.4144091069191164,-8.671556608002831
-0.12259817876125753,0.0510589311124561,-0.5011246729991448,-8.429829671407257
-0.12208758945013297,-0.19740684493886482,-0.5854229697132174,-8.15186271008649
-0.12406165789952162,-0.46556895703375967,-0.6669415968140823,-7.857649532111444
-0.12871734746985922,-0.7399245895121578,-0.7455180921351967,-7.560998357743356
-0.1361165933649808,-1.0114206284404839,-0.8211280757126302,-7.269884654297803
-0.14623079964938565,-1.2744685621831802,-0.8938269222556083,-6.987977412076747
-0.15897548527121746,-1.5258328527054008,-0.9637066963763758,-6.716214030681887
-0.17423381379827146,-1.7637485199565048,-1.0308688366831946,-6.453999566602565
-0.1918712989978365,-1.9873218328256326,-1.0954088323492204,-6.199996939649644
-0.21174451732609284,-2.196158082597864,-1.157408801745717,-5.952604695013042
-0.2337060981520715,-2.3901443679125194,-1.2169348486958473,-5.7102281618678115
-0.2576075418311967,-2.5693297217784528,-1.2740371303145255,-5.471423732429676
-0.28330083904898123,-2.733863177566137,-1.3287513676388223,-5.23496834579142
-0.3106394708246426,-2.883964749927241,-1.3811010510967365,-4.999885868368519
-0.33947911832391503,-3.0199140378371574,-1.4310999097804218,-4.765448916448143
-0.3696782587022866,-3.142047326924774,-1.4787543989449032,-4.531166753532241
-0.40109873197153434,-3.250757872997344,-1.5240660664802257,-4.296765328266947
-0.4336063107015078,-3.3464963768453466,-1.5670337197628952,-4.062162963254975
-0.4670712744699613,-3.4297700896763157,-1.6076553493954449,-3.827443812587519
-0.5013689753667244,-3.5011398716818807,-1.6459297875213201,-3.5928304637594857
-0.5363803740835432,-3.5612150722096807,-1.681858092158915,-3.3586566665192916
-0.57199252480564,-3.6106464311885813,-1.715444658824108,-3.1253409541351824
-0.6080989891175258,-3.650117390219854,-1.7466980683654598,-2.893361785082506
-0.6446001630197243,-3.6803342924075717,-1.7756316862162849,-2.6632347243454983
-0.6814035059438001,-3.7020159714647507,-1.80226403345974,-2.435492079402913
-0.7184236656584475,-3.7158832034061433,-1.8266189542537692,-2.2106652982141854
-0.755582497692509,-3.722648433996299,-1.848725607235911,-1.9892703254791593
-0.792808982032472,-3.723006114859513,-1.8686183104907026,-1.7717960036406828
-0.8300390431810671,-3.7176238913446418,-1.8863362705271094,-1.5586955024011573
-0.8672152820945136,-3.7071347944795865,-1.901923225551121,-1.3503806703385397
-0.9042866300393094,-3.6921305043974764,-1.9154270322545064,-1.1472191284357747
-0.9412079350832842,-3.6731556784719763,-1.9268992235388642,-0.9495338698636003
-0.9779394918680039,-3.650703277512797,-1.9363945622375003,-0.7576050929070275
-1.0144465246431318,-3.625210779939603,-1.9439706131665706,-0.5716739721744195
-1.0506986324425278,-3.597057148196375,-1.9496873528883147,-0.39194806303292407
-1.0866692039244916,-3.56656040466843,-1.953606833518644,-0.21860802990778577
-1.122334807971176,-3.5339756868727323,-1.955792913817722,-0.05181538377762224
-1.1576745648399032,-3.4994936848636033,-1.9563110676554982,0.10827909988477963
-1.1926695016885391,-3.4632394192312543,-1.9552282766566504,0.26152664256175395
-1.2273018958808517,-3.425271397633158,-1.9526130102310328,0.40777181940250984
-1.2615546098571833,-3.385581292911832,-1.9485352920370078,0.5468445144558713
-1.2954104227863015,-3.3440944160435215,-1.943066846892449,0.6785530990906189
-1.3288513669467368,-3.3006714076107997,-1.9362813159015428,0.8026796092225896
-1.3618580810228447,-3.2551117294954084,-1.9282545198093168,0.9189778610034522
-1.3944091983177989,-3.2071596791379364,-1.9190647411992823,1.027175587472022
-1.4264807951091782,-3.156513730912206,-1.908792985324562,1.1269817429887152
-1.4580459324183004,-3.102839974398325,-1.897523167894675,1.2181000263738468
-1.4890743321622837,-3.045790197095398,-1.8853421676309365,1.3002493196192253
-1.5195322341332376,-2.9850246836188186,-1.8723396744347442,1.3731910366663613
-1.5493824809694257,-2.920239044599096,-1.8586077640680807,1.4367622874153898
-1.5785848714154167,-2.851193393664372,-1.8442401411939269,1.4909123572081784
-1.6070968053520605,-2.777741122297469,-1.8293310176218451,1.5357385146781233
-1.6348742165750352,-2.6998536632724504,-1.813973632475064,1.5715159927522189
-1.6618727532077597,-2.6176373331775693,-1.7982584725475417,1.5987166292563257
-1.6880491265395354,-2.531338894020598,-1.7822713062549784,1.6180115068160386
-1.7133625154797414,-2.4413379473867285,-1.766091191186818,1.63025508699328
-1.7377758949536086,-2.3481264219223186,-1.7497886403168852,1.6364514204036371
-1.7612571591728319,-2.2522776909440236,-1.733424126112849,1.637706248346754
-1.7837799360822721,-2.154409611034687,-1.7170470636293813,1.6351712663331675
-1.805324032192619,-2.055146515496203,-1.7006953509660496,1.6299878089222342
-1.825875497347581,-1.9550847999044967,-1.6843954728768273,1.6232365705836196
-1.845426345346626,-1.854765453986749,-1.668163107170991,1.61589807530796
-1.8639739998864935,-1.7546552076863273,-1.6520041264179115,1.6088261484099393
-1.8815205519633567,-1.6551363618113284,-1.6359158649338121,1.6027343343409306
-1.89807191558147,-1.556504197812878,-1.6198885215904029,1.598193518224112
-1.9136369575595988,-1.458970224116325,-1.6039065864081616,1.5956381087912301
-1.928226659800762,-1.3626693607196685,-1.5879502053202494,1.5953779386236568
-1.9418533534079587,-1.2676693418416314,-1.571996425934013,1.5976133176057563
-1.954530046826375,-1.1739809673462407,-1.5560202927579554,1.602451203092496
-1.9662698564998375,-1.0815682294403612,-1.5399957807270304,1.6099210396905614
-1.9770855387942412,-0.9903577014936145,-1.5238965703301248,1.6199893566090056
-1.9869891158091773,-0.900246863307361,-1.5076966767640347,1.6325726372467853
-1.9959915844422509,-0.8111112440174904,-1.4913709503915669,1.6475482831646195
-2.0041026968824256,-0.7228103988203389,-1.4748954675599206,1.6647636959016376
-2.011330800870629,-0.6351928142662494,-1.4582478306009043,1.6840436179354659
-2.0176827290132913,-0.5480998750188165,-1.4414073944215497,1.7051959320635954
-2.0231637277634795,-0.461369036501751,-1.4243554351009138,1.7280161368970146
-2.027777418128497,-0.374836343301841,-1.4070752737319436,1.7522907105946297
-2.0315257815615153,-0.2883384200104532,-1.3895523666259972,1.7777995564731233
-2.0344091657616197,-0.20171404425871153,-1.371774371061266,1.8043177000018344
-2.036426306204207,-0.11480539402015537,-1.3537311940612475,1.8316163814361446
-2.0375743601444083,-0.027459044483713002,-1.3354150302468861,1.859463664503282
-2.0378489505892454,0.06047322526162599,-1.3168203936018532,1.8876246603951883
-2.037244218336629,0.14913376857502486,-1.2979441469979014,1.9158614483107919
-2.035752880650879,0.23865851463999327,-1.2787855325147934,1.9439327589278332
-2.033366295504479,0.3291764922770212,-1.259346204925515,1.9715934752290907
-2.0300745305817087,0.4208094155423906,-1.2396302701732242,1.9985939957043262
-2.0258664364262846,0.5136713192099831,-1.219644330216181,2.024679497709047
-2.0207297232341848,0.6078682380468883,-1.1993975352390907,2.049589133304622
-2.0146510408537157,0.7034979289039711,-1.1789016439060445,2.0730551858803716
-2.007616061564676,0.8006496392409833,-1.1581710920472408,2.0948022129509423
-1.9996095651722663,0.8994039299447494,-1.1372230699177313,2.1145461984494816
-1.9906155258728189,0.9998325642924292,-1.1160776079332364,2.1319937363462578
-1.9806172002298945,1.1019984787370751,-1.094757670569774,2.146841266284624
-1.9695972154425239,1.2059558548917588,-1.0732892579069278,2.158774380931314
-1.9575376568936063,1.3117503156697714,-1.0517015140976147,2.1674672236906924
-1.9444201537369086,1.419419271977102,-1.0300268418607077,2.1725819941510527
-1.9302259610171375,1.5289924495918867,-1.0083010219191972,2.173768576949654
-1.9149360365212187,1.6404926288122041,-0.9865633361497007,2.1706643075186127
-1.8985311102330966,1.7539366319806984,-0.9648566930745146,2.1628938852976844
-1.8809917439132897,1.8693365959337125,-0.9432277542215377,2.1500694414191392
-1.8622983779539526,1.9867015675569808,-0.9217270598073463,2.1317907636165705
-1.8424313622783828,2.1060394606800954,-0.9004091521711806,2.1076456763460416
-1.821370967671582,2.2273594111422352,-0.8793326954077202,2.0772105691914544
-1.7990973735601596,2.3506745635201747,-0.8585605897158056,2.0400510622007126
-1.7755906279249578,2.476005317042435,-0.8381600790937985,1.9957227939304363
-1.7508305747545334,2.6033830486377063,-0.8182028511544942,1.943772318345376
-1.7247967442681564,2.7328543164279653,-0.7987651279710405,1.8837381029056213
-1.6974682011038769,2.86448552508175,-0.7799277469419843,1.8151516360847022
-1.6688233458530595,2.998368001927783,-0.7617762305811373,1.7375386840527725
-1.6388396658337816,3.1346233844022207,-0.7444008437406096,1.6504207920884537
-1.6074934319897594,3.2734091472290086,-0.727896635819725,1.5533172195263767
-1.5747593405174694,3.4149239892916228,-0.7123634636244612,1.4457476472205557
-1.5406101006245532,3.5594126363369782,-0.6979059871522557,1.3272362326942393
-1.5050159742611835,3.707169367304619,-0.6846336248253133,1.1973179535344418
-1.4679442805881373,3.858539195297215,-0.6726604452899689,1.055548737697437
-1.4293588886351651,4.013915064235645,-0.6621049579129945,0.9015217220676451
-1.3892197379928086,4.173728566606667,-0.6530897406923181,0.7348932365363814
-1.347482452326742,4.338430421604897,-0.6457408083269542,0.5554239501388015
-1.304098148110693,4.508455125110552,-0.6401865688255662,0.3630432382796005
-1.2590135968595875,4.684161652456817,-0.6365561364427702,0.1579484076938595
-1.2121719803350193,4.865738844977103,-0.6349766523658316,-0.05924507716099495
-1.1635145918852483,5.053060531281297,-0.6355691031374415,-0.2872814218921014
-1.1129839865724354,5.245472929567769,-0.6384419173563626,-0.5239464711334145
-1.0605292572767577,5.44149900709831,-0.6436813820676968,-0.7656340090541951
-1.0061142672057746,5.638458624290979,-0.6513377221582387,-1.0067984723738033
-0.9497296809628648,5.832041893680963,-0.6614057068819768,-1.239353661920293
-0.8914092620260552,6.0159506024807845,-0.6737992435011797,-1.4521904420591372
-0.8312497560012474,6.181838936615134,-0.6883211479217711,-1.6311550554991856
-0.769431366635096,6.319888246741133,-0.704632698476763,-1.7599776010484502
-0.7062324841676847,6.420297620671326,-0.7222324744872475,-1.8225594692669953
-0.6420295079609715,6.475580698571381,-0.7404580691799174,-1.8064565024064512
-0.5772737009752577,6.482871115865966,-0.7585226342039819,-1.7063906952850858
-0.512444989816598,6.444996084834886,-0.7755865411568328,-1.5259685750430483
-0.44799502896824916,6.369564692283327,-0.7908462269072633,-1.2764738814158922
-0.3842993820454159,6.266557193773341,-0.8036109657214222,-0.9733982253353684
-0.3216338101076825,6.145743028994313,-0.8133449479747759,-0.6326236911129679
-0.26017637981773933,6.014989874633713,-0.8196711848859055,-0.26782945585682133
-0.2000264810714022,5.879688134626461,-0.8223494794444737,0.1105010611598623
-0.1412295997251376,5.7429401346464175,-0.821244468832875,0.4949427879883974
-0.08380019837867342,5.606070162463329,-0.8162950409529911,0.880491615656453
-0.02773949675404013,5.469164203864313,-0.8074901247964266,1.2638539975205152
0.026952145284602998,5.331515111809671,-0.7948515848212214,1.6428552603204931
0.08026729640269971,5.191949249813609,-0.7784230322180165,2.0160123221182746
0.1321867889008358,5.049052131354577,-0.7582629089968337,2.382253020040686
0.18267731021438155,4.901319998350411,-0.7344403787964269,2.7407470477868814
0.23169051019788567,4.747260955748525,-0.707032908318558,3.0908154725005446
0.2791631197553709,4.585462816908411,-0.6761247535935526,3.431893110086148
0.325017747924455,4.414638899045177,-0.6418058224926911,3.7635252195154782
0.36916413691490674,4.2336586000233405,-0.6041705702975364,4.085385505341944
0.41150072291514017,4.041566647434318,-0.563316715244117,4.397306268279609
0.45191638938948336,3.837593140425952,-0.5193436525613209,4.699314104883433
0.49029232079374285,3.6211556133057097,-0.4723505115124865,4.991666223421539
0.5265038769268,3.391854124911321,-0.4224338492782711,5.2748834894406835
0.5604224181759132,3.149460693394518,-0.36968501438386425,5.549776872562503
0.5919170251098584,2.893905212554025,-0.31418724565823924,5.817464020112159
0.6208560772353987,2.6252613589389338,-0.2560126054571177,6.079372060526729
0.6471086908247881,2.3437381075094974,-0.1952188848518504,6.33722107963494
0.670546071899883,2.049685664976141,-0.131846674055501,6.592979412816397
0.6910429285496444,1.7436294694352155,-0.06591687992733702,6.848776043510788
0.7084792232439966,1.4263531785911807,0.0025708805077708508,7.1067457564644325
0.7227427550299084,1.0990620810058438,0.07363833807241518,7.368767942589974
0.7337333758399668,0.7636721105178232,0.14732601749831492,7.636039758216273
0.741370096945145,0.4232833740807143,0.22368641508047765,7.908402612335255
0.7456029306859522,0.08289840757797767,0.30277044120383023,8.183333914250731
0.746431914761732,-0.24959881963279212,0.3846037803463376,8.45456818118691
0.7439359265654041,-0.5623442543492136,0.4691494621582067,8.71051546715765
0.738312484021912,-0.8387755260485283,0.5562546168297832,8.933125451792417
0.7299247287614267,-1.0583393931743776,0.6455858713477074,9.098589522609291
0.7193413348296829,-1.1999530010834463,0.7365717665738003,9.181680004751577
0.7073418048188485,-1.2484858055433472,0.8283885666213161,9.164125791947402
0.694856946763415,-1.2015745909988123,0.9200298245407901,9.043465061185897
0.6828412008534269,-1.0717902371936925,1.010464475152649,8.835762714781406
0.67212329848149,-0.8818137717198368,1.0988221023004632,8.569180854162733
0.6633051607642916,-0.6562013586474955,1.1845139108420906,8.273293416130992
0.6567431471778167,-0.41522550264852987,1.2672468450034005,7.971391775248272
0.6525908921513314,-0.17283666055045874,1.3469607627558833,7.678280213191995
0.6508625255458268,0.06258222083440695,1.4237435648878032,7.401624536167284
0.6514883477541709,0.2865659684691956,1.497759810249476,7.144304448774008
0.6543540074388629,0.4970717291950132,1.569202854737216,6.906431837049671
0.6593247247308129,0.6934277718482862,1.6382671731077127,6.686714337251558
0.6662590024492958,0.8756809354474943,1.7051343164802284,6.483267633698106
0.6750158118037708,1.0442204833279247,1.7699669928172095,6.294060348066216
0.6854580166370501,1.1995730201145065,1.8329075962978716,6.117139689010081
0.6974537468381952,1.3422970294846344,1.8940789931879725,5.95073443149183
0.7108767171330415,1.4729332152085293,1.9535863375028908,5.793292399149199
0.7256060492851267,1.591985076975232,2.011519261494383,5.643484564592586
0.7415259000548791,1.699915200441743,2.067954107140309,5.500193194046784
0.7585250520592965,1.7971491567796798,2.1229560390807767,5.362493216553971
0.7764965436270933,1.8840825581951899,2.176580971246316,5.229631490527527
