th1 (rad),w1 (rad/s),th2 (rad),w2 (rad/s),a1 (rad/s^2),a2 (rad/s^2)
5.504499899151927,1.5909778823972867,1.2188408331755414,0.9588222248379269,5.381773913367678,-9.275990077667007
5.5204096779759,1.6447956215309634,1.2284290554239206,0.8660623240612568,5.155055718763439,-9.597060249950093
5.53685763419121,1.6963461787185978,1.2370896786645331,0.7700917215617559,4.937181692010163,-9.915595078638342
5.553821095978396,1.7457179956386994,1.2447905958801506,0.6709357707753725,4.729961098002815,-10.230231250286447
5.571278275934783,1.7930176066187276,1.2514999535879043,0.568633458272508,4.535232954800141,-10.539786188585275
5.58920845200097,1.838369936166729,1.2571862881706295,0.46323559638665524,4.354852764308233,-10.843287010583927
5.6075921513626374,1.8819184638098112,1.261818644134496,0.354802726280816,4.190680087406267,-11.140000230759771
5.626411336000736,1.9238252646838738,1.2653666713973042,0.24340272397321827,4.044567529641428,-11.429461795737394
5.645649588647575,1.964270939980288,1.2678006986370363,0.12910810601584433,3.918351785636148,-11.711507032913103
5.665292298047378,2.0034544578366495,1.2690917796971948,0.011993035686713296,3.813847454313214,-11.98630014111139
5.685326842625744,2.041592932379782,1.2692117100540619,-0.1078699657244006,3.7328443788532004,-12.254362946522264
5.705742771949542,2.078921376168314,1.2681330103968178,-0.23041359518962323,3.677109282899912,-12.516602794735363
5.726531985711225,2.115692468997313,1.2658288744449215,-0.3555796231369769,3.6483924681402584,-12.774339647674708
5.747688910401198,2.1521763936787157,1.2622730782135518,-0.483323019613724,3.648440310314263,-13.029332696089538
5.769210674337986,2.1886607967818583,1.2574398480174145,-0.6136163465746194,3.6790142446541467,-13.283807072701059
5.791097282305804,2.2254509392284,1.2513036845516683,-0.74645441730163,3.741916871419495,-13.54048154186622
5.813351791698088,2.262870107942595,1.243839140378652,-0.8818592327202922,3.839025739076443,-13.802598326552422
5.835980492777514,2.301260365333359,1.2350205480514491,-1.0198852159858165,3.9723352725959042,-14.07395648235564
5.858993096430848,2.3409837180593183,1.224821695891591,-1.1606247808093728,4.144007192262605,-14.358950398452944
5.882402933611441,2.3824237899819445,1.2132154480834971,-1.3042142847939022,4.356429580234161,-14.662615032506416
5.906227171511261,2.425988085784286,1.200173305235558,-1.4508404351189663,4.6122844318805365,-14.990679268879653
5.930487052369103,2.4721109301030917,1.1856649008843685,-1.6007472278077628,4.914622957626543,-15.349628159763864
5.955208161670134,2.521257159679357,1.1696574286062908,-1.7542435094054014,5.266946871322523,-15.746773485715904
5.980420733266928,2.5739266283925826,1.1521149935122368,-1.9117112442625603,5.673292058179777,-16.190329578000597
6.006159999550854,2.6306595489743803,1.132997881069611,-2.0736145400425663,6.138307755723974,-16.689486865142985
6.032466595040598,2.69204262653162,1.1122617356691855,-2.2405094086939963,6.667318681830335,-17.25446774858992
6.059387021305914,2.7587158133499234,1.0898566415822455,-2.4130540861798955,7.266347670405296,-17.896535802053847
6.086974179439413,2.8313792900539765,1.0657261007204466,-2.592019444200434,7.942059391783891,-18.62790588108878
6.115287972339953,2.910799883971815,1.0398059062784422,-2.778298503011322,8.70155669151723,-19.461462671291734
6.144395971179671,2.9978154508869874,1.012022921248329,-2.972913129724239,9.551911711961452,-20.410127006647752
6.174374125688541,3.093334568006602,0.9822937899510865,-3.1770143997907168,10.499230730236675,-21.485594074150146
6.205307471368607,3.1983268753089686,0.9505236459531794,-3.3918703405322184,11.546913222789719,-22.69597552626994
6.237290740121696,3.3137960075368658,0.9166049425478572,-3.6188300957949178,12.692540951411287,-24.041564815772535
6.270428700197065,3.4407214170509786,0.880416641589908,-3.859245743952643,13.922484110308758,-25.507458229581037
6.304835914367574,3.579946258154066,0.8418241841503815,-4.114320326248453,15.202816902009905,-27.0510707973182
6.340635376949115,3.731974427174165,0.800680980887897,-4.3848310342216354,16.464569286120856,-28.581787726422142
6.3779551212208565,3.8966201200353736,0.7568326705456806,-4.6706489114858565,17.581108132732655,-29.929645513629303
6.41692132242121,4.0724312013627,0.7101261814308221,-4.96994536662215,18.33681836222254,-30.80182150013346
6.457645634434837,4.255799384984925,0.6604267277646005,-5.277963581623484,18.392365550625435,-30.734185762360447
6.5002036282846865,4.43972304049118,0.6076470919483657,-5.585305439247088,17.26819333783231,-29.06797203717446
6.5446008586895985,4.612404973869503,0.5517940375558948,-5.875985159618833,14.398145627631871,-25.023833854879626
6.590724908428293,4.756386430145822,0.4930341859597065,-6.126223498167629,9.330929124455636,-17.98166614499409
6.6382887727297515,4.849695721390378,0.43177195097803023,-6.30604015961757,2.104022589906651,-8.000395704780463
6.686785729943655,4.870735947289445,0.3687115493818545,-6.386044116665375,-6.409411038100844,3.700992709368243
6.73549308941655,4.806641836908437,0.3048511082152008,-6.349034189571693,-14.620994156333253,14.91532288833975
6.783559507785634,4.660431895345104,0.24136076631948383,-6.199880960688295,-20.98481387606413,23.505372335998757
6.830163826739085,4.450583756584463,0.17936195671260088,-5.964827237328308,-24.79057266823401,28.504624784602754
6.874669664304929,4.202678029902122,0.11971368433931781,-5.67978098948228,-26.271385866153985,30.25821258569034
6.91669644460395,3.9399641712405824,0.062915874444495,-5.3771988636253765,-26.133764878903303,29.762132381283152
6.9560960863163555,3.6786265224515495,0.009143885808241242,-5.079577539812545,-25.086693094270977,28.007692093174466
6.992882351540871,3.4277595915088397,-0.041651889589884215,-4.799500618880801,-23.63966395983376,25.703725949222466
7.027159947455959,3.1913629519105022,-0.08964689577869223,-4.542463359388576,-22.09655390396618,23.271167199221594
7.059073576975064,2.9703974128708404,-0.135071529372578,-4.309751687396361,-20.615235390025198,20.927757142262973
7.088777551103773,2.7642450589705883,-0.1781690462465416,-4.100474115973731,-19.26597244252955,18.769993357527177
7.116420001693479,2.5715853345452926,-0.2191737874062789,-3.9127741823984596,-18.071508574371833,16.829049273165456
7.142135855038932,2.390870248801574,-0.2583015292302635,-3.7444836896668052,-17.030843950367384,15.10378169379221
7.166044557526948,2.2205618092979003,-0.29574636612693156,-3.593445872728883,-16.132268292590666,13.57873368737253
7.188250175619927,2.0592391263719936,-0.3316808248542204,-3.4576585358551575,-15.360126303126956,12.23342375442704
7.208842566883646,1.905637863340724,-0.36625741021277197,-3.335324298310887,-14.698146890379316,11.046877505537006
7.227898945517054,1.758656394436931,-0.39961065319588085,-3.224855523255517,-14.130959510844757,9.999660245933303
7.245485509461423,1.6173467993284834,-0.431859208428436,-3.124858920796184,-13.644684366228525,9.07463905688505
7.261658977454708,1.4808999556661981,-0.46310779763639787,-3.0341125302273335,-13.227067681726936,8.25712441730335
7.27646797701137,1.3486292788489287,-0.4934489229386712,-2.9515412860543,-12.867407530916847,7.534728273784725
7.289954269799859,1.2199552035397603,-0.5229643357992142,-2.876194003316453,-12.556395417786689,6.897109344362932
7.302153821835256,1.0943912493618935,-0.5517262758323788,-2.8072229098728236,-12.285935563227968,6.335689459328559
7.313097734328875,0.9715318937296138,-0.579798504931107,-2.743866015279538,-12.04897093363071,5.843379768010979
7.322813053266171,0.8510421843933067,-0.6072371650839024,-2.6854322175994283,-11.839328183841072,5.414332790026757
7.331323475110104,0.732648902554896,-0.6340914872598966,-2.6312888896991606,-11.651585253507145,5.043725017970436
7.338649964135653,0.6161330500198245,-0.6604043761568882,-2.580851639519456,-11.480961321641017,4.72756951532131
7.344811294635852,0.5013234368034144,-0.6862128925520827,-2.533575944366243,-11.323227056826436,4.462555761807663
7.349824529003886,0.38809116623515005,-0.7115486519957451,-2.4889503867481664,-11.174632476031116,4.2459133346094395
7.353705440666237,0.2763448414748389,-0.7364381558632268,-2.446491253402072,-11.031849654853113,4.075296070374037
7.356468889080986,0.16602634492630775,-0.7609030683972475,-2.4057382926983317,-10.891927711939422,3.948683712881032
7.35812915253025,0.05710706780691352,-0.7849604513242309,-2.3662514555695213,-10.752257766673218,3.8642985034610673
7.358700223208319,-0.05041550985981866,-0.8086229658799261,-2.3276084705349107,-10.61054586782592,3.8205346139233085
7.358196068109721,-0.15652096853807784,-0.8318990505852752,-2.289403124395678,-10.464792178663501,3.815898709800497
7.3566308584243405,-0.26116889032471285,-0.854793081829232,-2.251244137297673,-10.313274968599606,3.8489602498190383
7.354019169521093,-0.3643016400107089,-0.8773055232022087,-2.212754534799483,-10.154538200209466,3.918310375421856
7.350376153120986,-0.4658470220128036,-0.8994330685502036,-2.1735714310452643,-9.987381714457861,4.0225284292296015
7.345717682900858,-0.5657208391573822,-0.9211687828606562,-2.1333461467529684,-9.8108532084638,4.160155274390353
7.340060474509285,-0.6638293712420202,-0.9425022443281859,-2.091744594009065,-9.62424137064741,4.329672680122616
7.333422180796864,-0.7600717849484944,-0.9634196902682765,-2.048447867207839,-9.427069688299925,4.529488104870901
7.3258214629473795,-0.8543424818314936,-0.9839041689403548,-2.00315298615913,-9.219090572105117,4.757924259208209
7.317278038129064,-0.9465333875525448,-1.003935698801946,-1.955573743567048,-9.000279549841117,5.013212876509927
7.307812704253539,-1.036536183050956,-1.0234914362376166,-1.9054416148019486,-8.770829366093876,5.29349216924408
7.2974473424230295,-1.1242444767118949,-1.0425458523856361,-1.8525066931095078,-8.531143885302134,5.59680750891325
7.28620489765591,-1.2095559155649163,-1.0610709193167311,-1.7965386180203753,-8.281831731633186,5.921114941974966
7.274109338500261,-1.2923742328812482,-1.079036305496935,-1.7373274686006257,-8.023699612124553,6.264287243216103
7.261185596171448,-1.3726112290024937,-1.0964095801829412,-1.6746845961684647,-7.757745261867063,6.6241223097773005
7.247459483881424,-1.4501886816211642,-1.1131564261446258,-1.6084433730706917,-7.485149926124722,6.998353808140765
7.232957597065212,-1.5250401808824114,-1.1292408598753327,-1.5384598349892842,-7.207270260237295,7.384664095259081
7.217707195256388,-1.5971128834847843,-1.1446254582252255,-1.4646131940366933,-6.925629491398716,7.78069953415449
7.20173606642154,-1.6663691783987715,-1.1592715901655926,-1.3868061986951483,-6.641907655360479,8.184088403402955
7.185072374637552,-1.7327882549523763,-1.1731396521525441,-1.3049653146611189,-6.357930704485407,8.592461648785116
7.167744492088028,-1.7963675619972304,-1.1861893052991552,-1.2190406981732678,-6.07565828959564,9.00347673532404
7.149780816468056,-1.8571241448931868,-1.198379712280888,-1.1290059308200273,-5.797170053590585,9.414844822915079
7.131209575019124,-1.9150958454290927,-1.2096697715890883,-1.0348574825908765,-5.524650344518635,9.824361406620989
7.112058616564833,-1.970342348874279,-1.220018346414997,-0.9366138685246667,-5.260371361368381,10.229940436077689
7.092355193076091,-2.022946062487963,-1.2293844851002436,-0.8343144641638898,-5.00667488548393,10.62965176530226
7.072125732451211,-2.073012811342802,-1.2377276297418824,-0.7280179465108672,-4.76595291863521,11.021761597880925
7.051395604337783,-2.120672340529154,-1.2450078092069912,-0.6178003305320579,-4.540627736222418,11.404775401244512
7.030188880932491,-2.1660786178913782,-1.2511858125123116,-0.5037525765196127,-4.333132058714285,11.77748258934625
7.0085280947535775,-2.209409938478521,-1.2562233382775079,-0.3859777506261502,-4.145890232140505,12.13900213919111
6.986433995368793,-2.250868840799926,-1.2600831157837693,-0.2645877292342391,-3.9813014747260413,12.488828236506848
6.963925306960793,-2.2906818555471866,-1.2627289930761116,-0.13969944686917063,-3.841726378226828,12.826875059585795
6.941018488405321,-2.329099119329455,-1.2641259875448034,-0.011430696273312668,-3.7294779387784827,13.15351992271065
6.917727497212026,-2.3663938987172397,-1.2642402945075366,0.12010450295379382,-3.646818427086693,13.469644218852824
6.894063558224854,-2.4028620829881064,-1.2630392494779987,0.2548009451423221,-3.5959633909270394,13.776671923849788
6.870034937394973,-2.438821716897377,-1.2604912400265755,0.39256766438082,-3.5790940190983256,14.076605839919711
6.845646720225999,-2.47461265708836,-1.2565655633827673,0.5333337227800171,-3.5983789948236495,14.37206224477857
6.820900593655115,-2.5105964470365967,-1.251232226154967,0.6770543452278028,-3.6560068404048907,14.666305144729392
6.7957946291847495,-2.5471565154406455,-1.244461682702689,0.8237173966750968,-3.7542296151234935,14.963281868426401
6.770323064030343,-2.5846988115918803,-1.236224508735938,0.9733502153593608,-3.895418680126112,15.267662235420168
6.744476075914425,-2.6236529983931414,-1.2264910065823444,1.1260268377135625,-4.082133078370952,15.584883928532088
6.718239545930493,-2.664474329176851,-1.2152307382052088,1.2818756769988835,-4.317200859578109,15.921206904698364
6.691594802638725,-2.707646337772632,-1.2024119814352199,1.441087746045867,-4.603813329589336,16.28377956103589
6.664518339260998,-2.7536844710685253,-1.188001103974761,1.603925541656226,-4.945631564961743,16.6807187097246
6.636981494550313,-2.8031407867181426,-1.1719618485581988,1.770732728753472,-5.346903323441499,17.12120382537123
6.608950086683132,-2.8566098199525576,-1.154254521270664,1.9419447670071843,-5.812586197447345,17.615582844016615
6.580383988483606,-2.914735681927031,-1.1348350736005923,2.1181005954473506,-6.348468623316746,18.175480838290113
6.551236631664336,-2.9782203681601986,-1.1136540676461189,2.299855403830252,-6.961272644281367,18.81389209763643
6.521454427982734,-3.0478330946030123,-1.0906555136078164,2.4879943248066163,-7.658708464759149,19.545216863205578
6.490976097036704,-3.124420179250604,-1.0657755703597502,2.683446493438672,-8.44942618575959,20.385169812569085
6.4597318952441976,-3.2089144411082,-1.0389411054253634,2.887298191564363,-9.342766617346957,21.35042720385555
6.427642750833115,-3.302342107281669,-1.0100681235097198,3.1008024636029186,-10.348136857817154,22.45777409757791
6.394619329760299,-3.4058234758598407,-0.9790600988736906,3.3253802045786975,-11.473704011171709,23.722329640883373
6.3605610950017,-3.5205605159715576,-0.9458062968279036,3.562603500987531,-12.723874032359513,25.154113913750102
6.325355489841985,-3.6477992562951527,-0.9101802618180284,3.8141446401250323,-14.094645587182244,26.75169469573302
6.288877497279033,-3.788745712166975,-0.8720388154167781,4.081661587082363,-15.565332014720935,28.490819082681984
6.2509900401573635,-3.9443990323141844,-0.8312221995459544,4.3665697779091825,-17.084295933374744,30.30474550004874
6.211546049834221,-4.115241991647932,-0.7875565017668626,4.66961723290967,-18.545429757994803,32.05170483126474
6.170393629917742,-4.30069628922788,-0.7408603294377659,4.990134281222318,-19.752090685350993,33.464852806667466
6.127386667025463,-4.49821719608139,-0.6909589866255428,5.324782809288992,-20.369038066798282,34.085381888043756
6.082404495064649,-4.701907576749372,-0.6377111585326528,5.6656366281694295,-19.877618749755317,33.199919940235674
6.035385419297156,-4.900683764246925,-0.5810547922509586,5.997635827571786,-17.585406410982163,29.85353860378753
5.986378581654686,-5.076537828356747,-0.5210784339752407,6.296171213609662,-12.795266257286103,23.08484946840418
5.935613203371119,-5.204490490929608,-0.45811672183914404,6.527019708293704,-5.237662714679302,12.528035513948113
5.883568298461823,-5.256867118076401,-0.392846524756207,6.652300063433185,4.3606452755518745,-0.7960113204516878
5.8309996272810585,-5.213260665320882,-0.32632352412187515,6.644339950228669,14.150720607551495,-14.308939197081713
5.77886702062785,-5.071753459245367,-0.2598801246195885,6.501250558257851,22.00759651669714,-25.060310582497372
5.728149486035396,-4.8516774940783955,-0.19486761903700997,6.250647452432878,26.761991464775857,-31.44304653117455
5.679632711094612,-4.584057579430637,-0.1323611445126812,5.936216987121132,28.578875540236034,-33.710304217411704
5.633792135300306,-4.298268824028277,-0.07299897464146987,5.599113944947016,28.35789662832648,-33.130465703952325
5.590809447060023,-4.0146898577450125,-0.017007835191999714,5.267809287907492,27.030268867464528,-31.006391652161426
5.550662548482573,-3.744387169070367,0.03567025768707521,4.957745371385878,25.251866235304707,-28.251728512263536
5.51321867679187,-3.49186850671732,0.08524771140093398,4.6752280862632425,23.397673904752263,-25.386926087284316
5.478299991724697,-3.2578917676697974,0.1319999922635664,4.421358825390399,21.651005147122493,-22.665515119234623
5.445721074047999,-3.0413817161985723,0.17621358051747038,4.194703674198053,20.085785806041663,-20.18941903207021
5.415307256886013,-2.8405238581381558,0.2181606172594509,3.9928094838773505,18.71995791753784,-17.983420671732357
5.386902018304632,-2.6533242789627773,0.2580887120982244,3.8129752771600267,17.54544820086834,-16.03678186099804
5.360368775515004,-2.477869796954094,0.29621846486982467,3.6526074585500465,16.5436909397614,-14.324712199363024
5.335590077545462,-2.31243288755648,0.3327445394553251,3.509360336556416,15.693199279041552,-12.818788131294623
5.312465748669897,-2.1555008947660648,0.3678381428208893,3.38117245524347,14.973010068862813,-11.491658742318469
5.290910739722237,-2.0057707940774367,0.401649867373324,3.266255867820285,14.364070410216152,-10.318912823505698
5.270853031781463,-1.8621300899752753,0.4343124260515268,3.1630667395852283,13.849637123260454,-9.279590639548623
5.25223173088171,-1.7236337187426707,0.4659430934473791,3.070270833189742,13.415229627556705,-8.356085819202015
5.234995393694283,-1.5894814224671037,0.49664580177927653,2.986709974997722,13.048402768742655,-7.533803113128468
5.219100579469612,-1.458997394779677,0.5265129015292538,2.9113719438664374,12.738467125305238,-6.800745825753862
5.204510605521815,-1.3316127235266246,0.5556266209679182,2.8433644856088987,12.47621472951066,-6.147111047831173
5.1911944782865485,-1.206850576231518,0.5840602658240072,2.7818933751305868,12.253673844325569,-5.564923961228721
5.179125972524234,-1.0843138377882624,0.611879199575313,2.7262441355182996,12.063899980372243,-5.047720216413398
5.168282834146351,-0.96367483798454,0.639141640930496,2.675766933354166,11.900802812185136,-4.590275381906957
5.158646085766505,-0.8446668098626886,0.6658993102640376,2.629864179535096,11.759005539142358,-4.188376495521069
5.150199417667878,-0.7270767544712651,0.6921979520593886,2.5879804145798855,11.633732243630716,-3.8386296593380105
5.1429286501231655,-0.610739432034958,0.7180777562051874,2.5495941179865054,11.520718776039853,-3.5382978337464728
5.136821255802816,-0.49553224427455944,0.7435736973850525,2.5142111396490407,11.416143072982782,-3.2851637177450166
5.1318659333600705,-0.3813708135447316,0.7687158087815429,2.4813595024715904,11.316571317853391,-3.0774134751869897
5.128052225224623,-0.2682051003661977,0.7935294038062588,2.4505853677197207,11.218916857720327,-2.913537905505599
5.125370174220961,-0.15601593178899442,0.818035257483456,2.4214499886646648,11.12040924886745,-2.792248389937968
5.123810014903071,-0.04481183930031993,0.8422497573701027,2.3935275047652853,11.018571202564209,-2.7124055468541477
5.123361896510068,0.06537387272532216,0.8661850324177555,2.366403449296744,10.9112015468146,-2.6729590021408303
5.124015635237321,0.17448588819346816,0.8898490669107229,2.3396738592753357,10.796362619006445,-2.672897032697925
5.125760494119256,0.2824495143835326,0.9132458055034762,2.3129448889483566,10.67237076968016,-2.7112050873717184
5.128584989263092,0.3891732220803342,0.9363752543929598,2.2858328380746396,10.537788898609394,-2.786832346245511
5.132476721483895,0.4945511110664282,0.9592335827737062,2.2579645146121843,10.391420167844212,-2.8986655630910834
