th1 (rad),w1 (rad/s),th2 (rad),w2 (rad/s)
4.879601710921502,1.878426649070683,2.299465041572052,-0.42011812585703034
4.898385977412209,1.9924450525172306,2.2952638603134816,-0.3779314239122976
4.9183104279373815,2.108330294889031,2.2914845460743587,-0.3314739108860008
4.939393730886271,2.2260680361186216,2.2881698069654988,-0.28074213099480916
4.961654411247458,2.3455998808061387,2.2853623856555507,-0.22580502247184633
4.985110410055519,2.4668148607279163,2.2831043354308322,-0.1668175342151316
5.0097785586627985,2.5895404540187044,2.2814361600886808,-0.104035178323171
5.035673963202986,2.7135334192269434,2.280395808305449,-0.03782909557402085
5.062809297395256,2.8384708215015886,2.280017517349709,0.031298962213048176
5.091194005610271,2.963941731352629,2.2803305069718394,0.10270251530365594
5.1208334229237975,3.089440175212885,2.281357532124876,0.17557807294481687
5.151727824675926,3.214360000599089,2.2831133128543244,0.24895581939527078
5.183871424681917,3.3379923748458835,2.285602871048277,0.3216945304554497
5.217251348430376,3.4595266531489473,2.2888198163528313,0.392482042821844
5.251846614961866,3.5780553190724533,2.2927446367810496,0.45984257183758254
5.28762716815259,3.69258361280939,2.2973430624994253,0.5221520408082561
5.324553004280684,3.8020443186383144,2.302564582907508,0.5776623368123348
5.362573447467067,3.9053179877367206,2.308341206275631,0.6245350430602918
5.401626627344434,4.001258633882779,2.3145865567062343,0.6608847244625808
5.4416392136832625,4.08872466609709,2.32119540395086,0.6848312755854482
5.482526460344234,4.166614519190136,2.3280437167067145,0.6945601956828079
5.524192605536135,4.233906110086598,2.3349893186635424,0.6883889511296618
5.566531666637001,4.289698879571546,2.3418732081748392,0.6648368397297746
5.609428655432716,4.333256771780209,2.348521576572137,0.6226950106773288
5.652761223150518,4.364050065469931,2.35474852667891,0.5610925661175669
5.696401723805217,4.381793535789025,2.3603594523400857,0.47955405896050995
5.740219659163108,4.386478063846321,2.365154992929691,0.37804333609173624
5.784084439801571,4.378392633459885,2.368935426290608,0.25698872530856304
5.82786836613617,4.358133793098514,2.3715053135436936,0.1172852066279873
5.871449704067155,4.326600237917863,2.3726781656099734,-0.039729424284990295
5.914715706446334,4.284971242601526,2.3722808713671233,-0.2123252878474749
5.957565418872349,4.234669200852101,2.3701576184886486,-0.3984562595244539
5.99991211088087,4.177308315677092,2.366173055893404,-0.5958562502012098
6.041685194037641,4.11463323084576,2.3602144933913918,-0.8021486982255095
6.082831526346099,4.04845274175963,2.3521930064091365,-1.0149603367975544
6.123316053763695,3.9805743682708417,2.342043403041161,-1.2320298600408468
6.163121797446403,3.91274535782957,2.329723104440753,-1.451303072702869
6.202249251024699,3.846604664774447,2.3152100737137244,-1.671008278727609
6.240715297672444,3.7836488605891843,2.2984999909264485,-1.8897085759424181
6.278551786278336,3.725213122322071,2.279602905167024,-2.1063307820243677
6.315803917501556,3.6724667783149254,2.2585395973467803,-2.3201733701599814
6.3525285852847055,3.6264216290816695,2.2353378636451806,-2.530897671950895
6.388792801575522,3.5879505358147625,2.2100288869256715,-2.7385075784007493
6.42467230693367,3.557813573078628,2.182643811141664,-2.943323118546603
6.4602504426644565,3.5366892725327315,2.1532105799561982,-3.1459528371883514
6.495617335389784,3.5252089931184436,2.1217510515843148,-3.3472690928052717
6.530869425320968,3.523993092208275,2.088278360656262,-3.5483894931477464
6.56610935624305,3.5336882201932833,2.0527944657247845,-3.7506668498213567
6.601446238444983,3.555005628129462,2.015287797226571,-3.9556893502025035
6.636996294726278,3.5887607936747714,1.9757309037245459,-4.165292112573177
6.672883902663026,3.6359148533004997,1.9340779825988141,-4.381580808902816
6.70924305119603,3.697618135290869,1.890262174509786,-4.606967377188004
6.746219232548939,3.7752552224252565,1.844192500737906,-4.844216541379353
6.7839717847731915,3.8704888172458487,1.7957503353241124,-5.096499008428703
6.82267667294565,3.9852949650091096,1.7447853452398254,-5.367441024902993
6.862529622595741,4.121972336068372,1.6911109349907956,-5.661146865603571
6.903749345956425,4.283088165916416,1.6344994663347598,-5.9821436848359175
6.946580227615589,4.471283263009762,1.5746780294864007,-6.335143279426795
6.991293060245686,4.688780629488354,1.5113265966921328,-6.724408037481395
7.03818086654057,4.936300551954449,1.4440825163173188,-7.152311686206103
7.087543872060114,5.210862330969076,1.3725593994552576,-7.616373900614338
7.139652495369805,5.501735375201103,1.2963956604491143,-8.103738135904853
7.194669849121816,5.7840986678502295,1.2153582790900657,-8.582457418391096
7.252510835800318,6.012328667196363,1.1295337049061547,-8.99221138753073
7.312634122472281,6.121346687658472,1.0396115910308474,-9.24611100916424
7.373847589348866,6.050366919709352,0.9471504809392051,-9.26343926222397
7.43435125854596,5.786123231961084,0.8545160883169653,-9.029108868862924
7.492212490865571,5.380568235084432,0.7642249996283361,-8.61731905731127
7.546018173216415,4.91306004190215,0.6780518090552234,-8.138547114331033
7.595148773635436,4.443795912439253,0.5966663379119131,-7.675485655710715
7.639586732759828,4.001844699613321,0.519911481354806,-7.267411226725995
7.679605179755962,3.595275132839649,0.4472373690875461,-6.92479000391921
7.7155579310843585,3.2223585494264118,0.37798946904835395,-6.644924891267841
7.747781516578622,2.87796549108387,0.3115402201356755,-6.420747769461553
7.776561171489461,2.556385791623084,0.24733274244105996,-6.244619176301104
7.802125029405691,2.252365215451376,0.18488655067804893,-6.109670928565116
7.824648681560205,1.961388918904916,0.12378984139239776,-6.010125362048451
7.844262570749255,1.6796827172237898,0.06368858777191325,-5.941238187773788
7.861059397921492,1.4041269003486447,0.004276205894175364,-5.899128349518385
7.875100666924979,1.1321574242973569,-0.05471507760100849,-5.880593707546682
7.886422241167953,0.8616802339733005,-0.11352101467647531,-5.8829450826578755
7.895039043507686,0.5910052523048086,-0.17235046550305405,-5.903865950494687
7.900949096030734,0.31879947659464497,-0.2313891250080009,-5.941296386748543
7.904137090796681,0.04405628460612526,-0.2908020888754863,-5.993337649207563
7.904577653642742,-0.23392253866046114,-0.35073546536756195,-6.05817397236006
7.902238428256138,-0.5155355872432573,-0.41131720509116254,-6.134009125875273
7.8970830723837055,-0.8008849133133362,-0.47265729634991527,-6.219016413157989
7.889074223250573,-1.089776855814439,-0.5348474604814951,-6.311301802422429
7.878176454692428,-1.3817240711439807,-0.5979604785057194,-6.4088806649954
7.864359213980989,-1.6759521533607376,-0.6620492851556734,-6.509669055322384
7.847599692447382,-1.9714139954362673,-0.7271459757088973,-6.611490524650202
7.8278855524930195,-2.266814523252515,-0.7932608809553993,-6.712099050827814
7.8052174072604945,-2.560647545041196,-0.8603818714636774,-6.809217765676974
7.779610931810082,-2.851245176919134,-0.9284740491204472,-6.900591818131054
7.751098480040891,-3.136838698999989,-0.9974799673017577,-6.984052076765711
7.719730093050892,-3.4156279443125954,-1.0673204880694147,-7.057584709542438
7.685573813607766,-3.6858546996923773,-1.137896335164839,-7.119400323473961
7.648715266610842,-3.9458744280515488,-1.2090903383995786,-7.1679956591470395
7.609256522330327,-4.1942201979327445,-1.2807702949910489,-7.202201090143276
7.567314320351,-4.429653200085453,-1.3527923058924816,-7.221208473856384
7.5230177883501455,-4.651195622225922,-1.4250043906310454,-7.224576101407081
7.476505832127886,-4.858143715301153,-1.4972501516451162,-7.212210239282185
7.427924394974875,-5.050061233247478,-1.569372254037938,-7.184325543861146
7.3774237826424,-5.226755623818387,-1.6412155094765495,-7.141388956946496
7.325156226404216,-5.388241013375875,-1.7126293990460144,-7.084053179872809
7.271273816270457,-5.534692939741897,-1.7834699308447426,-7.01308631553316
7.215926886873039,-5.666399908867558,-1.8536007940000743,-6.929303829852786
7.159262887784363,-5.7837163117765,-1.9228938322986022,-6.833507858092481
7.101425724666599,-5.887020265814215,-1.991228910879527,-6.726437388778541
7.042555522008456,-5.976678790218375,-2.0584932847673123,-6.608731309338049
6.982788734106272,-6.0530216047373475,-2.124580597860693,-6.480904926989211
6.922258518058898,-6.116323895277398,-2.189389647130585,-6.343339518033212
6.861095279106125,-6.166797689806736,-2.2528230423109172,-6.196283744208152
6.799427302208057,-6.204591035247944,-2.3147858797529985,-6.039865371377241
6.737381391855578,-6.229793924494176,-2.375184533466771,-5.874111559220459
6.675083452610637,-6.2424498345165125,-2.433925649058976,-5.698975974165112
6.612658954265472,-6.242571740933834,-2.490915408800627,-5.514371031622338
6.550233236856133,-6.230161517852386,-2.5460591191168502,-5.32020363520744
6.4879316216776095,-6.205231673573505,-2.5992611554689247,-5.1164128093592245
6.4258793049418745,-6.167828387210019,-2.650425283562517,-4.903007599467364
6.364201021069774,-6.1180547878884655,-2.6994553595571906,-4.6801035434280545
6.303020473190889,-6.056093361303259,-2.7462563949914713,-4.44795592300643
6.242459539577856,-5.982226295838744,-2.7907359542215358,-4.2069879216030435
6.182637276619469,-5.896852521902104,-2.832805833437566,-3.957811798360391
6.123668751400448,-5.800500191291827,-2.87238395142117,-3.701241293719364
6.06566374948753,-5.693833428464424,-2.9093963643583636,-3.4382937605383743
6.0087254152028855,-5.577652396604134,-2.9437793019637475,-3.170181002123364
5.9529488912368445,-5.452886076779481,-2.975481111984981,-2.8982884971013263
5.898420030469049,-5.3205776513474365,-3.0044639969559945,-2.62414356190155
5.845214253955575,-5.181862975331578,-3.0307054325750102,-2.3493739597222434
5.793395624202259,-5.0379432438609255,-3.0541991721722326,-2.0756593869598587
5.74301619176365,-4.890053531338104,-3.074955766041831,-1.8046790125072663
5.694115656450269,-4.739429296727145,-3.0930025561669034,-1.5380586815135502
5.646721363482998,-4.587273144712433,-3.108383142982039,-1.277321435307262
5.6008486320358735,-4.434724066489729,-3.1211563573351118,-1.0238446223383404
5.556501391370976,-4.282831065693206,-3.131394803558495,-0.7788261356338516
5.513673080714044,-4.1325325590400395,-3.1391830649148336,-0.5432613290637882
5.472347755123644,-3.9846423144696623,-3.1446156782054713,-0.31793109310621115
5.432501331978947,-3.8398420501289214,-3.1477949891365333,-0.10340056776283943
5.394102911477658,-3.698680253766704,-3.1488289948141617,0.09997283788062941
5.357116108939991,-3.5615763560863147,-3.1478292664353553,0.2920239881589831
5.321500345379127,-3.428829132100261,-3.1449090265537656,0.4727592437817688
5.2872120540581244,-3.300628108589516,-3.1401814341159477,0.6423324743010081
5.254205772972229,-3.1770667968724906,-3.1337581093729376,0.8010197617455619
5.2224351050035045,-3.058156709002836,-3.125747911755482,0.949194365070238
5.1918535379134765,-2.9438413104971954,-3.1162559681047797,1.0873031287044497
5.162415124808504,-2.834009276970553,-3.105382936817735,1.2158451344755696
5.1340750320387984,-2.728506627881553,-3.0932244854729793,1.3353530533456226
5.106789965759983,-2.6271474902783183,-3.079870954939523,1.4463773729778924
5.0805184908572,-2.529723390315639,-3.065407181209744,1.549473465973065
5.055221256954043,-2.4360110786192,-3.0499124465500134,1.6451913184023754
5.030861146167851,-2.3457789700830975,-3.0334605333659894,1.7340676498167589
5.00740335646702,-2.258792324647678,-3.016119856867822,1.8166201124997816
4.984815433220543,-2.1748173191402898,-2.997953655742824,1.8933432474787482
4.96306726002914,-2.0936241673306735,-2.9790202232680363,1.9647058870930527
4.942131018355833,-2.0149894411638076,-2.959373164397106,2.031149720039616
4.921981123944195,-1.9386977349000591,-2.9390616671967096,2.0930887681297836
4.902594146595194,-1.8645427988142926,-2.918130779515412,2.150909559754011
4.883948718607051,-1.7923282524689697,-2.896621683917872,2.204971820099772
4.866025436082362,-1.7218679709151308,-2.874571965716874,2.2556095305797883
4.848806756373211,-1.652986221439557,-2.8520158704110763,2.30313223868334
4.832276894158816,-1.5855176141878784,-2.828984548024243,2.3478265241713023
4.816421718016937,-1.5193069173749485,-2.80550628278253,2.389957548210526
4.801228648843187,-1.4542087768721612,-2.781606707300425,2.4297706289431944
4.7866865610744656,-1.3900873706435573,-2.757309001010993,2.4674928004974532
4.77278568736803,-1.3268160206306259,-2.732634073006018,2.5033343230034673
4.759517527161724,-1.2642767780746547,-2.7076007297759834,2.5374901192234427
4.746874759380978,-1.2023599927282917,-2.682225828583749,2.570141119350438
4.734851159453695,-1.1409638717716406,-2.6565244173902447,2.6014554997575168
4.723441520735978,-1.0799940303635187,-2.6305098623926697,2.631589804324909
4.712641580432343,-1.019363032505898,-2.6041939643494207,2.660689938740589
4.702447950107284,-0.9589899181922868,-2.5775870649620147,2.6888920291310603
4.692858050925361,-0.8987997105967043,-2.550698144670704,2.7163231367841507
4.683870053819394,-0.8387228953218704,-2.5235349133028624,2.743101820810657
4.675482824866175,-0.778694862481029,-2.496103895094756,2.769338540587205
4.667695876241365,-0.7186553016886157,-2.468410509688884,2.795135889959424
4.6605093232244785,-0.658547539962543,-2.4404591507892897,2.820588655696696
4.653923847824853,-0.5983178132026065,-2.412253264232323,2.845783693815164
4.647940669692827,-0.5379144634306199,-2.3837954272941713,2.8707996193610086
4.642561525058521,-0.47728705648996833,-2.355087431100561,2.8957063082966266
4.6377886544936215,-0.41638541852738703,-2.326130368017595,2.920564214455925
4.633624800308348,-0.355158594409738,-2.2969247258730356,2.945423510277972
4.63007321436425,-0.29355373729917844,-2.267470490770256,2.9703230672562033
4.627137676991259,-0.23151494587132904,-2.237767260097694,2.995289300701961
4.624822527532546,-0.1689820739445731,-2.2078143670906742,3.020334913309582
4.6231327067931,-0.10588954627646373,-2.1776110179575783,3.045457582726053
4.622073811330335,-0.042165223481891806,-2.1471564421303175,3.070638649249048
4.6216521590955155,0.022270632245319055,-2.116450055637827,3.0958418700445125
4.621874865417968,0.08750623153486592,-2.085491636937382,3.1210123148074786
4.6227499277333175,0.15363890824964557,-2.0542815137893076,3.1460754833340894
4.624286316815814,0.22077548017131776,-2.022820758955967,3.1709367267022244
4.626494071617527,0.2890322570873619,-1.9911113916889445,3.1954810494235804
4.629384394188401,0.3585346415802308,-1.9591565811947087,3.219573359059883
4.632969740604203,0.42941628178285396,-1.9269608476041098,3.2430592119277177
4.637263903422031,0.5018177550274179,-1.8945302554848327,3.2657660789288596
4.642282080972305,0.5758847858743757,-1.8618725946955441,3.2875051254395014
4.6480409288310485,0.6517660298766936,-1.8289975434411492,3.3080734657798025
4.654558589129816,0.7296104832767464,-1.7959168087833512,3.327256819195378
4.661854693962583,0.8095646057631177,-1.7626442405913976,3.3448324642933183
4.669950340020215,0.8917692653313326,-1.7291959159484644,3.3605723664473923
4.678868032673528,0.9763566283328836,-1.6955901922839904,3.374246341359015
4.688631598956857,1.0634471218197494,-1.6618477288704003,3.3856251202154333
4.699266070175055,1.1531465882945695,-1.627991477668246,3.394483198624632
4.710797536058,1.2455437353392127,-1.5940466456819997,3.400601381761866
4.723252973411392,1.340707956073287,-1.5600406318643811,3.4037689791570473
4.736660052972125,1.438687563852885,-1.5260029420728107,3.4037856500988917
4.751046928610654,1.539508449543713,-1.4919650855718218,3.400462949815137
4.766442013106091,1.643173135604275,-1.4579604560736705,3.393625672567039
4.782873744462134,1.7496601710652213,-1.424024199348,3.383113126550208
4.8003703461727865,1.8589237872993938,-1.3901930680824979,3.368780504351192
4.81895958404578,1.9708937170953138,-1.356505263038986,3.3505005305618587
4.838668521216733,2.0854750687181705,-1.3230002577333675,3.3281655753427244
4.859523271903915,2.202548141256229,-1.2897186019799403,3.301690420661327
4.881548753316477,2.321968066031058,-1.256701697773327,3.271015856545125
4.904768433976788,2.4435641595975657,-1.2239915392078757,3.2361132698374515
4.9292040755727635,2.5671388756820566,-1.1916304065095011,3.1969903688442627
4.954875464329584,2.6924662459004933,-1.1596605028210585,3.1536981639894464
4.981800126788589,2.81928970297695,-1.128123521181164,3.1063392956959532
5.0099930238183585,2.9473191875478006,-1.0970601282242045,3.0550777628359893
5.039466215693836,3.076227454221809,-1.0665093505958447,3.000150052741658
5.070228490236055,3.2056455199061458,-1.0365078500684282,2.9418775990829076
5.102284945435116,3.33515724489629,-1.007089074077599,2.8806803867077155
5.135636517884079,3.4642931138901654,-0.9782822702105219,2.8170913707048664
5.17027944902298,3.5925233998293002,-0.9501113565034732,2.7517711677523167
5.206204683021274,3.7192510574122837,-0.9225936448259501,2.6855222004993546
5.2433971935953965,3.8438049105617234,-0.8957384228209565,2.6193011262101025
5.281835242701014,3.9654339656793316,-0.8695454115588555,2.5542279690652254
5.321489582357807,4.083303981421058,-0.8440031318682032,2.4915899352650444
5.362322622172018,4.196497713963919,-0.8190872325155527,2.4328374907024437
5.404287599311657,4.304020462523997,-0.7947588576085283,2.379570036394795
5.447327803936897,4.404812560905405,-0.7709631572445803,2.3335085856917535
5.491375929545951,4.497770175991396,-0.7476280713876627,2.2964534139278774
5.5363536313058646,4.581775074170565,-0.724663537248384,2.2702258783189357
5.58217138204757,4.655732856134909,-0.7019612784651946,2.2565955557326953
5.628728710608919,4.718617619798495,-0.6793953229078676,2.257196385674248
5.675914886806904,4.769519343588853,-0.6568233590511252,2.2734382370928286
5.723610080242793,4.807688905836932,-0.6340889766801969,2.3064225892298786
5.771686969301162,4.832575057029322,-0.6110247507878981,2.356872068749023
5.820012719871455,4.843848218512622,-0.5874560301004078,2.4250828172110186
5.8684512020565816,4.841407769540329,-0.5632052019282976,2.5109059298964214
5.916865279751985,4.825372172350436,-0.5380961426293334,2.613759986984262
5.965119001475489,4.796054201765699,-0.5119585427594907,2.732671998598863
6.013079543493146,4.75392592063647,-0.4846318227735021,2.8663400929527882
6.06061880269951,4.6995792990878025,-0.4559684218439742,3.0132089122661263
6.1076145956903884,4.633688332584423,-0.42583633272131294,3.171548285116145
6.153951479016233,4.556977396836073,-0.3941208498701515,3.3395270397715526
6.199521252984594,4.470198864698743,-0.360725579472436,3.5152761319460564
6.244223241631581,4.374121216213803,-0.32557281815297545,3.696937818599498
6.28796445379372,4.269527380230697,-0.28860343996698046,3.882699826424551
6.330659727596027,4.157222036000514,-0.24977644170273494,4.070815036772354
6.372231947956032,4.038046075953583,-0.2090682913350114,4.259608104645315
6.412612408715568,3.91289627071063,-0.16647221028855824,4.447470794267718
6.451741371422674,3.7827482197858866,-0.12199750234588105,4.632847874699733
6.489568853620533,3.6486807509147177,-0.07566902359888372,4.814215411571587
6.52605566112968,3.5118999055382427,-0.02752686948316785,4.990053420304855
6.5611746601850625,3.373760410222822,0.022373664719880705,5.158815269455414
6.594912264287291,3.235782020932036,0.07396181741443485,5.318897036334884
6.627270084496611,3.0996573427648855,0.12715078777778369,5.468611229318732
6.658266657924259,2.9672467823564794,0.181836900070971,5.606170771364715
6.687939125747824,2.8405554560807453,0.23789860778461816,5.729690543186058
6.716344680308631,2.7216866366179655,0.29519551321647874,5.837214487688489
6.743561546674811,2.6127673517529115,0.35356765809336366,5.926775383030918
6.76968922019234,2.5158447731864455,0.41283541192367285,5.996490922336439
6.794847667924205,2.432757451108835,0.47280032114703724,6.044693102321492
6.819175242435293,2.364992813569097,0.5332472521702522,6.070078615862219
