th1 (rad),w1 (rad/s),th2 (rad),w2 (rad/s),a1 (rad/s^2),a2 (rad/s^2)
1.8807719435568295,-0.3963903835398477,2.3707347184407745,0.820137406180579,-10.036596801955026,1.9536940320653002
1.876808039721431,-0.49675635155939796,2.37893609250258,0.839674346501232,-9.995954395448964,1.8730132767212835
1.8718404762058372,-0.5967158955138876,2.3873328359675927,0.8584044792684448,-9.946851500835189,1.76818551200046
1.8658733172506983,-0.6961844105222394,2.3959168807602773,0.8760863343884494,-9.88910564579843,1.6381456360123128
1.858911473145476,-0.7950754669802238,2.404677744104162,0.8924677907485725,-9.822657462876789,1.4819250876791619
1.8509607184756736,-0.8933020416089917,2.4136024220116474,0.9072870416253641,-9.74760159832598,1.2987007316216568
1.8420276980595836,-0.9907780575922516,2.422675292427901,0.9202740489415807,-9.664211949724809,1.087836910658982
1.832119917483661,-1.0874201770894996,2.4318780329173166,0.9311524180481705,-9.572959260236573,0.8489178349561516
1.8212457157127662,-1.1831497696918654,2.441189557097798,0.939641596397732,-9.474519460036978,0.5817679668179977
1.8094142180158475,-1.2778949642922353,2.4505859730617754,0.9454592760659121,-9.369771687188244,0.28645881067461726
1.7966352683729252,-1.3715926811641177,2.4600405658224345,0.9483238641726582,-9.259785599441843,-0.03669852522648699
1.782919341561284,-1.4641905371585362,2.469523804464161,0.9479568789203934,-9.145798338170527,-0.38717455590799094
1.7682774361896987,-1.5556485205402415,2.479003373253365,0.9440851333613135,-9.029182242505698,-0.7642549218970079
1.7527209509842963,-1.6459403429652986,2.4884442245869782,0.9364425841423434,-8.911405048988534,-1.1670836992621694
1.7362615475546432,-1.7350543934551839,2.497808650428402,0.9247717471497217,-8.793984774010605,-1.594713324545885
1.7189110036200914,-1.82299424119529,2.507056367899899,0.9088246139042628,-8.678441711539566,-2.046157519861446
1.7006810612081384,-1.9097786583106857,2.5161446140389416,0.8883630387056484,-8.566249968088119,-2.520443516704224
1.6815832746250317,-1.995441157991567,2.525028244425998,0.8631586035386061,-8.458790715946956,-3.016660109344486
1.661628863045116,-2.0800290651510367,2.533659830461384,0.8329920024451613,-8.357308919424463,-3.5339985625336197
1.6408285723936056,-2.1636021543452815,2.5419897504858358,0.797652016819825,-8.262874742265609,-4.071784067929311
1.6191925508501528,-2.2462309017679374,2.549966270654034,0.7569341761405319,-8.176350250422649,-4.629496191989649
1.5967302418324734,-2.327994404272164,2.557535612415439,0.7106392142206355,-8.098361451808687,-5.206777493108853
1.5734502977897518,-2.408978018790251,2.5646420045576455,0.658571439289547,-8.029275219408737,-5.803430133630791
1.5493605176018492,-2.4892707709843385,2.571227718950541,0.600537137953239,-7.969180263811015,-6.419400825018087
1.524467809892006,-2.5689625736224486,2.5772330903300733,0.5363431297030582,-7.917871074367592,-7.0547548015363395
1.4987781841557815,-2.6481412843661247,2.582596521627104,0.4657955816876948,-7.874833636538388,-7.709639723997905
1.4722967713121202,-2.7268896207315088,2.587254477443981,0.38869918444771573,-7.839231745933443,-8.384240494347958
1.4450278751048051,-2.805281938190843,2.5911414692884582,0.3048567795042362,-7.809892859412997,-9.078725950520269
1.4169750557228966,-2.883380866784973,2.5941900370835005,0.21406951999903348,-7.78529263023299,-9.793188351207329
1.388141247055047,-2.961233793087303,2.5963307322834908,0.1161376364869602,-7.76353754883563,-10.52757649459513
1.358528909124174,-3.0388691685756593,2.5974921086483604,0.0108618715410089,-7.742345438217353,-11.28162328298605
1.3281402174384174,-3.116292622957833,2.5976007273637705,-0.1019543612888516,-7.719023921943443,-12.054768580193675
1.296977291208839,-3.1934828621772673,2.596581183750882,-0.22250204709078836,-7.690447386828612,-12.846078337368269
1.2650424625870664,-3.2703873360455535,2.5943561632799743,-0.3509628304644711,-7.653033396643733,-13.654161204679209
1.232338589226611,-3.3469176700119907,2.59084653497533,-0.4875044425112632,-7.602719974084845,-14.47708421213315
1.1988694125264912,-3.4229448697528393,2.585971490550217,-0.6322752846325947,-7.534945649988977,-15.31228959497018
1.1646399638289628,-3.498294326252729,2.579648737703891,-0.7853981805822965,-7.444634671421911,-16.15651544971426
1.1296570205664356,-3.572740672966948,2.5717947558980683,-0.9469633350794391,-7.326190247078785,-17.005723616543055
1.093929613836766,-3.646002575437736,2.562325122547274,-1.1170205712448698,-7.173499163885422,-17.85503895918687
1.0574695880823886,-3.71773756707659,2.5511549168348253,-1.2955709608367385,-6.97995149691032,-18.698705006984927
1.0202922124116227,-3.7875370820456933,2.538199207226458,-1.4825580109065877,-6.738479408950766,-19.530061671001597
0.9824168415911658,-3.854921876135201,2.523373627117392,-1.6778586276166036,-6.441619139462649,-20.341551367820458
0.9438676228298138,-3.9193380675298273,2.506595040841226,-1.8812741412948082,-6.08160014979355,-21.124760288491537
0.9046742421545155,-3.980154069027763,2.487782299428278,-2.0925217441797237,-5.650464953582656,-21.87050163585528
0.8648727014642379,-4.036658718563589,2.466857081986481,-2.3112267605382764,-5.140222349415331,-22.568947320306556
0.824506114278602,-4.0880609420577425,2.4437448143810983,-2.536916233741342,-4.543035526834036,-23.209813760159847
0.7836255048580245,-4.133491297326083,2.418375652043685,-2.7690143713429407,-3.8514447913417538,-23.78260600596501
0.7422905918847637,-4.172005745239501,2.3906855083302556,-3.006840431402591,-3.0586224268544324,-24.276922356564928
0.7005705344323686,-4.202591969508045,2.36061710401623,-3.24960965496824,-2.1586544936287795,-24.682818956253826
0.6585446147372882,-4.224178514444334,2.3281210074665473,-3.4964378445307784,-1.1468411928123678,-24.991230602082293
0.6163028295928449,-4.235646926372457,2.2931566290212393,-3.7463501505516015,-0.02000390884959597,-25.19444024613676
0.5739463603291203,-4.2358469654609525,2.2556931275157233,-3.998294553012969,1.22321668197895,-25.286585606484323
0.5315878906745107,-4.223614798641163,2.2157101819855938,-4.251160409077812,2.582090755691293,-25.264187127217863
0.4893517426880991,-4.197793891084251,2.1731985778948157,-4.503802280349991,4.053580445884374,-25.12667755889628
0.4473738037772566,-4.157258086625407,2.128160555091316,-4.755069055938954,5.632197295915368,-24.876910070918274
0.4058012229110025,-4.100936113666253,2.0806098645319264,-5.003838156648136,7.30996292126901,-24.52161957663806
0.36479186177434,-4.027836484453563,2.030571482965445,-5.249054352414517,9.07649946891535,-24.071811484240953
0.32451349692980436,-3.93707148976441,1.9780809394413,-5.489772467256927,10.919273872400751,-23.543054095323043
0.28514278203216026,-3.8278787510404024,1.9231832147687307,-5.7252030082101575,12.824014549835503,-22.955656064151526
0.24686399452175622,-3.6996386055420474,1.865931184686629,-5.954759568851673,14.775310876816285,-22.334719247021845
0.20986760846633576,-3.5518854967738847,1.8063835889981124,-6.178106761321891,16.757394690446674,-21.71007008013692
0.1743487534985969,-3.384311549869418,1.7446025213848935,-6.395207462123261,18.75508994290479,-21.116088867640563
0.14050563799990273,-3.19676065044037,1.680650446763661,-6.6063683507996664,20.75490256474568,-20.591474704180133
0.10853803149549904,-2.989211624792913,1.6145867632556643,-6.812283097841468,22.746208893890163,-20.17900174534112
0.0786459152475699,-2.7617495358540114,1.5464639322772495,-7.014073115294879,24.722488395302502,-19.925336291269407
0.05102841988902979,-2.5145246519009863,1.4763232011243008,-7.2133264782075734,26.68253376778952,-19.880987703680397
0.02588317337001993,-2.247699314223091,1.404189936342225,-7.412136355244377,28.631553957024664,-20.10044989104429
0.0034061802277890185,-1.9613837746528444,1.3300685727897812,-7.61314085415482,30.582050598821663,-20.64253679594451
-0.016207657518739427,-1.6555632686646278,1.2539371642482329,-7.819566222114266,32.554269258861964,-21.570791657643397
-0.03276329020538571,-1.330020576076008,1.1757415020270903,-8.0352741386907,34.57584921687152,-22.953587824696548
-0.04606349596614579,-0.9842620839072929,1.0953887606401833,-8.264810016937664,36.67991095289354,-24.862997821647205
-0.05590611680521872,-0.6174629743783574,1.0127406604708067,-8.513439995154137,38.90001359299222,-27.370397856877574
-0.062080746549002294,-0.22846283844843523,0.9276062605192653,-8.787143973722912,41.258766450365975,-30.534518078194992
-0.06436537493348665,0.1841248260552245,0.8397348207820362,-9.092489154504863,43.74362118700696,-34.37315756174157
-0.0625241266729344,0.621561037925294,0.7488099292369876,-9.436220730122278,46.257309924422906,-38.80131521452277
-0.056308516293681464,1.084134137169523,0.6544477219357648,-9.824233882267505,48.52061333585415,-43.50452704540275
-0.045467174921986236,1.5693402705280646,0.5562053831130898,-10.259279152721533,49.89539969363652,-47.701367570192666
-0.02977377221670559,2.06829426746443,0.4536125915858744,-10.736292828423458,49.11157173740586,-49.76743597902004
-0.00909082954206129,2.5594099848384886,0.3462496633016398,-11.23396718821366,44.01246834411161,-46.867784494340164
0.016503270306323595,2.9995346682796047,0.2339099914195032,-11.702645033157062,31.848063710188946,-35.31051569962367
0.04649861698911964,3.3180153053814943,0.11688354108793257,-12.055750190153299,11.167451061485831,-13.056896677240465
0.07967877004293458,3.4296898159963525,-0.003673960813600427,-12.186319156925704,-14.833121909875546,15.796952859124643
0.11397566820289812,3.281358596897597,-0.12553715238285745,-12.028349628334457,-38.08196619899067,40.776224112706
0.1467892541718741,2.9005389349076904,-0.245820648666202,-11.620587387207397,-52.08536382714783,53.72610309875843
0.175794643520951,2.379685296636212,-0.362026522538276,-11.083326356219812,-56.896380663611524,55.23591928985261
0.1995914964873131,1.8107214900000965,-0.47285978610047413,-10.530967163321286,-56.23612860928997,50.498942660925415
0.2176987113873141,1.2483602039071968,-0.578169457733687,-10.025977736712031,-53.346508229450464,43.79372561621
0.23018231342638606,0.7148951216126922,-0.6784292351008073,-9.588040480549932,-49.94058133327757,37.258788428494675
0.23733126464251297,0.21548930827991647,-0.7743096399063066,-9.215452596264985,-46.697782683374946,31.66353924983678
0.23948615772531215,-0.251488518553833,-0.8664641658689565,-8.898817203766617,-43.805906822041266,27.162105770423317
0.23697127253977382,-0.6895475867742457,-0.9554523379066227,-8.627196146062383,-41.25736917508602,23.685112703467308
0.23007579667203137,-1.102121278525106,-1.0417242993672464,-8.390345019027711,-38.98021619572014,21.102938754034035
0.2190545838867803,-1.4919234404823074,-1.1256277495575235,-8.17931563148737,-36.89045113699593,19.284599179150817
0.20413534948195725,-1.8608279518522668,-1.2074209058723973,-7.986469639695862,-34.91122620653407,18.11475595954256
0.18552706996343457,-2.2099402139176076,-1.287285602269356,-7.805322080100437,-32.97893030442154,17.495415306741144
0.1634276678242585,-2.539729516961823,-1.3653388230703603,-7.630367927033025,-31.044370427866436,17.342819291527423
0.13803037265464027,-2.8501732212404876,-1.4416425023406905,-7.456939734117751,-29.072246841595593,17.583487617461167
0.1095286404422354,-3.1408956896564435,-1.5162118996818679,-7.281104857943139,-27.040089254597067,18.150793825589464
0.07811968354567096,-3.4112965822024144,-1.5890229482612992,-7.099596919687244,-24.937020815611156,18.982473257709646
0.04400671772364682,-3.660666790358526,-1.6600189174581717,-6.909772187110147,-22.76242392339326,20.019087725146782
0.007400049820061552,-3.888291029592459,-1.7291166393292732,-6.709581309858679,-20.524497663166304,21.203332397477865
-0.03148286047586304,-4.093536006224122,-1.79621245242786,-6.497547985883901,-18.23869576621927,22.480018247119123
-0.07241822053810426,-4.275922963886314,-1.861187932286699,-6.2727478034127095,-15.926061483085151,23.796545985137815
-0.1151774501769674,-4.435183578717166,-1.9239154103208262,-6.034782343561331,-13.611506292508766,25.10368786916551
-0.15952928596413907,-4.571298641642254,-1.9842632337564396,-5.783745464869676,-11.322101134321981,26.356507104249918
-0.2052422723805616,-4.684519652985474,-2.0421006884051365,-5.520180393827177,-9.08545743599759,27.51526837773772
-0.25208746891041633,-4.775374227345449,-2.0973024923434083,-5.2450277100498,-6.928270818213859,28.546224292898422
-0.29984121118387086,-4.844656935527588,-2.1497527694439063,-4.959565467120815,-4.875086078579712,29.422197040580812
-0.3482877805391468,-4.893407796313386,-2.199348424115114,-4.665343496715007,-2.9473221967476793,30.122908411611895
-0.39722185850228064,-4.922881018280862,-2.246001859082264,-4.364114412598888,-1.1625749115298538,30.635040952013902
-0.44645066868508926,-4.934506767396161,-2.289643003208253,-4.057764003078749,0.46580491375529426,30.952036947271633
-0.4957957363590509,-4.929848718258608,-2.3302206432390404,-3.748243633606033,1.9288746152008673,31.07365972445198
-0.545094223541637,-4.910559972106599,-2.367703079575101,-3.437507036361513,3.222033761131222,31.00535420894938
-0.5941998232627029,-4.878339634495287,-2.402078149938716,-3.1274534942720194,4.344765612983034,30.757451823911772
-0.6429832196076558,-4.834891978365457,-2.433352684881436,-2.8198789760329017,5.300227210973851,30.344269530966642
-0.6913321393913103,-4.781889706255718,-2.461551474641765,-2.5164362807232354,6.09473110161613,29.783154504612178
-0.7391510364538675,-4.7209423952395575,-2.4867158374489975,-2.2186047356771135,6.7371612507450935,29.093524679567807
-0.7863604604062631,-4.653570782732107,-2.5089018848057685,-1.9276694888814354,7.238363127461146,28.295951191003308
-0.8328961682335841,-4.581187151457495,-2.528178579694583,-1.6447099769714022,7.610543497206186,27.41132171567569
-0.8787080397481591,-4.505081716485433,-2.544625679464297,-1.3705967598146453,7.86670944226461,26.460114451894434
-0.9237588569130135,-4.426414622062787,-2.5583316470624435,-1.1059956152957011,8.020169028516282,25.46180183944107
-0.9680230031336414,-4.346212931777624,-2.5693916032154007,-0.8513775969012904,8.08410849378839,24.434392217581724
-1.0114851324514176,-4.265371846839741,-2.5779053791844135,-0.6070336747254732,8.071253524305924,23.39410754163765
-1.054138850919815,-4.184659311596682,-2.5839757159316683,-0.3730925993090967,7.993615715933961,22.35518690489803
-1.095985444035782,-4.104723154437342,-2.5877066419247594,-0.1495407302601164,7.862320122793567,21.329799478809544
-1.1370326755801554,-4.026099953209406,-2.5892020492273606,0.06375726452797903,7.687506100430228,20.32804674891409
-1.1772936751122496,-3.9492248922051036,-2.5885644765820808,0.26703773201711994,7.478291467790379,19.358032417132844
-1.2167859240343006,-3.8744419775271997,-2.5858940992619095,0.4606180561884484,7.2427891882679685,18.425978665051446
-1.2555303438095726,-3.80201408564452,-2.581287918700025,0.6448778428389629,6.988166044170129,17.536369118877282
-1.2935504846660177,-3.7321324252028187,-2.5748391402716355,0.8202415340277357,6.720733842785297,16.692101309298927
-1.330871808918046,-3.6649250867749656,-2.566636724931358,0.9871625471207249,6.446065236806869,15.894634234853713
-1.3675210597857956,-3.600464434406897,-2.5567650994601507,1.1461088894692621,6.169127985028057,15.144119492057937
-1.4035257041298645,-3.5387731545566163,-2.545304010565458,1.2975500843898415,5.894433173019098,14.439507150697915
-1.4389134356754307,-3.479828822826425,-2.5323285097215598,1.4419451558968208,5.62619433341785,13.778620104907988
-1.473711723903695,-3.4235668794922467,-2.5179090581625916,1.5797313569459006,5.368495325189455,13.15819315895791
-1.5079473926986176,-3.3698819262403523,-2.5021117445931327,1.7113132885354798,5.125464986945022,12.573875923526652
-1.541646211961021,-3.318627276370902,-2.484998611707778,1.8370520477707464,4.9014556294652225,12.02020220669349
-1.5748324847247301,-3.2696127200762497,-2.46662809123007,1.9572540698376812,4.701219922563426,11.490533691835294
-1.6075286119254926,-3.2226005208506154,-2.4470555505316933,2.0721594067560343,4.530076086218477,10.976993199516908
-1.6397546171339987,-3.1772997599884305,-2.426333956464133,2.1819293387512033,4.394043879803641,10.470413716950318
-1.6715276147338831,-3.1333593211903943,-2.404514663076621,2.2866334759207065,4.299923201155982,9.960344426900585
-1.702861207945787,-3.0903600891788345,-2.381648328317414,2.3862369201897122,4.255273256727586,9.43517411869851
-1.7337648088375754,-3.0478073566115587,-2.3577859591155166,2.4805886613766974,4.268234763996953,8.882453563469555
-1.764242882403691,-3.0051250089715893,-2.3329800725017495,2.569413197011393,4.347124696164226,8.289515887136087
-1.794294132493407,-2.9616537620099472,-2.3072859405316355,2.6523083558827536,4.499731005909123,7.644496129538707
-1.8239106701135064,-2.916656451950856,-2.280762856972808,2.728753317178141,4.7322567708857814,6.93781972811837
-1.8530772346330149,-2.869333884241998,-2.2534753238010268,2.7981315144593246,5.047925446580177,6.164142259436251
-1.8817705734754349,-2.818854629776196,-2.2254940086564337,2.859772937053687,5.445373142420806,5.3245633503146435
-1.9099591197731969,-2.764400898351988,-2.196896279285897,2.9130185705568334,5.917112873501338,4.428716761307543
-1.9376031287567168,-2.7052297696169747,-2.1677660935803287,2.957305738169909,6.448515651002328,3.4961181551883618
-1.9646554264528866,-2.6407446131069516,-2.1381930361986297,2.992266919721793,7.017826644659076,2.5560543478036366
-1.991062872583956,-2.5705663466603608,-2.1082703670014116,3.017827463199829,7.597617216018439,1.6454679164567885
-2.01676853605056,-2.494590174500176,-2.0780920923694133,3.034282142364397,8.1577143575668,0.8047981486162933
-2.0417144377955614,-2.413013030924508,-2.0477492709457694,3.04233012385056,8.669130638189566,0.07246474614553577
-2.0658445681048065,-2.3263217245426127,-2.017325969707264,3.0430547713120153,9.108068480715215,-0.5206973670622469
-2.0891077853502327,-2.2352410397354605,-1.9868954219941437,3.0378477976413927,9.45895180233441,-0.955587655320503
-2.111460195747587,-2.1406515217121163,-1.9565169440177297,3.028291921088188,9.715750100583355,-1.2265608994680857
-2.1328667109647084,-2.043494020706283,-1.926234024806848,3.016026312093507,9.881456364943682,-1.3405510851031348
-2.153301651171771,-1.944679457056846,-1.896073761685913,3.0026208012424758,9.966155041739817,-1.3142359157558843
-2.1727484457423394,-1.8450179066394479,-1.8660475536734882,2.9894784420849168,9.98441793628261,-1.1702948558401096
-2.191198624808734,-1.7451737272766217,-1.836152769252639,2.9777754935265155,9.95273798279061,-0.9337632136308956
-2.2086503620815003,-1.6456463474487155,-1.8063750143173738,2.9684378613902065,9.887469443219162,-0.6291363449551789
-2.2251068255559874,-1.5467716530165239,-1.7766906357034717,2.9621464979406547,9.803455512223854,-0.27846876719094543
-2.2405745420861525,-1.4487370978942853,-1.747069170724065,2.9593618102687453,9.713306347299973,0.0995944697967225
-2.2550619130650955,-1.3516040344212856,-1.7174755526213776,2.9603577549667124,9.627178201554841,0.49007318870962063
-2.2685779534093085,-1.2553322524057373,-1.6878719750717106,2.9652584868538088,9.552878821292238,0.8814465576068218
-2.2811312759333657,-1.159803464192815,-1.6582193902031725,2.974072952429877,9.496148507482019,1.2652022550814952
-2.292729310575294,-1.0648419791179948,-1.6284786606788737,2.986724974980692,9.46100834462015,1.635294705593136
-2.3033777303664738,-0.9702318956717934,-1.5986114109290668,3.0030779220366233,9.45010796653414,1.9876079155705115
-2.3130800493231916,-0.875730816006452,-1.5685806317087005,3.0229540011923284,9.465036883333195,2.3194731143956315
-2.3218373574832563,-0.7810804471731201,-1.5383510916967773,3.0461487323362846,9.506584623747647,2.629261150009532
-2.3296481619549874,-0.6860146009356436,-1.5078896043734145,3.07244134383638,9.574947549689197,2.916051734479027
-2.3365083079643436,-0.5902651254387516,-1.4771651909350507,3.10160186118117,9.669886719619281,3.1793724929229716
