th1 (rad),w1 (rad/s),th2 (rad),w2 (rad/s),a1 (rad/s^2),a2 (rad/s^2)
0.6507384368563661,2.4135371013036195,0.44323703582722446,-1.3343658425967042,-8.922882765980368,5.728663055180896
0.6748738078694023,2.324308273643816,0.42989337740125744,-1.2770792120448953,-9.39754420296032,6.342854833575321
0.6981168906058405,2.230332831614213,0.4171225852808085,-1.213650663709142,-9.766590756728224,6.792710814841836
0.7204202189219826,2.1326669240469305,0.40498607864371705,-1.1457235555607237,-10.041578060977796,7.09589177344441
0.7417468881624519,2.0322511434371524,0.3935288430881098,-1.0747646378262796,-10.236055293964935,7.273168927814537
0.7620693995968234,1.929890590497503,0.382781196709847,-1.0020329485481343,-10.36401395664662,7.346131880925683
0.7813683055017985,1.8262504509310369,0.3727608672243657,-0.9285716297388774,-10.43878902578374,7.335550044500586
0.7996308100111088,1.7218625606731994,0.3634751509269769,-0.8552161292938716,-10.472391911914782,7.260360544196266
0.8168494356178408,1.6171386415540516,0.3549229896340382,-0.7826125238519089,-10.47519306627681,7.137166122405114
0.8330208220333813,1.5123867108912834,0.34709686439551907,-0.7112408626278578,-10.455854029844973,6.980099606427144
0.8481446891422941,1.4078281705928337,0.33998445576924047,-0.6414398665635863,-10.421417004313343,6.800922597616384
0.8622229708482224,1.3036140005497003,0.3335700571036046,-0.5734306405874224,-10.377479770750682,6.609253871982686
0.8752591108537194,1.1998392028421936,0.32783575069773035,-0.5073381018675955,-10.328405340253626,6.412853692183375
0.8872575028821413,1.0965551494396573,0.3227623696790544,-0.4432095649457618,-10.277534263033324,6.217916812937365
0.8982230543765379,0.993779806809324,0.3183302740295968,-0.3810303968163882,-10.227381471474176,6.029347076633696
0.9081608524446312,0.8915059920945823,0.3145199700614329,-0.3207369260500512,-10.179809056602751,5.851000320353406
0.917075912365577,0.7897079015285547,0.31131260080093237,-0.26222692284651716,-10.13617234636145,5.685891054549818
0.9249729913808625,0.6883461780649403,0.3086903315724672,-0.20536801230101898,-10.097440060658364,5.5363634256505
0.9318564531615119,0.5873717774583566,0.306636651449457,-0.15000437804451397,-10.064291019268346,5.404229557039437
0.9377301709360955,0.4867288672656731,0.30513660766901185,-0.09596208247411961,-10.037190520641774,5.29087939898516
0.9425974596087522,0.38635696205925535,0.30417698684427064,-0.04305328848426801,-10.016449539393092,5.197366350476809
0.9464610292293447,0.28619246666532444,0.30374645395942795,0.008920375020500082,-10.002269596355404,5.124472562317695
0.949322953895998,0.18616977070177038,0.30383565770963294,0.060165100643677034,-9.994775712608256,5.072757246552118
0.9511846516030157,0.08622201357568782,0.3044373087160697,0.1108926731091982,-9.994039366400159,5.042590647937785
0.9520468717387726,-0.013718380088313775,0.3055462354471617,0.16131857958857604,-10.000092879165193,5.0341756537395
0.9519096879378894,-0.1137193088799657,0.30715942124304746,0.21166033612597104,-10.012936183830242,5.04755836023381
0.9507724948490898,-0.21384867071826813,0.30927602460430714,0.26213591972830913,-10.032536477932641,5.08262828413284
0.9486340081419071,-0.31417403549759454,0.3118973838015902,0.3129622025696375,-10.058820828923018,5.139108296862953
0.9454922677869312,-0.4147622437868247,0.3150270058272866,0.36435328553826707,-10.091661368359654,5.216533755037145
0.9413446453490629,-0.5156788574704212,0.31867053868266926,0.4165186230886385,-10.130852273876974,5.314219686299335
0.9361878567743587,-0.616987380209191,0.32283572491355567,0.4696608199516319,-10.176077283976896,5.431214254695289
0.9300179829722668,-0.7187481530489599,0.327532333113072,0.5239729624985848,-10.22686601886234,5.56623607246772
0.9228305014417771,-0.8210168132375832,0.33277206273805787,0.5796353232232621,-10.282536901561175,5.717592262897156
0.9146203333094013,-0.923842182253195,0.33856841597029047,0.6368112458522336,-10.342124020415143,5.883073560619452
0.9053819114868693,-1.0272634224573465,0.3449365284288128,0.6956419814584281,-10.404284915871017,6.059822263102507
0.8951092772622958,-1.1313062716160567,0.35189294824339706,0.7562402040894532,-10.46718613810944,6.244168703460816
0.8837962145461352,-1.235978132997151,0.3594553502842916,0.8186818911240614,-10.528363721428487,6.431432409302216
0.8714364332161637,-1.341261770211436,0.3676421691955322,0.8829962152170836,-10.584556796965417,6.6156857340532484
0.8580238155140494,-1.4471073381810902,0.3764721313477031,0.949153072557616,-10.631514929123304,6.789481229262953
0.8435527421322385,-1.5534224874723233,0.38596366207327926,1.0170478848502456,-10.663784134448726,6.943550399302736
0.8280185172575153,-1.6600603288168105,0.39613414092178173,1.086483388843273,-10.674483857733488,7.066492073026669
0.8114179139693471,-1.7668051673941454,0.40699897481021446,1.1571483095735398,-10.65509848914547,7.144484932272137
0.7937498622954057,-1.8733561522856002,0.4185704579059499,1.228593158896261,-10.595323182228443,7.1610819885254156
0.7750163007725497,-1.9793093841078846,0.4308563894949125,1.3002039787815152,-10.483024830902524,7.097175055620358
0.7552232069314708,-2.08413963241691,0.4438584292827277,1.3711757293377187,-10.304403171301612,6.931251773902348
0.7343818106073017,-2.1871836641299263,0.4575701865761049,1.4404882470767422,-10.044458517046964,6.640098521412273
0.7125099739660025,-2.287628249300396,0.4719750690468723,1.506889232290865,-9.687880512923918,6.2001137415015135
0.6896336914729985,-2.384507054429635,0.48704396136978095,1.56889036970588,-9.220449062545676,5.5893629268914395
0.6657886209287021,-2.476711545055092,0.5027328650668398,1.6247839989747945,-8.630963156315012,4.790398597760931
0.6410215054781512,-2.5630211766182422,0.5189807050565878,1.672687984952404,-7.913570298035135,3.79366401418603
0.6153912937119688,-2.6421568795985935,0.5357075849061118,1.7106246250942643,-7.0701663187781065,2.601008806921472
0.5889697249159829,-2.7128585427863747,0.5528138311570544,1.736634713163479,-6.1123235530106745,1.2285404599566876
0.5618411394881191,-2.7739817783164815,0.5701801782886892,1.7489201177630458,-5.062085268877912,-0.29213926437719356
0.5341013217049543,-2.8246026310052605,0.5876693794663196,1.745998725119274,-3.9510559287495908,-1.915137998271209
0.5058552953949017,-2.8641131902927564,0.6051293667175123,1.7268473451365618,-2.8175851602894064,-3.5842212021750526
0.47721416349197415,-2.8922890418956504,0.6223978401688779,1.6910051331148113,-1.702414848893471,-5.238997125026038
0.44829127307301764,-2.909313190384585,0.639307891500026,1.6386151618645508,-0.6437068554292628,-6.8220449084451955
0.4191981411691718,-2.9157502589388775,0.6556940431186715,1.5703947127800988,0.32738020100711335,-8.285324329079327
0.39004063857978305,-2.912476456928806,0.6713979902464725,1.4875414694893054,1.1895862950799667,-9.594461686277825
0.36091587401049496,-2.9005805939780065,0.6862734049413656,1.3915968526265272,1.9324746009900948,-10.730257619848492
0.3319100680707149,-2.8812558479681054,0.7001893734676309,1.2842942764280423,2.5555551919450896,-11.687630344682715
0.3030975095910338,-2.8557002960486546,0.7130323162319113,1.167417972981215,3.0662026411112544,-12.472816639333208
0.2745405066305473,-2.8250382696375422,0.7247064959617234,1.042689806587883,3.4770860155937906,-13.099838731160407
0.24629012393417188,-2.7902674094816042,0.7351333940276022,0.9116914192762788,3.803705199681876,-13.587079022581761
0.21838744983935585,-2.7522303574847853,0.7442503082203651,0.7758206290504612,4.062389252787668,-13.954474195979548
0.19086514626450798,-2.7116064649569087,0.7520085145108697,0.6362758870906657,4.268882133951993,-14.221516973247734
0.1637490816149389,-2.6689176436173887,0.7583712733817763,0.49406071735818835,4.437481855271219,-14.406028025532292
0.137059905178765,-2.6245428250646765,0.7633118805553583,0.35000043710286544,4.580620022377471,-14.523546425294343
0.11081447692811824,-2.578736624840902,0.766811884926387,0.204764972849922,4.7087498048035945,-14.587157551656244
0.08502711067970922,-2.531649126792866,0.7688595346548862,0.058893397333359576,4.8304252976778415,-14.607595974326722
0.05971061941178056,-2.4833448738160873,0.7694484686282198,-0.08718256240990765,4.952483133752024,-14.593498378473868
0.03487717067361969,-2.433820042478567,0.7685766430041208,-0.23311754619464634,5.080265635999381,-14.55172049312002
0.010538970248834014,-2.3830173861185733,0.7662454675421743,-0.37863475112584655,5.217848180857138,-14.487664254878402
-0.01329120361235172,-2.330838904310002,0.7624591200309158,-0.5235113936746305,5.3682504019868755,-14.40558500724843
-0.036599592655451735,-2.277156400290133,0.7572240060941695,-0.6675672437471148,5.5336220712086925,-14.308864223851014
-0.05937115665835307,-2.2218201795780463,0.7505483336566984,-0.810655885985625,5.71540129349451,-14.200242862978119
-0.08158935845413354,-2.164666166643101,0.7424417747968421,-0.9526583146154062,5.91444639233517,-14.082015850990818
-0.10323602012056454,-2.1055217027197495,0.7329151916506881,-1.0934784731253144,6.131144625809678,-13.956190849628026
-0.12429123714776204,-2.044210256461653,0.7219804069194349,-1.2330403816215947,6.365501442594887,-13.82461546849964
-0.14473333971237856,-1.980555242035704,0.7096500031032189,-1.3712865363065911,6.6172138795984985,-13.689077160266077
-0.1645388921327356,-1.914383103239719,0.695937137740153,-1.508177307909252,6.88573124189165,-13.551379632239522
-0.1836827231651328,-1.8455257908208025,0.6808553646610604,-1.643691104231647,7.1703055792089785,-13.413398985643742
-0.2021379810733408,-1.7738227350287128,0.664418453618744,-1.7778250940880844,7.470033781109638,-13.277122089004195
-0.21987620842362793,-1.6991223972176164,0.6466402026778632,-1.9105963149781264,7.783892398385725,-13.144668961327453
-0.2368674323958041,-1.621283473233759,0.6275342395280818,-2.042043004591401,8.11076556925157,-13.018300188517491
-0.2530802671281417,-1.5401758175412434,0.6071138094821679,-2.172226006476576,8.449465669366125,-12.900409592882074
-0.26848202530355414,-1.4556811608475821,0.5853915494174021,-2.3012301024053965,8.798745481313382,-12.793501464720265
-0.28303883691202997,-1.3676937060344483,0.5623792483933482,-2.429165117052599,9.157299742718616,-12.700150568272894
-0.2967157739723745,-1.2761207086072621,0.5380875972228222,-2.556166622735328,9.523752817802036,-12.62294175025695
-0.3094769810584471,-1.1808831804292417,0.512525930995469,-2.6823960402378972,9.896627863005646,-12.564384181675184
-0.32128581286273955,-1.0819169017991852,0.48570197059308995,-2.8080398820546493,10.274291124661145,-12.52679290138009
-0.3321049818807314,-0.9791739905525737,0.4576215717725435,-2.9333078110684503,10.654862804700318,-12.512127231957361
-0.34189672178625713,-0.8726253625055705,0.42828849366185895,-3.058429083388024,11.036083152043263,-12.521771633640173
-0.3506229754113128,-0.7622645309851379,0.3977042028279787,-3.1836467997244258,11.41511901760933,-12.55623952855134
-0.3582456207211642,-0.6481133408090446,0.3658677348307344,-3.309209195009939,11.78829210926114,-12.614774602538084
-0.36472675412925465,-0.5302304197164331,0.33277564288063505,-3.43535694103532,12.150705944812387,-12.694817488790589
-0.37002905832641897,-0.40872336026830924,0.2984220734702818,-3.562305115923226,12.49574495704944,-12.7912997549552
-0.37411629192910206,-0.2837659106978148,0.26279902231104957,-3.690218113472778,12.814418390662825,-12.895724455318312
-0.3769539510360802,-0.15562172679118658,0.22589684117632178,-3.8191753580259613,13.0945275292936,-12.994998548081867
-0.3785101683039921,-0.024676451498250568,0.18770508759606216,-3.94912534350678,13.31965454485466,-13.070006978749555
-0.3787569328189746,0.10852009395029605,0.14821383416099437,-4.079825413294276,13.468016595407422,-13.093977389809965
-0.3776717318794716,0.24320025990437028,0.10741558002805161,-4.210765187192376,13.511316824684801,-13.030802135688678
-0.3752397292804279,0.37831342815121827,0.06530792815612785,-4.341073208549262,13.413875040516924,-12.833689536764739
-0.37145659499891576,0.5124521785563875,0.021897196070635228,-4.46941010391691,13.132548870574377,-12.444829831270443
-0.36633207321335187,0.6437776672621313,-0.02279690496853387,-4.593858402229614,12.618242732121745,-11.797160552890148
-0.3598942965407306,0.7699600945833487,-0.06873548899083001,-4.711830007758516,11.820048447142888,-10.819668882883555
-0.3521946955948971,0.8881605790547775,-0.11585378906841517,-4.820026696587351,10.693029001763994,-9.447648979465718
-0.3433130898043493,0.9950908690724175,-0.1640540560342887,-4.914503186382008,9.209955228906026,-7.638402066465886
-0.33336218111362514,1.0871904213614778,-0.21319908789810876,-4.990887207046667,7.375565017383969,-5.390510904673077
-0.32249027690001036,1.1609460715353175,-0.26310795996857544,-5.044792316093398,5.2392797274517315,-2.761221611879459
-0.3108808161846572,1.2133388688098348,-0.31355588312950944,-5.072404532212192,2.9000701650140095,0.12662067480891212
-0.29874742749655886,1.242339570459975,-0.3642799284516314,-5.071138325464103,0.49767656177499875,3.0959730239138974
-0.2863240317919591,1.2473163360777249,-0.4149913117062724,-5.0401785952249645,-1.8106788193491885,5.9465231674957595
-0.27385086843118184,1.2292095478842329,-0.46539309765852205,-4.980713363550007,-3.881316816219036,8.49596643443875
-0.26155877295233954,1.1903963797220425,-0.5152002312940221,-4.895753699205619,-5.611063373430915,10.615666604435802
-0.24965480915511912,1.1342857459877334,-0.5641577682860783,-4.789597033161261,-6.950316665356468,12.247510482371949
-0.23831195169524177,1.0647825793341688,-0.612053738617691,-4.667121928337542,-7.900014808584295,13.399183045985332
-0.22766412590190008,0.9857824312483258,-0.6587249579010663,-4.533130097877688,-8.497678734728211,14.125043735290339
-0.21780630158941683,0.9008056439010437,-0.7040562588798432,-4.3918796605247845,-8.800316918592852,14.50317251521463
-0.2087982451504064,0.8128024747151151,-0.7479750554850911,-4.246847935372638,-8.870041146556412,14.616385266607528
-0.20067022040325525,0.724102063249551,-0.7904435348388175,-4.100684082706563,-8.764742429075065,14.540221542021749
-0.19342919977075973,0.6364546389588003,-0.8314503756658831,-3.9552818672863452,-8.533535189908163,14.337360963752944
-0.18706465338117173,0.5511192870597187,-0.8710031943387465,-3.811908257648816,-8.21555269261279,14.056466963820133
-0.18155346051057455,0.46896376013359076,-0.9091222769152347,-3.6713435880106147,-7.8406245593178205,13.733445507741687
-0.17686382290923866,0.39055751454041254,-0.9458357127953408,-3.534009132933198,-7.4307597507435315,13.393673980132823
-0.17295824776383453,0.3162499170329772,-0.9811758041246729,-3.40007239313187,-7.001795315628032,13.054361490078117
-0.16979574859350477,0.2462319638766969,-1.0151765280559917,-3.2695287782310887,-6.564897544206417,12.726644778882298
-0.1673334289547378,0.18058298843463272,-1.0478718158383025,-3.1422623304422657,-6.127800887793137,12.417288083617859
-0.16552759907039147,0.11930497955670134,-1.079294439142725,-3.0180894496060873,-5.695773221854913,12.129988715790153
-0.16433454927482447,0.06234724733815221,-1.109475333638786,-2.896789562448186,-5.272340588939513,11.866344772527805
-0.16371107680144295,0.009623841448757081,-1.1384432292632678,-2.778126114722908,-4.859817767470331,11.626554942171614
-0.16361483838695537,-0.03897433622594623,-1.1662244904104968,-2.661860565301192,-4.4596896258930485,11.40991545639282
-0.16400458174921484,-0.08357123248487672,-1.1928430960635088,-2.5477614107372637,-4.072881319121683,11.215167908169557
-0.16484029407406361,-0.12430004567609354,-1.2183207101708815,-2.435609731655568,-3.699947369486692,11.04073956923432
-0.16608329453082454,-0.16129951937096046,-1.2426768074874373,-2.325202335963225,-3.3412024014034065,10.88490726792858
-0.16769628972453415,-0.19471154338499452,-1.2659288308470695,-2.216353263283939,-2.996810355083853,10.745907443733255
-0.1696434051583841,-0.22467964693583306,-1.2880923634799089,-2.108894188846606,-2.666844411149656,10.622008582889155
-0.17189020162774243,-0.25134809104732964,-1.309181305368375,-2.0026741030177146,-2.3513264235047933,10.511557519544336
-0.17440368253821573,-0.27486135528237754,-1.329208046398552,-1.8975585278222713,-2.050252141760977,10.41300768096112
-0.1771522960910395,-0.2953638766999873,-1.3481836316767748,-1.7934284510126601,-1.7636066846282428,10.324934930103998
-0.18010593485803936,-0.31299994354626975,-1.3661179161869015,-1.6901791017116201,-1.491373419614268,10.246044947682156
-0.18323593429350205,-0.3279136777424124,-1.3830197072040178,-1.5877186522347986,-1.233538471306666,10.175174895960973
-0.18651507107092616,-0.3402490624554791,-1.3988968937263657,-1.4859669032751888,-0.9900924154991012,10.111291269416897
-0.18991756169548096,-0.3501499866104701,-1.4137565627591175,-1.3848539905810198,-0.7610302429301002,10.053485255113992
-0.19341906156158567,-0.3577602890397711,-1.4276051026649277,-1.28431913802988,-0.5463503393713027,10.000966521966173
-0.19699666445198338,-0.3632237924334841,-1.4404482940452266,-1.1843094728102181,-0.34605298894424313,9.95305607872855
-0.20062890237631822,-0.3666843223229266,-1.4522913887733286,-1.0847789120229328,-0.16013873696440095,9.90917864763762
-0.2042957455995475,-0.3682857096925706,-1.463139177893558,-0.9856871255465566,0.011393172462407224,9.868854867505666
-0.2079786026964732,-0.3681717779679465,-1.4729960491490237,-0.8869985768714999,0.16854615444519025,9.831693548222566
-0.21166032047615266,-0.36648631642349455,-1.4818660349177386,-0.7886816413892742,0.31132736730261595,9.797384135124823
-0.2153251836403876,-0.3633730427504684,-1.4897528513316314,-0.690707800038026,0.43974849451525566,9.765689497604775
-0.21895891406789228,-0.3589755578053158,-1.4966599293320115,-0.5930509050619782,0.5538262248062021,9.736439125461551
-0.22254866964594544,-0.3534372955572538,-1.5025904383826314,-0.4956865138073627,0.6535824490096905,9.709522794572841
-0.226083042601518,-0.34690147106715685,-1.507547303520705,-0.3985912858616343,0.7390442038237877,9.684884747564876
-0.22955205731218956,-0.339511029028919,-1.5115332163793214,-0.3017424383859855,0.8102433988837221,9.662518423274413
-0.23294716760247874,-0.3314085950400818,-1.5145506407631812,-0.2051172541532414,0.8672163662919591,9.64246175956401
-0.23626125355287955,-0.32273643137716224,-1.5166018133047137,-0.10869263655760128,0.9100032718999616,9.624793086533968
-0.23948861786665118,-0.3136363986581626,-1.5176887396702896,-0.012444705692261596,0.9386474261032619,9.609627620719301
-0.2426249818532328,-0.30424992439713,-1.5178131867272122,0.08365157051493143,0.9531945293594604,9.59711456499679
-0.2456674810972041,-0.2947179791035354,-1.516976671022063,0.17962271616489933,0.953691884623167,9.58743481328798
-0.24861466088823944,-0.2851810602573038,-1.515180443860414,0.2754970642977791,0.9401876058944264,9.58079925340763
-0.25146647149081247,-0.2757791841983595,-1.5124254732174363,0.3713050568318554,0.9127298495447909,9.577447655250626
-0.2542242633327961,-0.2666518857029116,-1.5087124226491178,0.46707953338436164,0.8713660934646228,9.577648124568405
-0.2568907821898252,-0.2579382247682654,-1.5040416273152741,0.5628560146300456,0.816142488849109,9.581697094410224
-0.25947016443750787,-0.2497767998797743,-1.4984130671689737,0.6586729855741479,0.7471033111660854,9.589919816316437
-0.2619679324363056,-0.24230576676811344,-1.4918263373132323,0.7545721837373123,0.6642905412041807,9.60267130078948
-0.26439099010398676,-0.23566286135607162,-1.4842806154758592,0.8505988967452071,0.567743614940613,9.620337640417485
-0.2667476187175475,-0.22998542520666548,-1.475774626508407,0.9468022731493819,0.45749939339971024,9.643337627924604
-0.2690474729696141,-0.22541043127266838,-1.4663066037769132,1.043235649428628,0.3335924221454844,9.672124553540694
-0.2713015772823408,-0.22207450705121354,-1.455874247282627,1.1399568949640349,0.19605557648145916,9.707188028956768
-0.2735223223528529,-0.22011395128639893,-1.4444746783329865,1.2370287752536024,0.044921225366879675,9.74905563543807
