th1 (rad),w1 (rad/s),th2 (rad),w2 (rad/s),a1 (rad/s^2),a2 (rad/s^2)
5.055753690992088,1.1572035448587066,3.8876973080763375,2.1940734015302494,5.923483612995116,5.562401932175826
5.067325726440675,1.2164383809886576,3.90963804209164,2.2496974208520077,5.691426734210895,5.878733575365636
5.079490110250561,1.2733526483307667,3.93213501630016,2.3084847566056643,5.442581406778017,6.207067475300971
5.092223636733869,1.327778462398547,3.955219863866217,2.370555431358674,5.17618617568676,6.546551565743449
5.105501421357855,1.3795403241554145,3.9789254181798035,2.4360209470161087,4.891476970225002,6.896323067711115
5.119296824599409,1.4284550938576646,4.003285627649965,2.50498417769322,4.587690981027889,7.255519224637835
5.133581375537985,1.4743320036679435,4.028335469426897,2.5775393699395983,4.264071978228934,7.623289826020329
5.148324695574664,1.5169727234502328,4.054110863126293,2.6537722681998015,3.9198772388957037,7.998811565338729
5.163494422809166,1.55617149583919,4.080648585808291,2.733760383853189,3.5543862640616277,8.381304219771081
5.179056137767558,1.5917153584798063,4.107986189646823,2.8175734260508998,3.1669114892061465,8.770048551893165
5.1949732913523565,1.6233844733718676,4.136161923907332,2.9052739115698314,2.7568112341507782,9.164405707446532
5.211207136086075,1.6509525857133753,4.165214663023031,2.9969179686442966,2.323505209270145,9.563837705352947
5.227716661943209,1.6741876378060767,4.195183842709474,3.092556345697826,1.866493009129395,9.96792836878073
5.244458538321269,1.6928525678973707,4.226109406166452,3.192235629385633,1.3853762023815834,10.376403704960802
5.2613870640002425,1.7067063299211866,4.258031762460308,3.2959996664352413,0.8798848960582544,10.789150272989273
5.2784541272994545,1.7155051788817692,4.290991759124661,3.403891169165134,0.34991005194037766,11.206229436202571
5.295609179088272,1.719004279401173,4.325030670816313,3.51595346352716,-0.20445658456481958,11.627884513489896
5.312799221882284,1.7169597135555248,4.360190205451584,3.6322323086620587,-0.782872244823087,12.05453663103532
5.329968819017839,1.7091309911072938,4.396512528538205,3.7527776749724118,-1.384678699027752,12.486763406448214
5.347060128928912,1.6952842041170164,4.434040305287929,3.877645309036894,-2.0088180635602484,12.925252298956579
5.364012970970082,1.6751960234814138,4.472816758378298,4.00689783202646,-2.6537209843980976,13.370717302288417
5.380764931204896,1.648658813637433,4.512885736698562,4.140605005049344,-3.317156165891914,13.823763344213656
5.397251519341271,1.6154872519785137,4.554291786749056,4.27884263849148,-3.9960259688364532,14.28467692756523
5.413406391861057,1.5755269922901491,4.597080213133971,4.421689407767133,-4.686087239574112,14.753113810288145
5.429161661783958,1.528666119894408,4.641297107211642,4.569220545870015,-5.3815695111771475,15.227644556667627
5.444448322982902,1.4748504247826366,4.686989312670343,4.721496991436691,-6.074654386312376,15.705106595224349
5.459196827230729,1.4141038809195128,4.7342042825847095,4.878548057388935,-6.754771113854026,16.179697827728912
5.473337866039924,1.3465561697809725,4.782989763158599,5.040345035666224,-7.407656431688343,16.64173455597862
5.486803427737734,1.272479605464089,4.8333932135152615,5.20676238122601,-8.014126875752103,17.07599199599729
5.4995282237923755,1.1923383367065679,4.885460837327521,5.377522301185983,-8.548529369029529,17.45956234205532
5.511451607159441,1.1068530430162726,4.939236060339381,5.552117924606536,-8.976890005066315,17.759228293215156
5.522520137589604,1.0170841429656095,4.9947572395854465,5.729710207538687,-9.254902830456126,17.928501309518047
5.53269097901926,0.9245351146610482,5.052054341660833,5.908995220633868,-9.326134612955045,17.904774845181432
5.54193633016587,0.8312737685314977,5.111144293867172,6.088042969085682,-9.121215117525109,17.607560590661844
5.550249067851185,0.7400616173562466,5.172024723558029,6.2641185749923,-8.559344728314851,16.93953071676768
5.557649684024748,0.6544681700730981,5.234665909307952,6.433513882159977,-7.554059179562993,15.792927401460565
5.564194365725479,0.5789275782774681,5.2990010481295515,6.5914431561745825,-6.025433743731314,14.06428306157017
5.569983641508253,0.518673240840155,5.364915479691297,6.732085986790285,-3.919968234817964,11.679227654484901
5.575170373916655,0.4794735584919753,5.4322363395592,6.848878263335133,-1.2362759954611309,8.625099287103959
5.5799651095015745,0.467110798537364,5.500725122192551,6.935129256206173,1.9507166210679159,4.98193333500447
5.584636217486948,0.48661796474804314,5.570076414754613,6.984948589556217,5.479588023942839,0.9354855353736223
5.589502397134429,0.5414138449874716,5.639925900650176,6.994303444909954,9.118360892499345,-3.2434409402725795
5.594916535584304,0.632597453912465,5.7098689350992755,6.9618690355072275,12.608226780319391,-7.255188825562913
5.601242510123428,0.7586797217156589,5.7794876254543475,6.889317147251599,15.720250384889516,-10.843099581986126
5.608829307340584,0.915882225564554,5.848380796926864,6.780886151431737,18.30065783383978,-13.849017794789937
5.617988129596229,1.0988888039029518,5.916189658441181,6.642395973483838,20.28712162617008,-16.230195434170835
5.6289770176352585,1.3017600201646526,5.982613618176019,6.48009401914213,21.69599082153174,-18.038835169720876
5.641994617836905,1.5187199283799702,6.047414558367441,6.299705667444921,22.593921451558327,-19.38287919421957
5.657181817120704,1.7446591428955533,6.11041161504189,6.105876875502725,23.068982936305826,-20.387920013868765
5.674628408549659,1.9753489722586117,6.171470383796917,5.901997675364037,23.209867814158432,-21.170980542650135
5.694381898272245,2.207447650400196,6.230490360550558,5.690287869937536,23.094763397071038,-21.82747627207184
5.7164563747762465,2.4383952843709062,6.287393239249933,5.472013107216817,22.787594008478447,-22.42782345955553
5.7408403276199556,2.6662712244556905,6.342113370322101,5.247734872621262,22.338536245868394,-23.01938890564402
5.767503039864512,2.8896565869143744,6.394590719048314,5.017540983564822,21.78638727078808,-23.630578175978638
5.796399605733656,3.1075204596222554,6.444766128883963,4.7812352018050355,21.161331932204938,-24.275229201309475
5.827474810329878,3.319133778944305,6.492578480902013,4.538482909791941,20.487402300178005,-24.956483069825207
5.860666148119321,3.5240078019460848,6.537963309999933,4.288918079093689,19.78437215042232,-25.669875968126824
5.8959062261387825,3.721851523450308,6.580852490790869,4.0322193194124205,19.069052741015536,-26.40565876464706
5.933124741373286,3.9125420508604636,6.621174683984994,3.76816273176595,18.356045417327984,-27.150436287722982
5.97225016188189,4.096102505033744,6.658856311302653,3.49665836888872,17.658026127829775,-27.888217913287257
6.013211186932227,4.272682766312042,6.69382289499154,3.2177761897558477,16.985624307696035,-28.600935616577598
6.055938014595347,4.4425390093890025,6.726000656889099,2.9317668335900717,16.346932606695137,-29.26844008049694
6.100363404689237,4.606008335455954,6.755318325225,2.639082432785102,15.746653425748287,-29.867941145084075
6.146423488043797,4.763474869713437,6.781709149552851,2.3404030213342613,15.184858442311203,-30.372822541872473
6.194058236740931,4.915323454136549,6.8051131797661935,2.0366747959155367,14.65531502231229,-30.750741539279687
6.243211471282296,5.0618766043596715,6.825479927725349,1.7291673805227399,14.143332181326294,-30.96094053740656
6.293830237325893,5.203309926172935,6.842771601530576,1.4195579751486742,13.623125646795996,-30.950787611308385
6.345863336587622,5.339541182640895,6.856967181282063,1.1100500990355904,13.054845525895354,-30.651794974765444
6.399258748414031,5.470089637899848,6.868067682272419,0.8035321492879359,12.381727800193172,-29.97584504338564
6.453959644793029,5.59390691590178,6.876103003765298,0.5037736988540795,11.528415758116687,-28.813210854559127
6.509898713952047,5.7091910734829465,6.881140740753839,0.21564159030848823,10.402396581675388,-27.035247176160134
6.566990624686876,5.813215039299701,6.883297156656924,-0.05471088145311309,8.9015391250187,-24.506085803267073
6.625122775079873,5.902230430549888,6.882750047842393,-0.29977173948578384,6.9311938906110475,-21.10825786021069
6.684145079385372,5.971542369455998,6.879752330447535,-0.5108543180878907,4.43270290634014,-16.78469228657367
6.743860503079932,6.015869398519399,6.874643787266656,-0.6787012409536274,1.4195844230878378,-11.591325505935687
6.804019197065126,6.030065242750277,6.8678567748571195,-0.7946144960129843,-1.9918517644702263,-5.74074064353612
6.864319849492629,6.010146725105575,6.85991062989699,-0.8520219024483455,-5.578511960729506,0.39396423808462216
6.924421316743685,5.95436160549828,6.851390410872506,-0.8480822600674993,-9.049306915205904,6.338576327044353
6.983964932798668,5.863868536346222,6.842909588271831,-0.7846964967970558,-12.119814552791508,11.63022136145502
7.04260361816213,5.742670390818307,6.835062623303861,-0.6683942831825056,-14.588962969318324,15.933194294176127
7.100030322070313,5.596780761125124,6.828378680472036,-0.5090623402407444,-16.379427170480692,19.101593770780106
7.1559981296815645,5.432986489420316,6.823288057069629,-0.3180464025329433,-17.528409732318575,21.16829906505364
7.210327994575768,5.257702392097131,6.820107593044299,-0.10636341188240692,-18.14587705175377,22.284474554681825
7.262905018496739,5.076243621579593,6.819043958925475,0.11648133366441135,-18.367866678302057,22.64999594348057
7.313667454712535,4.892564954796573,6.820208772262119,0.34298129309921704,-18.322949825069866,22.461971912178164
7.3625931042605,4.709335456545874,6.823638585193112,0.5676010122209987,-18.115745354913045,21.8879513718628
7.409686458825959,4.528178002996744,6.829314595315322,0.7864805259396267,-17.823145273071724,21.058081300376042
7.454968238855927,4.349946550266027,6.837179400574718,0.9970613389433871,-17.497299894986597,20.06774534631492
7.498467704358587,4.17497355131616,6.847150013964152,1.1977387924065364,-17.17098036311295,18.9842501738363
7.540217439871749,4.003263747685031,6.859127401888217,1.3875812941448993,-16.8629570932383,17.853973493448485
7.580250077348599,3.834634176752648,6.873003214829666,1.566121029079384,-16.582456438598676,16.708458431254623
7.618596419116125,3.6688096123666614,6.88866442512046,1.7332056133919305,-16.33251473501361,15.569075431454122
7.655284515239791,3.5054844650165253,6.9059964812543795,1.8888963677064716,-16.11236333807949,14.450369969837451
7.690339359889957,3.3443608316357305,6.924885444931444,2.033400067404846,-15.91906314432855,13.362369419813588
7.723782968206314,3.185170200192445,6.945219445605493,2.167023761602982,-15.748594939427965,12.3121261803385
7.755634670208239,3.0276842507981656,6.966889683221522,2.290145023406367,-15.596569669554881,11.304725734533049
7.78591151271622,2.8717185541026167,6.989791133455586,2.403192280751697,-15.458678836970746,10.343931523209353
7.814628698257247,2.7171317657329093,7.013823056263102,2.506631595983791,-15.330969194175694,9.432589361577525
7.8418000159145755,2.5638220737911523,7.03888937222294,2.600957489599566,-15.209999214027691,8.57287627146124
7.867438236652487,2.4117220816508755,7.064898947118936,2.6866862523141783,-15.092916079222357,7.766451092063151
7.8915554574689954,2.260792920858652,7.0917658096420775,2.76435076323481,-14.97747919058756,7.01454485955595
7.914163386677582,2.111018128952776,7.1194093172744255,2.8344962118303694,-14.862047666488104,6.318015534920316
7.935273567967109,1.962397652287895,7.147754279392729,2.8976763671795727,-14.745543627484732,5.677382457509818
7.954897544489988,1.8149422160130477,7.1767310430645255,2.954450191754671,-14.627399251751795,5.092849610538409
7.973046966650118,1.6686682234955297,7.206275544982073,3.005378687860055,-14.507492975793134,4.564322481358378
7.989733648885074,1.5235932937375982,7.236329331860673,3.051021912673639,-14.386078353907196,4.091420340444038
8.00496958182245,1.3797325101985263,7.2668395509874095,3.091936116078079,-14.26370768685448,3.673483702196295
8.018766906924435,1.2370954333299815,7.297758912148191,3.128670953100042,-14.141151399817225,3.3095752590205865
8.031137861257735,1.0956839193318093,7.3290456216791915,3.161766705690248,-14.01931317927679,2.998471485633417
8.042094700451052,0.9554907875390414,7.360663288736094,3.1917514205465825,-13.89914000738114,2.73864125471623
8.051649608326443,0.81649938746523,7.39258080294156,3.2191378330937446,-13.78152544295091,2.5282071131301738
8.059814602201095,0.678684133035721,7.424772181272497,3.244419904225046,-13.667203815700567,2.364884331897183
8.066601443531452,0.5420120948787153,7.4572163803147475,3.2680687475440178,-13.556632502788469,2.2458925373259864
8.07202156448024,0.4064457698508306,7.489897067790188,3.2905276729172774,-13.449859295873367,2.1678348408152783
8.076086022178748,0.2719471768920969,7.52280234451936,3.31220602132543,-13.346372297020636,2.126540251151026
8.07880549394767,0.13848345392189054,7.555924404732615,3.3334714238369405,-13.244931197598167,2.11686732274129
8.08019032848689,0.006034141945908872,7.589259118970984,3.3546400970643533,-13.143381763702127,2.1324712694353405
8.080250669906349,-0.1253996756911124,7.622805519941628,3.3759648097587065,-13.038460622018379,2.1655442273812255
8.078996673149437,-0.2557842819112962,7.656565168039215,3.3976202520325187,-12.925605867988512,2.2065502274135707
8.076438830330323,-0.3850403405911813,7.69054137055954,3.4196857543066543,-12.798801340220093,2.2439938425719825
8.072588426924412,-0.5130283539933822,7.7247382281026065,3.442125692732374,-12.650498730631359,2.2642846679332185
8.067458143384478,-0.6395333412996957,7.75915948502993,3.4647685394117063,-12.47168060674363,2.251786911123301
8.061062809971482,-0.764250147367132,7.7938071704240475,3.487286408522939,-12.252144644741445,2.1891685942513246
8.05342030849781,-0.8867715938145465,7.828680034509277,3.5091780944654523,-11.981096408235585,2.0581763971897074
8.044552592559665,-1.0065825578969023,7.863771815453931,3.5297598584373495,-11.648121655852181,1.8409415101646662
8.034486766980695,-1.1230637744554242,7.899069414038304,3.548169273538996,-11.244553860505953,1.5218469694981747
8.023256129236142,-1.2355093130604837,7.934551106773694,3.5633877432339776,-10.765147848757175,1.0898424724220404
8.010901036105537,-1.3431607915480555,7.970184984206034,3.574286167958198,-10.209823694366234,0.5408880650665387
7.9974694281900565,-1.4452590284917177,8.005927845885616,3.5796950486088632,-9.585095423234584,-0.12000296512051652
7.983016837905139,-1.5411099827240635,8.041724796371705,3.578495018957658,-8.90471959195535,-0.8777680919278177
7.967605738077898,-1.630157178643617,8.077509746561281,3.5697173380383798,-8.18917101465502,-1.7079000438025855
7.951304166291462,-1.7120488887901673,8.113206919941666,3.552638337600354,-7.463813835697929,-2.578850545357832
7.93418367740356,-1.7866870271471464,8.14873330331767,3.5268498321467754,-6.75602558124026,-3.4558960262281566
7.916316807132088,-1.854247282959549,8.184001801639138,3.4922908718844936,-6.09189197254592,-4.305628030331662
7.897774334302493,-1.9151662026850083,8.218924710357982,3.449234591581177,-5.4932443510664495,-5.1000122223072575
7.878622672275643,-1.9700986461956727,8.253417056273793,3.3982344693581044,-4.9756779722966025,-5.819136788030799
7.858921685813686,-2.0198554259186388,8.287399400967374,3.3400431014777965,-4.547839898124345,-6.452246590895338
7.8387231315545,-2.065333824899882,8.320799831982152,3.275520635568843,-4.2118844789373275,-6.997193819594711
7.818069793305501,-2.1074526696892555,8.35355503833784,3.205548697372896,-3.964725547810889,-7.458804564241524
7.796995266608608,-2.1470999251673644,8.385610525311568,3.130960651730481,-3.7996338312715445,-7.846772157903444
7.775524267356935,-2.1850962634800797,8.416920131828872,3.0524929301514465,-3.7078012447030098,-8.173589258956918
7.753673304722134,-2.22217427592711,8.447445061130386,2.9707570375618775,-3.679638512932587,-8.452834046010594
7.731451561962863,-2.258970661056436,8.477152631506005,2.8862286971017714,-3.7057151085608395,-8.697932496729749
7.708861855352298,-2.2960278121420443,8.506014918477023,2.799249372134474,-3.777351661738639,-8.92138186890611
7.685901577230878,-2.3338013287594306,8.534007412198367,2.710035553445413,-3.886927915820349,-9.134349307063294
7.662563563943284,-2.3726706079176343,8.561107767732821,2.61869206037478,-4.027984914004888,-9.346538868200184
7.638836857864107,-2.412950457057683,8.587294688336568,2.5252266716927783,-4.195193807974188,-9.566229127862949
7.6147073532935305,-2.454902395137425,8.612546955053496,2.4295643804141487,-4.384248134771272,-9.800404684258549
7.590158329342156,-2.4987448764851377,8.636842598857637,2.3315603335715633,-4.59171949493246,-10.054927674467969
7.565170880577305,-2.544662071434462,8.660158202193353,2.2310110568268837,-4.8149020818338135,-10.334714776733023
7.53972425986296,-2.5928110922528003,8.682468312761621,2.1276639090595535,-5.0516606320413375,-10.643899580573397
7.513796148940433,-2.6433276985732137,8.703744951852217,2.0212249132538194,-5.300288912628715,-10.985969960756407
7.4873628719547005,-2.6963305876995007,8.723957200984755,1.9113652136462553,-5.559381142168877,-11.363876172683275
7.460399566077705,-2.7519243991211897,8.743070853121218,1.7977264519194225,-5.827715994464712,-11.780108861549039
7.432880322086493,-2.810201559065837,8.761048117640412,1.6799253633039322,-6.1041514122295295,-12.236747948123362
7.404778306495835,-2.871243073188132,8.77784737127345,1.5575578838226984,-6.3875278827446715,-12.735484097562887
7.376065875763954,-2.935118352015579,8.793422950111678,1.4302030428470696,-6.67657777388298,-13.277614667816948
7.346714692243799,-3.001884129754409,8.807724980540149,1.2974268961689002,-6.969838592320067,-13.86401598778952
7.316695850946255,-3.0715825156776098,8.820699249501837,1.158786736291005,-7.265568487734514,-14.495093739701662
7.2859800257894785,-3.144238200554955,8.832287116864748,1.0138357988939883,-7.561662925605665,-15.170713249872037
7.254537643783929,-3.2198548298110117,8.842425474853687,0.862128666395268,-7.855572159450269,-15.890111715299069
7.222339095485819,-3.298410551405514,8.85104676151764,0.7032275492422773,-8.144219940872754,-16.65179486587006
7.189354989971764,-3.3798527508142415,8.858079037010063,0.5367096005835766,-8.423924806491156,-17.453421313742457
7.155556462463622,-3.464091998879153,8.863446133015898,0.3621753874461521,-8.690326261480743,-18.291678875800734
7.1209155424748305,-3.5509952614939606,8.86706788689036,0.17925859868814473,-8.938319210439374,-19.16215844293684
7.085405589859891,-3.6403784535983545,8.868860472877243,-0.012362985741223659,-9.162001013178433,-20.059232440587042
7.049001805323908,-3.7319984637301387,8.86873684301983,-0.2129553101470941,-9.354636481044613,-20.97594645683441
7.011681820686606,-3.825544828540585,8.86660728991836,-0.42271477471543817,-9.508646861231142,-21.903934028246994
6.9734263724012004,-3.9206312971528963,8.862380142171205,-0.6417541149979081,-9.615629236906987,-22.83336563356296
6.934220059429672,-4.016787589521966,8.855962601021226,-0.8700877713335378,-9.666412639615752,-23.75294337207553
6.894052183534452,-4.113451715918123,8.84726172330789,-1.1076172050542932,-9.65115637597559,-24.649952304856736
6.852917666375271,-4.209963279677879,8.836185551257346,-1.3541167281028605,-9.559494505634284,-25.510377757426223
6.810818033578492,-4.305558224734222,8.822644383976318,-1.6092205056771227,-9.38072805005641,-26.31909487086273
6.76776245133115,-4.399365505234786,8.806552178919546,-1.87241145438575,-9.104063468586698,-27.060132373097677
6.723768796278802,-4.490406139920653,8.787828064375688,-2.1430127781167267,-8.718892473867577,-27.717007198273954
6.678864734879595,-4.577595064659329,8.76639793659452,-2.4201828500994664,-8.215104797614789,-28.273120765737737
6.633088784233002,-4.659746112635477,8.742196108093525,-2.7029140577568436,-7.583422604206278,-28.712202254801184
6.586491323106647,-4.73558033867754,8.715166967515957,-2.9900360803048556,-6.815743456984345,-29.018780045609102
