th1 (rad),w1 (rad/s),th2 (rad),w2 (rad/s),a1 (rad/s^2),a2 (rad/s^2)
2.7615540812105777,2.442685659070576,4.6847486866953485,1.8208258889073092,-1.4412225057034684,3.6987745318579774
2.785980937801283,2.428273434013541,4.702956945584422,1.857813634225889,-1.1323179533787733,3.8686548969365147
2.8102636721414185,2.416950254479753,4.721535081926681,1.8965001831952542,-0.82179953871019,4.018847260435162
2.834433174686216,2.4087322590926514,4.740500083758634,1.9366886557996057,-0.5094345703616006,4.149567684898885
2.8585204972771425,2.4036379133890353,4.759866970316629,1.9781843326485946,-0.19505000559356514,4.260945180142713
2.8825568764110328,2.4016874133330997,4.7796488136431154,2.0207937844500217,0.12146443471975985,4.353019469870041
2.906573750544364,2.402902057680297,4.799856751487615,2.064323979148722,0.44015331507928906,4.425738663010162
2.930602771121167,2.40730359083109,4.820499991279102,2.1085813657788237,0.7609926696687019,4.4789568626307945
2.954675807029478,2.414913517527777,4.841585804936891,2.1533709344051317,1.0838873114190237,4.512431771246283
2.9788249422047555,2.4257523906419673,4.8631195142809425,2.1984952521175947,1.4086682742969185,4.525822376346223
3.003082466111175,2.4398390733849364,4.885104466802119,2.243753475881057,1.7350904174899007,4.518686824193612
3.0274808568450244,2.4571899775598354,4.9075420015609295,2.2889403441229934,2.062830241763261,4.490480613474908
3.052052756620623,2.477818279977468,4.930431405002159,2.3338451502577424,2.391483991409435,4.440555263203147
3.0768309394203976,2.501733119891562,4.953769856504737,2.378250702889774,2.7205661399640992,4.3681576312195345
3.101848270619313,2.5289387812912034,4.9775523635336345,2.421932279201969,3.0495083841866255,4.272430080387183
3.127137658432225,2.5594338651330695,5.001771686325654,2.464656580005841,3.3776592985384517,4.152411708612477
3.152731997083556,2.593210458118454,5.026418252125712,2.5061806970919656,3.704284831246281,4.0070408754348
3.1786641016647406,2.630253306430917,5.051480059096631,2.5462511058463138,4.028569852556577,3.835159271114212
3.2049666347290495,2.6705390049564826,5.0769425701550945,2.5846026985574557,4.3496209953465135,3.6355177826570335
3.2316720247786144,2.7140352149099476,5.102788597140669,2.620957876384026,4.666471057034023,3.4067844134755703
3.2588123769277137,2.7606999254802878,5.128998175904509,2.6550257205187817,4.978085258697348,3.147554507463868
3.2864193761825167,2.8104807780672614,5.155548433109697,2.6865012655934204,5.28336968122299,2.8563635119028206
3.314524183963189,2.863314474879491,5.182413445765631,2.7150649007124485,5.581182217675712,2.5317024841219946
3.343157328711984,2.9191262970562484,5.209564094772755,2.7403819255536686,5.870346394229448,2.1720365011945564
3.3723485916825466,2.9778297609985427,5.236967914028292,2.7621022905656143,6.149668417015281,1.7758260667126513
3.402126889292532,3.0393264451686957,5.264588936933948,2.779860551232741,6.417957797070596,1.3415515201516532
3.432520153744219,3.103506023139402,5.292387542446275,2.7932760664342577,6.674051888055899,0.8677403385188205
3.4635552139756127,3.170246542019961,5.320320303110618,2.801953469819446,6.916844639403541,0.35299707284489495
3.495257679395812,3.2394149884139964,5.348339837808813,2.8054834405478952,7.145319819121516,-0.20396452030323453
3.527651829279952,3.3108681866052114,5.376394672214292,2.803443795344863,7.358588894073871,-0.8042878132086916
3.560760511146004,3.3844540755459502,5.40442911016774,2.7954009172127763,7.555933670453929,-1.4489390306315264
3.594605051901463,3.4600134122504898,5.432383119339868,2.780911526906461,7.736853693863171,-2.138673590957889
3.629205186023968,3.5373819491891214,5.460192234608933,2.759524790996882,7.9011182892744465,-2.8740046397338297
3.664579005515859,3.616393132081866,5.487787482518902,2.7307847445995437,8.04882299118346,-3.655175734987304
3.700742936836678,3.6968813619937007,5.515095329964898,2.6942329872496704,8.18044998195247,-4.4821400590227825
3.737711750456615,3.7786858618132255,5.542037659837394,2.6494115866594425,8.296932034757353,-5.3545489660313486
3.7754986090747473,3.861655182160799,5.568531775703988,2.595866096999129,8.399719365215608,-6.271753113120686
3.8141151608963555,3.9456523758129554,5.594490436673979,2.5331485658679225,8.490848757635463,-7.2328198443629494
3.853571684654485,4.03056086338931,5.619821922332658,2.4608203674242928,8.573014379748036,-8.23657088041743
3.8938772932883783,4.11629100718679,5.644430126006901,2.3784546586201185,8.649639872525311,-9.28164468690252
3.9350402033602463,4.202787405912043,5.668214672593102,2.285638211751093,8.724951644034235,-10.36658813279429
3.9770680774193665,4.290036922352385,5.691071054710613,2.18197233042315,8.80405385705436,-11.489982193539577
4.01996844664289,4.3780774609229285,5.712890778014844,2.0670725084877546,8.893006428837632,-12.650606503547431
4.063749221252119,4.467007525211304,5.733561503099722,1.9405664434522802,8.998908502771988,-13.8476475385175
4.108419296504232,4.5569966102390245,5.752967167534244,1.8020899680671052,9.129991338409704,-15.080955147873102
4.153989262606623,4.648296523623122,5.770988067214915,1.651280416588374,9.295726406938154,-16.351352111011305
4.200472227842854,4.741253787692504,5.787500871380799,1.487766895478261,9.506956639027747,-17.661001394880866
4.247884765719779,4.836323354082781,5.802378540335582,1.3111568815294523,9.776061138282287,-19.013835812476124
4.296247999260607,4.934083965465604,5.815490109150876,1.121018523404691,10.117165987935568,-20.416054606911064
4.345588838915263,5.035255625344959,5.826700294384923,0.9168579773355803,10.546415502198762,-21.876690491148178
4.3959413951687125,5.140719780366947,5.835868874158279,0.6980910724240985,11.082318313644418,-23.408247394785924
4.447348592972382,5.2515429635033914,5.84284978488252,0.46400859847623926,11.746178840191899,-25.027400455333037
4.499864022607416,5.369004751905311,5.847489870867283,0.2137345939229089,12.562612495193626,-26.755729143661693
4.553554070126469,5.494630876857247,5.849627216806511,-0.05382269751370805,13.560113517739731,-28.620408690727302
4.608500378895042,5.630232012034645,5.849088989831374,-0.34002678442098105,14.771579370858129,-30.654687815772085
4.664802699015389,5.777947805743226,5.845688721987164,-0.646573662578702,16.23455864290945,-32.89777937288154
4.7225821770728205,5.940293392172321,5.839222985361377,-0.9755514563075174,17.99070652828805,-35.39337963650784
4.781985110994544,6.120200457455201,5.829467470798302,-1.3294852526725958,20.083356271688917,-38.18520333214312
4.843187115569096,6.321034020172091,5.816172618271576,-1.711337285994027,22.55096073806953,-41.306273254567195
4.906397455770817,6.546543627552786,5.799059245411636,-2.124400018539699,25.411901146611047,-44.75550292816365
4.971862892046345,6.800662639018897,5.777815245226239,-2.5719550478213358,28.63196474631014,-48.44920405117351
5.039869518436534,7.086982286481999,5.752095694748025,-3.056447088333071,32.058850475297035,-52.125462202474
5.110739341301354,7.407570791234969,5.7215312238646945,-3.577701710357811,35.2998855815821,-55.16815611205933
5.184815049213704,7.76056964705079,5.685754206761116,-4.129383271478404,37.52262307871531,-56.32330959820919
5.262420745684212,8.135795877837943,5.644460374046332,-4.692616367460496,37.22192287841708,-53.37294895944555
5.343778704462591,8.508015106622114,5.597534210371728,-5.226345857054952,32.230728762753664,-43.16538299331276
5.428858855528812,8.83032239424965,5.545270751801178,-5.657999686988079,20.667476462445112,-22.991361978706568
5.5171620794713085,9.036997158874101,5.488690754931297,-5.887913306775145,3.285146218482921,6.033441421026405
5.6075320510600495,9.06984862105893,5.4298116218635455,-5.827578892564881,-14.863066830463005,36.55611630302826
5.698230537270639,8.9212179527543,5.371535832937897,-5.4620177295345975,-27.45186964590317,59.287909039353124
5.787442716798182,8.64669925629527,5.316915655642551,-4.869138639141067,-32.204736484947155,70.66354476542995
5.8739097093611345,8.324651891445798,5.2682242692511405,-4.162503191486767,-31.223674938825816,73.44824242341102
5.9571562282755925,8.01241514205754,5.226599237336273,-3.428020767252657,-27.555836955499174,71.89521112598099
6.037280379696168,7.736856772502548,5.1923190296637465,-2.709068655992847,-23.217085068409684,68.87467543171145
6.114648947421193,7.504685921818451,5.165228343103818,-2.0203219016757323,-19.155793610060336,65.75669506919985
6.189695806639377,7.3131279857178475,5.145025124087061,-1.3627549509837338,-15.71670926628048,63.03870107633926
6.262827086496555,7.155960893055043,5.131397574577224,-0.7323679402203412,-12.977910784357066,60.816719625183815
6.3343866954271055,7.026181785211472,5.12407389517502,-0.12420074396850311,-10.918938309199376,59.02681061789449
6.40464851327922,6.916992402119479,5.122831887735336,0.46606736221044176,-9.491931511146753,57.55191664115933
6.473818437300415,6.822073087008011,5.12749256135744,1.0415865286220352,-8.647850255093113,56.26573072636646
6.542039168170495,6.73559458445708,5.13790842664366,1.6042438358856999,-8.343751024548274,55.049851985212065
6.609395114015066,6.652157074211598,5.153950865002518,2.1547423557378202,-8.542604482247285,53.80037376561012
6.675916684757182,6.566731029389125,5.175498288559896,2.6927460933939216,-9.21051310336515,52.430634098763576
6.741583995051073,6.474625898355473,5.202425749493836,3.217052434381557,-10.313371397805042,50.87273486402481
6.806330254034628,6.371492184377423,5.234596273837651,3.7257797830218053,-11.813852882806357,49.078676513013264
6.870045175878402,6.253353655549359,5.271854071667869,4.216566548151938,-13.669134130979728,47.02122681528957
6.932578712433895,6.116662314239562,5.314019737149389,4.686778816304834,-15.829560955848828,44.69437091793844
6.993745335576291,5.958366704681074,5.360887525312437,5.1337225254842185,-18.23835324007372,42.113129737542295
7.0533290026231015,5.775983172280337,5.41222475056728,5.554853822859641,-20.832365602365098,39.31257419384977
7.111088834345905,5.567659516256686,5.467773288795876,5.947979564798139,-23.543847478174477,36.34595055865741
7.166765429508472,5.332221041474941,5.527253084443858,6.311439070384713,-26.303072481257765,33.2819389118659
7.2200876399232214,5.069190316662364,5.590367475147705,6.644258459503372,-29.04163459300133,30.20117654052842
7.270779543089845,4.778773970732351,5.656810059742739,6.946270224908656,-31.696143387464563,27.192281128259797
7.318567282797169,4.461812536857705,5.726272761991825,7.218193036191254,-34.21200150049948,24.347695810947627
7.363185408165745,4.11969252185271,5.7984546923537374,7.46166999430073,-36.54692706986558,21.759738584457182
7.404382333384272,3.754223251154054,5.873071392296745,7.679267380145302,-38.67390339116178,19.517259000321157
7.441924565895813,3.367484217242436,5.949864066098198,7.874439970148514,-40.583302338700484,17.70327348693907
7.475599408068238,2.9616511938554315,6.028608465799683,8.051472705017904,-42.284028836457914,16.393859934985656
7.505215920006792,2.5388109054908523,6.109123192849862,8.21541130436776,-43.803644826820516,15.65844081416787
7.530604029061701,2.100774457222647,6.191277305893539,8.37199571250944,-45.18750683004213,15.561367835290357
7.551611773633927,1.6488993889222259,6.2749972630186335,8.527609390862343,-46.49692124029403,16.16441143706415
7.568100767523149,1.1839301765192856,6.360273356927257,8.689253505232985,-47.80607553898704,17.52925930644305
7.579940069288342,0.7058694211294152,6.447165891979587,8.864546098297415,-49.19684477655651,19.718196300505678
7.586998763499636,0.2139009733638501,6.535811352962561,9.061728061302473,-50.74911361393021,22.789230048032262
7.589137773233275,-0.2935901627754521,6.6264286335755855,9.289620361782795,-52.52121970956866,26.77792092156288
7.58620187160552,-0.8188023598711387,6.719324837193414,9.557399570998424,-54.50907604282371,31.64997477883579
7.578013848006809,-1.3638931202993758,6.814898832903398,9.873899318786782,-56.561411032516084,37.1931884182826
7.564374916803815,-1.9295072306245367,6.913637826091266,10.245831202969608,-58.21226161660128,42.793949073461164
7.54507984449757,-2.5116298467905493,7.016096138120962,10.67377069370422,-58.38586308517344,47.03266970468782
7.519963546029665,-3.0954884776422835,7.122833845058004,11.1440973907511,-55.01132227069444,47.14093795864146
7.489008661253242,-3.645601700349228,7.234274818965515,11.615506770337515,-44.972279659099755,38.89238641111126
7.452552644249749,-4.095324496940226,7.35042988666889,12.004430634448628,-25.628528182911083,18.621231063142744
7.411599399280347,-4.351609778769337,7.470474193013377,12.190642945080056,1.2117142794158169,-11.41196171216151
7.368083301492654,-4.339492635975179,7.592380622464177,12.07652332795844,27.080339893987244,-40.057030668564416
7.324688375132903,-4.068689237035307,7.713145855743762,11.675953021272797,43.290267037738786,-56.03797249154619
7.28400148276255,-3.635786566657919,7.82990538595649,11.115573296357335,48.74647677041604,-58.32189727481098
7.247643617095971,-3.148321798953759,7.9410611189200635,10.532354323609225,47.69335855133877,-52.77761555118154
7.216160399106434,-2.671388213440371,8.046384662156155,10.004578168097408,44.13179680755572,-44.6625325673867
7.18944651697203,-2.230070245364814,8.14643044383713,9.557952842423541,40.15967611825379,-36.580788945556485
7.167145814518381,-1.8284734841822758,8.242009972261364,9.192144952967976,36.57946663688617,-29.418370652803507
7.148861079676559,-1.4626788178134142,8.333931421791045,8.897961246439941,33.601500118351886,-23.31696890328072
7.134234291498425,-1.1266638166298955,8.422911034255444,8.664791557407133,31.21449997607107,-18.165345615238714
7.122967653332125,-0.8145188168691848,8.509558949829515,8.483138101254745,29.340363027395377,-13.794768562415513
7.114822465163433,-0.521115186595231,8.594390330842062,8.34519041563059,27.891345418939036,-10.045678884805097
7.109611313297481,-0.2422017324058407,8.677842234998367,8.244733626782539,26.78836445618875,-6.785440403528701
7.107189295973423,0.025681912156046816,8.760289571266194,8.176879222747251,25.96487729389542,-3.909290532049878
7.107446115094983,0.28533068509500104,8.842058363493667,8.137786317426752,25.36585895248955,-1.336460477893748
7.110299421945933,0.5389892746198965,8.923436226667935,8.124421712647814,24.94542990290205,0.9943629017002387
7.115689314692132,0.788443573648917,9.004680443794413,8.134365341664816,24.664376581692412,3.1289487837701087
7.123573750428621,1.035087339465841,9.08602409721106,8.165654829502518,24.48793980222029,5.100544610206425
7.13392462382328,1.279966737488044,9.167680645506087,8.216660275604582,24.38393422982609,6.932075527181949
7.14672429119816,1.523806079786305,9.249847248262132,8.285981030876401,24.321163377207363,8.637669136052605
7.1619623519960225,1.7670177135583784,9.332707058570895,8.372357722236927,24.26807579998017,10.223652845449477
7.179632529131606,2.0096984715581803,9.416430635793263,8.474594250691421,24.191618228244085,11.689148852702287
7.1997295138471875,2.251614653840621,9.501176578300178,8.591485739218443,24.056261310697327,13.026369439761607
7.222245660385593,2.4921772669475946,9.587091435692363,8.72174943361606,23.823197209359158,14.220699887566155
7.247167433055069,2.7304092390411863,9.674308930028523,8.86395643249172,23.449734271854506,15.250650320638679
7.274471525445481,2.964906581759731,9.762948494353441,9.016462935698108,22.888943341985186,16.087762834076827
7.304120591263079,3.193796015179583,9.853113123710422,9.177340564038877,22.08964476124844,16.696578682018455
7.336058551414874,3.4146924627920674,9.94488652935081,9.344306350859062,20.996866656904484,17.034805458445025
7.370205476042795,3.624661129361112,10.038329592859402,9.514654405443512,19.552954380731624,17.0538794277357
7.406452087336406,3.8201906731684283,10.133476136913837,9.68519319972087,17.699564813573883,16.70019392006591
7.444653994068091,3.997186321304167,10.230328068911046,9.852195138921529,15.380826114465696,15.917352780238797
7.484625857281133,4.150994582448824,10.328850020300262,10.011368666723916,12.547956778187048,14.64988235956959
7.526135803105621,4.276474150230695,10.428963706967501,10.157867490319612,9.16556949676618,12.848842634906983
7.568900544607928,4.368129845198356,10.530542381870697,10.286355916668683,5.219665529578641,10.479631164957292
7.612581843059911,4.420326500494142,10.633405941037385,10.391152228318255,0.7268797425328116,7.531867512968204
7.656785108064852,4.427595297919471,10.737317463320567,10.466470903447936,-4.256166655180484,4.030506272166952
7.701061061044047,4.385033631367666,10.841982172355046,10.506775966169606,-9.62542022108293,0.04630261506532238
7.744911397357724,4.288779429156836,10.947049932016741,10.507238992320259,-15.22662179704279,-4.2972785695515245
7.787799191649292,4.136513211186409,11.052122321939944,10.464266206624744,-20.860111320101293,-8.824125911791079
7.829164323761156,3.927912097985396,11.156764984006191,10.376024947506833,-26.295127689736745,-13.31528091170557
7.86844344474101,3.6649608210880285,11.260525233481259,10.242872138389778,-31.29321702596054,-17.529083757465134
7.905093052951891,3.352028650828423,11.362953954865157,10.067581300815126,-35.637265955933145,-21.229016974073318
7.938613339460175,2.9956559912690914,11.463629767873307,9.855291131074393,-39.16004109529811,-24.213480981323613
7.9685698993728655,2.6040555803161105,11.562182679184051,9.613156321261156,-41.76536903243977,-26.34033588851643
7.994610455176026,2.186401889991713,11.658314242396663,9.349752962375993,-43.43691482535271,-27.54029239623326
8.016474474075943,1.7520327417381858,11.751811772020423,9.07435003841366,-44.23325986124045,-27.8167025732847
8.033994801493325,1.3097001431257813,11.84255527240456,8.796183012680814,-44.27196254271259,-27.233387811554675
8.047091802924582,0.8669805176986554,11.930517102531368,8.523849134565268,-43.707826619322745,-25.895070531664956
8.055761608101568,0.4299022515054279,12.01575559387702,8.264898429248618,-42.71096541671693,-23.92581436642262
8.060060630616622,0.00279259733825854,12.098404578169507,8.025640285584391,-41.448842786487646,-21.44984564004373
8.060088556590005,-0.4116958305266179,12.17866098102535,7.811141829183954,-40.074326801653775,-18.57716507580483
8.055971598284739,-0.8124390985431557,12.25677239931719,7.625370178425905,-38.71987562081492,-15.39443357735651
8.047847207299307,-1.199637854751305,12.33302610110145,7.47142584265234,-37.496787907123576,-11.960296181978983
8.035850828751794,-1.5746057338225405,12.407740359527972,7.35182288083255,-36.49802575838369,-8.30370260991705
8.02010477141357,-1.9395859914063776,12.481258588336297,7.2687858547333795,-35.80322710899772,-4.4237200982600395
8.000708911499506,-2.297618262496355,12.55394644688363,7.224548653750779,-35.48488348708513,-0.2895723065382268
7.9777327288745425,-2.652467097367206,12.626191933421138,7.221652930685397,-35.6150390128233,4.159999149208161
7.95120805790087,-3.008617487495439,12.698408462727992,7.263252922177479,-36.27209933503279,9.018509197319599
7.921121883025916,-3.3713384808457665,12.771040991949766,7.353438014150675,-37.54724321399384,14.414420342417715
7.887408498217458,-3.746810912985705,12.844575372091272,7.497582217574852,-39.54914550069783,20.513118622838277
7.849940389087601,-4.142302367992683,12.91955119426702,7.7027134038032345,-42.40335854785171,27.513113921938995
7.808517365407675,-4.5663359534712,12.996578328305052,7.977844543022624,-46.23652905414761,35.62279132604227
7.762854005872963,-5.028701244012677,13.076356773735279,8.334072456283048,-51.12028069747843,44.98267300696306
7.712566993432836,-5.539904050987461,13.15969749829811,8.783899186352679,-56.91344624887473,55.44761549250305
7.657167952922961,-6.109038513476209,13.247536490161636,9.33837534127771,-62.86680759020692,66.03858475797769
7.596077567788199,-6.737706589378278,13.340920243574413,9.998761188857486,-66.75973285445801,73.73865400372405
7.528700501894416,-7.405303917922858,13.440907855462987,10.736147728894727,-63.529878119326504,71.56957693806612
