th1 (rad),w1 (rad/s),th2 (rad),w2 (rad/s)
0.3265187681061186,-0.44449592383132536,1.656925200835793,1.5723501747671575
0.32207380886780534,-0.4522930264365661,1.6726487025834647,1.4746508320773493
0.31755087860343967,-0.46206987682605416,1.687395210904238,1.3772981406949318
0.3129301798351791,-0.47368405160768523,1.7011681923111874,1.2801896501283798
0.30819333931910226,-0.4869936696951625,1.7139700888124711,1.1832311430335485
0.30332340262215063,-0.5018571168378285,1.7258024002428067,1.0863360987485837
0.29830483145377235,-0.5181327744950429,1.7366657612302925,0.9894252278020081
0.2931235037088219,-0.5356787565139255,1.7465600135083126,0.8924260757790264
0.28776671614368265,-0.5543526558590145,1.7554842742661028,0.7952726930271901
0.2822231895850925,-0.5740113029515408,1.7634370011963747,0.6979053653389772
0.27648307655557713,-0.5945105368473999,1.7704160548497645,0.6002703997832199
0.27053797118710315,-0.6157049904027014,1.7764187588475966,0.5023199591429185
0.26438092128307616,-0.6374478906608938,1.7814419584390258,0.40401193786640965
0.25800644237646725,-0.6595908758845141,1.7854820778176899,0.30530987199258763
0.2514105336176221,-0.6819838309014686,1.7885351765376158,0.20618287512925337
0.24459069530860741,-0.7044747427048836,1.7905970052889084,0.10660559222137231
0.23754594788155858,-0.7269095785087656,1.7916630612111222,0.006558162528095102
0.23027685209647092,-0.7491321886956332,1.7917286428364032,-0.0939738170734151
0.22278553020951458,-0.7709842372767824,1.790788904665669,-0.19499933762454297
0.21507568783674674,-0.7923051626027215,1.7888389112894236,-0.29652204189618747
0.20715263621071953,-0.8129321710935083,1.7858736908704618,-0.39854031615038354
0.19902331449978444,-0.8327002666897403,1.781888287708958,-0.501047419737738
0.19069631183288704,-0.851442318538631,1.7768778135115806,-0.6040316625808112
0.18218188864750073,-0.8689891691099559,1.7708374968857725,-0.7074766407027683
0.17349199695640116,-0.8851697844680235,1.7637627304787449,-0.811361540001593
0.16464029911172093,-0.8998114477931375,1.755649115078729,-0.9156615184305977
0.15564218463378957,-0.9127399964352356,1.7464924998944231,-1.0203481766145495
0.1465147846694372,-0.9237801017811077,1.7362890181282777,-1.1253901266980633
0.13727698365162613,-0.9327555900148089,1.7250351168612972,-1.2307536688826626
0.12794942775147805,-0.9394898004418669,1.7127275801724706,-1.3364035846590645
0.11855452974705938,-0.943805976429198,1.6993635443258799,-1.4423040551855804
0.1091164699827674,-0.9455276821872354,1.6849405037740242,-1.5484197126130022
0.09966119316089506,-0.9444792365980884,1.6694563066478942,-1.6547168314307494
0.09021640079491416,-0.9404861530906826,1.6529091383335868,-1.761164666138288
0.08081153926400733,-0.9333755722066335,1.6352974916722038,-1.8677369407711382
0.071477783541941,-0.9229766710247282,1.6166201222644925,-1.9744134950852616
0.06224801683169371,-0.909121031063855,1.5968759873136398,-2.0811820915920283
0.05315680652105516,-0.8916429437225469,1.5760641663977195,-2.188040387213119
0.04424037708382969,-0.8703796298101137,1.5541837625255883,-2.2949980731719983
0.03553658078572855,-0.845171347367699,1.5312337817938684,-2.4020791869376117
0.027084867312051557,-0.8158613598758587,1.5072129899244922,-2.5093246006581755
0.01892625371329297,-0.782295735234346,1.4821197439179103,-2.6167946916134306
0.01110329636094951,-0.7443229447561852,1.4559517970017761,-2.7245722017661906
0.003660066913387658,-0.7017932310807583,1.4287060749841143,-2.832765295412921
-0.003357865397419925,-0.6545577147173969,1.400378422029985,-2.941510825976025
-0.009903442544593893,-0.6024672113782042,1.3709633137702248,-3.0509778246704067
-0.015928114658375937,-0.5453707370970944,1.3404535355235208,-3.1613712242669614
-0.02138182202934688,-0.48311368651844877,1.3088398232808511,-3.272935829040347
-0.026212958894531367,-0.4155356834779763,1.2761104649904476,-3.3859605348975723
-0.030368315729311132,-0.34246812492153184,1.2422508596414719,-3.500782787891894
-0.03379299697852645,-0.26373147376798467,1.2072430317625529,-3.61779323886811
-0.0364303117162063,-0.17913241052754292,1.1710650993738718,-3.7374404974088296
-0.038221635821481734,-0.08846103835705267,1.1336906943997835,-3.860235794622562
-0.03910624620505226,0.008511530934061373,1.095088336453558,-3.986757208087126
-0.039021130895711645,0.11203467455619548,1.0552207643726867,-4.117652846412226
-0.03790078415014969,0.22237797972704282,1.0140442359085644,-4.253641977474062
-0.035677004352879266,0.3398278205764266,0.9715078161338238,-4.3955124235041785
-0.032278726147115,0.46467863604291204,0.927552691898782,-4.544111500479971
-0.02763193978668588,0.597215540575448,0.8821115768939822,-4.7003261440909965
-0.0216597843809314,0.7376830565969651,0.8351083154530723,-4.865045349319767
-0.014282953814961748,0.886232025638808,0.7864578619598747,-5.0390942782220804
-0.005420633558573668,1.0428328726167635,0.7360669191776539,-5.22312396447901
0.005007695167593968,1.2071382962374224,0.6838356795328637,-5.417433305111338
0.017079078129968193,1.378272789279833,0.6296613464817503,-5.621691772665234
0.030861806022766523,1.554522749194492,0.5734444287550979,-5.834525427849211
0.04640703351471144,1.7329062722702997,0.5150991744766058,-6.052934761831311
0.06373609623741444,1.9086310095270567,0.45456982685829267,-6.271551173426284
0.082822406332685,2.0745270156970332,0.39185431512402985,-6.481844554033401
0.10356767648965534,2.2206953088303685,0.32703586958369585,-6.671604116030536
0.12577462957795904,2.334823339482411,0.2603198284233905,-6.825304400957099
0.14912286297278315,2.403727898271181,0.19206678441381952,-6.926122901281556
0.17316014195549495,2.4163471357245268,0.12280555540100396,-6.95991803401911
0.19732361331274023,2.367373885355594,0.053206375060812855,-6.920072747629859
0.22099735216629618,2.2595889268973783,-0.015994352415485732,-6.810567891770555
0.24359324143526997,2.103171640048951,-0.08410003133319129,-6.64496806326852
0.26462495783575946,1.912280698545612,-0.15054971196587646,-6.441765923348451
0.28374776482121555,1.7010595506603636,-0.214967371199361,-6.219040915527073
0.3007583603278192,1.4810239384206791,-0.27715778035463173,-5.991061157858994
0.315568599712026,1.260266776193159,-0.3370683919332217,-5.767357005057359
0.3281712674739576,1.0438425573986272,-0.3947419619837953,-5.553355113962758
0.33860969304794386,0.8345693447083419,-0.4502755131234229,-5.351528583765151
0.3469553864950273,0.6337996727683802,-0.5037907989610744,-5.16246577149607
0.3532933832227111,0.4420044179048653,-0.5554154566760351,-4.985662419549832
0.35771342740175976,0.25916476555627144,-0.6052720808715334,-4.820043141466134
0.36030507505732245,0.08501665253569402,-0.6534725122861947,-4.664280095761154
0.3611552415826794,-0.08080484039657262,-0.7001153132438063,-4.516977070516429
0.3603471931787137,-0.23868453469555637,-0.7452850839489705,-4.376770171449023
0.3579603478317582,-0.38898481619463043,-0.7890527856634607,-4.242379117616245
0.35407049966981186,-0.5320261358747465,-0.8314765768396232,-4.11263032504548
0.3487502383110644,-0.6680806733840081,-0.872602880090078,-3.986464464959966
0.3420694315772243,-0.7973733528263875,-0.9124675247396776,-3.862935883886527
0.33409569804896044,-0.9200867672537462,-0.9510968835785429,-3.741208075808026
0.32489483037642297,-1.036367989592261,-0.9885089643366232,-3.620547508149994
0.31453115048050034,-1.1463360911246654,-1.0247144394181231,-3.5003170060465973
0.3030677895692537,-1.250089685320723,-1.0597176094785892,-3.3799692723963153
0.29056689271604647,-1.3477141059291353,-1.0935173022025524,-3.259040771462964
0.2770897516567551,-1.4392879986594018,-1.1261077099171821,-3.1371460163795244
0.2626968716701611,-1.5248892060072357,-1.1574791700809774,-3.013972208078834
0.24744797961008874,-1.604599884668696,-1.1876188921617659,-2.8892741349432973
0.2314019807634018,-1.6785108320397335,-1.2165116335111987,-2.7628692352256867
0.21461687244300445,-1.746725022619146,-1.2441403258634556,-2.6346327340224156
0.19714962221681298,-1.8093603724316596,-1.2704866532036798,-2.5044927848851586
0.1790560184924964,-1.8665517629592954,-1.2955315810525314,-2.3724255679645343
0.16039050086290343,-1.9184523670766032,-1.3192558367321767,-2.2384503188032
0.1412059771921374,-1.9652343288160825,-1.3416403399202088,-2.102624282656037
0.12155363390397658,-2.0070888566554506,-1.3626665827467692,-1.9650376073910192
0.10148274533742208,-2.0442257963965322,-1.3823169588206794,-1.8258082029890692
0.08104048737345676,-2.076872754486836,-1.4005750408505702,-1.6850766071245897
0.0602717598285884,-2.1052738457056717,-1.417425806921816,-1.5430009042199537
0.03921902137153169,-2.129688140423749,-1.4328558159640155,-1.3997517498527159
0.017922139967294196,-2.1503878861355794,-1.4468533334625426,-1.2555075537121385
-0.0035817388940615966,-2.1676565757089525,-1.459408408999664,-1.110449872810823
-0.02525830465115112,-2.1817869309053552,-1.470512907727772,-0.9647590627925912
-0.04707617396020468,-2.1930788643571066,-1.480160498355698,-0.8186102294298215
-0.06900696260377574,-2.201837476531486,-1.4883466006499961,-0.6721695153020325
-0.0910253373690906,-2.2083711364751766,-1.4950682958030164,-0.5255907487482521
-0.11310904873384237,-2.2129896865164023,-1.5003242032904989,-0.3790124740598062
-0.1352389455990064,-2.216002801785699,-1.504114328031097,-0.23255537410788518
-0.1573989736168634,-2.217718525531146,-1.5064398817721758,-0.08632008976982816
-0.17957615887217485,-2.2184419908103865,-1.5073030826698741,0.059614564768418615
-0.2017605787802787,-2.2184743282003727,-1.50670693702219,0.20519299486724
-0.22394532206228243,-2.218111747504547,-1.5046550070735176,0.35038383072571855
-0.2461264395373279,-2.21764476871305,-1.5011511687662604,0.49518054598244754
-0.2683028872244584,-2.2173575631223246,-1.4961993633064359,0.6396016824744587
-0.2904764628556816,-2.217527348705767,-1.4898033464816913,0.7836906601591319
-0.3126517363427393,-2.218423763353058,-1.4819664398801,0.9275151299537461
-0.33483597397626985,-2.220308113822851,-1.4726912885805625,1.071165796491322
-0.35703905511449835,-2.2234323649852596,-1.4619796306156494,1.2147545947331038
-0.37927337876435097,-2.2280376902928176,-1.4498320846683184,1.35841204532807
-0.40155375566727913,-2.234352346749915,-1.4362479642150376,1.5022835338016953
-0.42389727913477826,-2.242588561460109,-1.4212251288770208,1.6465241521485428
-0.44632316474937933,-2.2529380169355746,-1.4047598873555354,1.7912916012257731
-0.46885254491873507,-2.265565393423304,-1.3868469713432776,1.9367364711942199
-0.4915081988529681,-2.2805992644294504,-1.3674796066313355,2.0829889893169304
-0.5143141914972627,-2.2981194464537373,-1.3466497167381661,2.230141049350743
-0.5372953859618,-2.318139685631129,-1.3243483062446586,2.3782220275101364
-0.5604767828181113,-2.340584352864235,-1.3005660859695571,2.5271665872092006
-0.5838826263467537,-2.3652576837398294,-1.2752944200974652,2.676772471522081
-0.607535203184152,-2.3918041749613943,-1.2485266953822445,2.8266463626821006
-0.631453244933766,-2.4196592749625,-1.2202602317554234,2.976136580801195
-0.655649837683391,-2.447990868418649,-1.1904988659474114,3.1242532301543116
-0.6801297463675775,-2.4756347973579778,-1.1592563336458683,3.2695801330677825
-0.7048860943411572,-2.501032401269745,-1.1265605323151906,3.4101893714816254
-0.7298964183538547,-2.522185154177746,-1.0924586386003743,3.5435789853270134
-0.7551182698956321,-2.536650287244113,-1.057022848747104,3.666666473583056
-0.7804847727680733,-2.5416089719324164,-1.0203561840112736,3.7758812826149373
-0.8059008624873975,-2.5340390565909523,-0.9825973711851242,3.867399943557766
-0.831241253053307,-2.511008741676891,-0.9439233717495465,3.9375458285191045
-0.8563513404700759,-2.4700696428881987,-0.9045479134643555,3.983322981741756
-0.8810520368989578,-2.4096734463864253,-0.8647146836469379,4.002978662403214
-0.9051487713628221,-2.329491755296127,-0.8246848970229058,3.9964282773747337
-0.9284436889157834,-2.230520749282404,-0.7847206142491585,3.965380526773295
-0.9507488964086075,-2.114918694401922,-0.7450668089814255,3.91309392032676
-0.9718980833526267,-1.985626722381011,-0.7059358697781579,3.843838041725222
-0.9917543505764368,-1.8459005769587014,-0.6674974893609057,3.7622388603715686
-1.0102133563460238,-1.698889888773366,-0.62987510075719,3.6726974705779085
-1.0272022552337574,-1.547350425786933,-0.5931481260514109,3.5789987749945187
-1.0426757594916267,-1.3935068459480244,-0.5573581383014656,3.4841315912165114
-1.056610827951107,-1.2390359603856036,-0.5225168223893005,3.3902760826841996
-1.069001187554963,-1.085123918534281,-0.4886140615624585,3.2988923246350095
-1.0798524267403058,-0.9325559199846924,-0.4556251383161084,3.210851961432569
-1.0891779859401527,-0.7818106374945879,-0.4235166187017827,3.1265743997670334
-1.0969960923150985,-0.6331445997282835,-0.39225087470411235,3.046147431451802
-1.1033275383123813,-0.4866609513727091,-0.36178940038959434,2.9694249938732162
-1.1081941478261084,-0.34236222274270545,-0.3320951504508622,2.896101980116823
-1.1116177700535355,-0.2001891267091058,-0.30313413064969397,2.8257692428951433
-1.1136196613206266,-0.06004812713968327,-0.27487643822074254,2.757952860768325
-1.1142201425920235,0.07816957149551573,-0.24729690961305928,2.6921415325304
-1.1134384468770684,0.2145753812188991,-0.22037549428775527,2.627805331030436
-1.1112926930648794,0.349275286670899,-0.1940974409774509,2.56440833467972
-1.1077999401981704,0.48236509186587984,-0.1684533576306537,2.501417015611026
-1.1029762892795116,0.6139280065618424,-0.14343918747454343,2.4383057453696972
-1.0968370092138933,0.7440338949892356,-0.11905613002084646,2.3745603817586094
-1.089396670264001,0.8727397115804897,-0.09531052620326036,2.309680605699109
-1.0806692731481962,1.0000907933596817,-0.07221372014626927,2.243181462564584
-1.0706683652145994,1.1261227806976533,-0.049781905520623435,2.174594408279766
-1.0594071374076228,1.2508640086321472,-0.028035961437825774,2.103468050299796
-1.0468984973213014,1.3743382587047956,-0.007001280934827811,2.029368695059052
-1.0331551147342535,1.4965677928306291,0.01329240601576271,1.951880757643558
-1.0181894368059472,1.6175766108533984,0.03281121359219829,1.8706070499873313
-1.0020136706974132,1.7373938855465265,0.051517284092071604,1.78516893654672
-0.984639731841948,1.8560575352562014,0.06936897345753881,1.695206328421621
-0.9660791564893859,1.9736178967116103,0.08632103674175502,1.6003774766908387
-0.9463429775222698,2.0901414596506878,0.1023248115086634,1.50035852266976
-0.925441562925763,2.205714621127254,0.11732839673536101,1.3948427670638879
-0.9033844167144904,2.320447410342253,0.1312768244059999,1.2835396325900834
-0.8801799426110679,2.434477123486242,0.14411222073190072,1.1661733175361555
-0.8558351713762055,2.5479717903084236,0.15577395390726229,1.0424811741469386
-0.8303554534731212,2.6611333664800356,0.16619876564873168,0.9122119006323456
-0.8037441198083208,2.774200502874702,0.17532088465505513,0.7751237165080006
-0.7760021147795738,2.8874506763876804,0.18307212182013513,0.6309828091658691
-0.747127608015697,3.0012013644993782,0.18938194991179383,0.4795625117952512
-0.7171155943707033,3.1158097892045453,0.19417757502974634,0.32064392377747786
-0.6859574964786578,3.2316705186199233,0.1973840142675211,0.15401905051698106
-0.6536407912924586,3.34920985867885,0.19892420477269093,-0.02050192817758492
-0.6201486927056701,3.468875440501891,0.19871918549091508,-0.20307688252297823
-0.5854599383006511,3.5911186428437554,0.1966884166656853,-0.39380797188960553
-0.5495487518722135,3.716366402786685,0.19275033694678922,-0.5927028833191985
-0.5123850878443467,3.844977487915886,0.18682330811359724,-0.7996139846129667
-0.4739353129651878,3.977176418235328,0.17882716826746756,-1.014145703915115
-0.43416354878283453,4.11295611912095,0.1686857112283164,-1.2355175914175862
-0.393033987591625,4.251938714068193,0.15633053531414054,-1.4623683688790852
-0.35051460045094307,4.393184277990673,0.14170685162534968,-1.6924872031490334
-0.3065827576710363,4.534943320763708,0.12478197959385935,-1.9224673764012972
-0.26123332446339925,4.6743663367755905,0.10555730582984638,-2.147303090302792
-0.21448966109564335,4.807221221724083,0.08408427492681846,-2.360003996782376
-0.1664174488784025,4.927732213576271,0.060484234958994694,-2.5513917375492836
-0.1171401267426398,5.028730242630464,0.03497031758350186,-2.71035077521627
-0.06685282431633516,5.102340282037326,0.00786680983133916,-2.8248549891405075
-0.0158294214959619,5.141322264013492,-0.020381740060065916,-2.883933464148761
0.03558380114417302,5.140845534481843,-0.04922107470155353,-2.8802561482509255
0.08699225648899145,5.10002898166359,-0.07802363618406279,-2.8123789373014403
0.13799254630562735,5.022420463749732,-0.1061474255570772,-2.6854595182307515
0.18821675094312468,4.915059933098835,-0.13300202073938472,-2.509926139386464
0.23736735027411304,4.786600443813965,-0.15810128213324937,-2.298769547863429
0.2852333547122527,4.645417187813294,-0.18108897761188367,-2.064789313418786
0.33168752659038564,4.498389022908287,-0.20173687074607152,-1.8187856123727864
0.37667141681946853,4.3504786660468175,-0.2199247268697994,-1.5688934330910151
0.4201762034799367,4.204865983292346,-0.23561366120070953,-1.3207199728406755
0.46222486331286017,4.063324748188135,-0.2488208609291163,-1.077846489805772
0.5028581107947415,3.926631522182272,-0.259599325827174,-0.842390587381477
0.5421244260165643,3.794909472888518,-0.26802323170098874,-0.6154858238013872
0.5800735207454495,3.66788321701688,-0.2741780899390026,-0.39764037620848103
0.6167523529156183,3.5450540529597214,-0.2781544937010874,-0.18898509639569605
0.6522028934452154,3.425814563647513,-0.28004434466504435,0.010563842132374657
0.6864610390816905,3.309520766924219,-0.2799387062437206,0.20120278351627893
0.7195562467509328,3.1955359849200597,-0.2779266784085578,0.3831791358705158
0.7515116066001334,3.083256464197388,-0.27409488704985263,0.5567564084129193
0.7823441712421073,2.972125473292366,-0.26852732296572346,0.7221960502495783
0.812065425975031,2.8616402379842123,-0.26130536246322766,0.8797496858563034
0.840681828354873,2.7513544756177053,-0.25250786560466465,1.029657589916421
0.8681953731110501,2.6408782459551174,-0.24221128970550043,1.1721507339856703
0.8946041555706012,2.529876170144474,-0.23048978236564374,1.3074547079532155
0.919902917272046,2.418064652199593,-0.2174152352861116,1.435794446328685
0.9440835637940419,2.3052084804910904,-0.20305729082282475,1.5573990938853741
0.9671356485989528,2.1911170317225865,-0.187483299883971,1.6725066070568368
0.9890468189161787,2.075640208813714,-0.17075823381340263,1.7813678583633088
1.009803221004316,1.958664192689216,-0.15294455522976955,1.8842501239147835
1.0293898629312082,1.8401070606314813,-0.13410205399062172,1.9814399094122257
1.047790933537523,1.71991431070151,-0.11428765489649946,2.0732451209868934
1.0649900766445382,1.598054326525223,-0.09355520368663053,2.159996621700247
1.0809706199097904,1.4745138155997366,-0.07195523746962806,2.24204923750047
1.0957157580657877,1.3492932548814096,-0.04953474509462336,2.319782290882088
1.1092086906146017,1.2224023785171316,-0.02633692218580248,2.3935997481793545
1.121432714399773,1.0938557436667613,-0.002400924704008933,2.4639300682924676
1.1323712718364407,0.9636684115037144,0.022238375978915745,2.531225837068903
1.1420079559514777,0.8318517822217069,0.04755063434960478,2.595963262417468
1.150326473773695,0.698409626235778,0.07351026697377946,2.6586415898788305
1.1573105700360526,0.5633343602836482,0.10009668287256777,2.7197824755269155
1.162943913638889,0.42660362899849735,0.12729450762783692,2.7799293205646354
1.167209949928874,0.288177272798096,0.1550938008334833,2.8396465263955473
1.170091722656855,0.14799479589232478,0.18349026609743876,2.8995185651203146
1.1715716706157782,0.005973499829889817,0.21248545174864192,2.9601486706368427
1.171631405614077,-0.13799247335745354,0.24208693845501034,3.022156828630808
1.1702514808805025,-0.2840318270925461,0.2723085067413184,3.086176563776239
