th1 (rad),w1 (rad/s),th2 (rad),w2 (rad/s)
0.9401914390704948,-0.7569195797291306,1.5177167771133262,-3.100436699208268
0.9326222432732035,-0.7732606442602383,1.4867124101212434,-3.187735777027938
0.9248896368306011,-0.7875445485091364,1.454835052350964,-3.2763889441423797
0.9170141913455098,-0.799937108527249,1.4220711629095404,-3.3661732071921047
0.9090148202602373,-0.8106564811137903,1.3884094308376194,-3.456806538033555
0.9009082554490994,-0.8199806978462276,1.3538413654572838,-3.5479390462386853
0.8927084484706371,-0.8282553416352819,1.318361974994897,-3.63914370127601
0.8844258950542843,-0.8359009141662805,1.281970537982137,-3.72990709684898
0.8760668859126215,-0.8434192331178094,1.2446714670136472,-3.819621012919954
0.8676326935814433,-0.8513979539701106,1.2064752568844477,-3.9075758433936043
0.8591187140417422,-0.8605120560663148,1.1673994984505116,-3.9929572909039037
0.8505135934810791,-0.8715209118165494,1.1274699255414726,-4.074848027795685
0.8417983843629137,-0.8852594434662078,1.0867214452635159,-4.152236192536
0.8329457899282515,-0.9026219601321773,1.045199083338156,-4.224032509033002
0.8239195703269298,-0.9245376652989198,1.0029587582478259,-4.289097344152272
0.8146741936739406,-0.951937615866551,0.9600677848063032,-4.346278045493696
0.8051548175152751,-0.9857141105841785,0.9166050043513663,-4.394455409514742
0.7952976764094333,-1.026674974441149,0.8726604502562189,-4.432596266129604
0.7850309266650218,-1.0754967140833838,0.8283344875949228,-4.459807283090681
0.774275959524188,-1.1326816427475819,0.783736414764016,-4.475383716149646
0.7629491430967122,-1.1985243808816954,0.7389825776025195,-4.478846512864072
0.7509638992878953,-1.2730923441849187,0.6941941124738787,-4.469962277354596
0.7382329758460461,-1.3562229554858205,0.6494944897003327,-4.448743071057539
0.7246707462911879,-1.4475377489654202,0.6050070589897574,-4.415426332130218
0.7101953688015337,-1.546470924751379,0.5608527956684553,-4.3704384838455335
0.6947306595540199,-1.6523079313714404,0.51714841083,-4.314348200403765
0.6782075802403055,-1.7642287427067433,0.4740049288259623,-4.247816262414031
0.6605652928132381,-1.8813507221390242,0.43152676620182195,-4.171548418135047
0.6417517855918479,-2.00276705795776,0.3898112820204715,-4.086256064895987
0.6217241150122703,-2.127578262917511,0.3489487213715116,-3.992627487308715
0.6004483323830953,-2.2549157217161353,0.3090224464984245,-3.8913104073289837
0.5778991751659339,-2.3839574475148577,0.2701093424251346,-3.782905088431258
0.5540596006907853,-2.51393695234255,0.23228029154082205,-3.6679663266585574
0.5289202311673598,-2.6441464673315775,0.19560062827423647,-3.547012305285212
0.502478766494044,-2.773935766681996,0.16013050522138433,-3.4205383406536813
0.47473940882722404,-2.902707674964886,0.12592512181484752,-3.2890338372186494
0.44571233207757516,-3.029911077425887,0.09303478344266103,-3.1530011579240926
0.41541322130331626,-3.155031985251606,0.0615047718634201,-3.0129755012206494
0.3838629014508002,-3.2775829819201543,0.031375016851213605,-2.869545196367038
0.3510870716315987,-3.3970912214347475,0.002679564887543222,-2.7233720493309055
0.31711615941725124,-3.513085081035008,-0.024554155605765834,-2.575211472239621
0.2819853086069012,-3.6250796017740927,-0.050306270328162046,-2.425932094099764
0.24573451258916026,-3.7325609916805864,-0.07456559126915968,-2.2765343627425527
0.2084089026723544,-3.834970729883326,-0.0973309348965852,-2.1281672903518314
0.17005919537352115,-3.931690203999435,-0.11861260780010352,-1.9821419565054281
0.1307422933335268,-4.022027331344785,-0.1384340273651578,-1.8399396741224796
0.09052202002007895,-4.105207220509961,-0.1568334241063826,-1.7032119024117915
0.04946994781497934,-4.180369533534219,-0.1738655431305005,-1.5737681937356471
0.007666252479637148,-4.246575643842798,-0.18960322506785698,-1.4535479370088933
-0.03479950395879083,-4.302828698669832,-0.2041387044379459,-1.3445717812717874
-0.07782779094548914,-4.348108974828931,-0.21758442225066377,-1.2488698430626108
-0.12130888069377846,-4.381425181960047,-0.23007312068128988,-1.168386520063187
-0.16512313251337893,-4.401879531503818,-0.24175698588192174,-1.1048660546771505
-0.20914192782841712,-4.408740764461049,-0.25280564642869324,-1.0597284261328792
-0.2532293354730276,-4.401515758139084,-0.263402930690022,-1.033950429922765
-0.29724449305441847,-4.380008083582767,-0.27374243498924966,-1.0279700338670235
-0.3410445738902461,-4.344352228463286,-0.2840221353279199,-1.0416314044489634
-0.384488096174879,-4.295015729458984,-0.29443844937240954,-1.0741825024437082
-0.42743825346946884,-4.232767559334967,-0.30518027439684664,-1.1243277748596738
-0.4697659290628185,-4.1586179934484315,-0.3164235521454434,-1.1903278972807174
-0.5113521089973028,-4.073740595161449,-0.32832683111825056,-1.2701301070350899
-0.5520895149489172,-3.979389268795994,-0.34102813218860145,-1.3615089026600213
-0.5918834076368772,-3.8768222094909492,-0.35464322121520164,-1.462198313841253
-0.6306516297317867,-3.767240988673299,-0.36926520435361415,-1.5700021986938442
-0.6683240396185197,-3.6517485288253506,-0.3849652263405526,-1.6828757727231118
-0.7048415249067732,-3.531325757890948,-0.4017939840677837,-1.7989776813138958
-0.7401547824856827,-3.4068240823154854,-0.4197837608809227,-1.9166961609044053
-0.7742230233088375,-3.2789696053384363,-0.43895072248996675,-2.034654940117493
-0.8070127193622219,-3.1483749397704415,-0.45929727189114167,-2.151704914074073
-0.8384964687599262,-3.0155550695166546,-0.4808143210318824,-2.266906930327428
-0.8686520194550927,-2.88094459691072,-0.5034833903351567,-2.3795098505035206
-0.8974614654241999,-2.7449145990826698,-0.5272784888401919,-2.488926814682613
-0.9249106114150266,-2.607788062965465,-0.552167756987018,-2.5947115629181168
-0.9509884920446813,-2.4698534278483346,-0.5781148726161992,-2.6965358445721255
-0.9756870263231646,-2.331376144593832,-0.6050802310619204,-2.7941683707918132
-0.999000787769103,-2.1926083937145826,-0.6330219147698386,-2.8874553986620954
-1.0209268717062487,-2.0537972271674554,-0.6618964687564596,-2.976302827363415
-1.0414648439779233,-1.915191442888036,-0.6916594970300938,-3.060659591917679
-1.0606167584068036,-1.7770474905276197,-0.7222660929492706,-3.140502124428954
-1.0783872333120799,-1.639634657141582,-0.7536711141935601,-3.215819693232443
-1.0947835798834957,-1.5032397015439845,-0.7858293111258846,-3.2866005140134016
-1.1098159768989355,-1.3681709998497775,-0.8186953162660187,-3.352818647821524
-1.1234976868974333,-1.2347621342713577,-0.8522235027442339,-3.4144218568592657
-1.135845308240147,-1.1033747049673068,-0.8863677213128265,-3.471320777691505
-1.14687905528982,-0.974399977025437,-0.9210809290897415,-3.5233799859167427
-1.1566230550600745,-0.8482588057104421,-0.9563147289489089,-3.57041174864444
-1.165105643117179,-0.725399138948204,-0.9920188464353533,-3.6121734573309894
-1.172359634506661,-0.6062903171910562,-1.0281405810086632,-3.648369849195007
-1.1784225376785715,-0.4914134313374344,-1.0646242795006133,-3.678661086504323
-1.1833366719919458,-0.38124721880647616,-1.1014108903656565,-3.7026774861491263
-1.1871491441800106,-0.27624942347523884,-1.1384376652271477,-3.7200411083270732
-1.189911638414763,-0.17683422454865366,-1.1756380763104184,-3.730393506256364
-1.1916799806602496,-0.08334718971627869,-1.212942011372982,-3.7334277868611103
-1.1925134525574124,0.003959923446799865,-1.2502762892415933,-3.728921936491181
-1.1924738533229444,0.08495153770981104,-1.2875655086065052,-3.716769436246259
-1.1916243379458462,0.15962462651284326,-1.3247332029689678,-3.6970028725699207
-1.1900280916807178,0.2281163652892902,-1.361703231694667,-3.669806790202895
-1.1877469280278248,0.2907014497723354,-1.398401299596696,-3.635517458698118
-1.1848399135301013,0.34777901836485864,-1.4347564741836771,-3.5946092617609473
-1.1813621233464526,0.39985073711812763,-1.4707025668012865,-3.5476695712620065
-1.1773636159752714,0.4474928835570234,-1.5061792625139065,-3.4953656797125117
-1.172888687139701,0.4913259011441951,-1.5411329193110317,-3.438408233688199
-1.167975428128259,0.5319848074279082,-1.5755170016479136,-3.3775155222634154
-1.16265558005398,0.5700931612278524,-1.6092921568705478,-3.3133821063780045
-1.1569546484417015,0.6062422958247379,-1.642425977934328,-3.2466539824860825
-1.1508922254834542,0.64097649153351,-1.674892517759189,-3.177911134948572
-1.144482460568119,0.674783905070518,-1.7066716291086745,-3.107657227197222
-1.1377346215174138,0.7080924983577543,-1.7377482013806467,-3.036315446862711
-1.1306536965338363,0.741269921669687,-1.7681113558492738,-2.964229160382817
-1.1232409973171393,0.7746262497681554,-1.797753647453102,-2.8916659730798084
-1.1154947348194577,0.808418566388584,-1.8266703071839,-2.8188239270344773
-1.107410549155572,0.8428565681180641,-1.8548585464542449,-2.7458388039652437
-1.0989819834743912,0.8781085573482678,-1.8823169344938973,-2.672791760945655
-1.0902008979009086,0.9143073803863274,-1.9090448521033538,-2.599716768118935
-1.0810578240970452,0.9515560233087883,-1.9350420197845433,-2.5266075176885896
-1.0715422638639573,0.9899326993436629,-1.960308094961429,-2.4534236264074707
-1.0616429368705207,1.0294953492824106,-1.984842331225504,-2.3800960627966634
-1.0513479833776966,1.070285535902488,-2.0086432918534705,-2.306531802855083
-1.0406451280186717,1.1123317508519366,-2.0317086098820214,-2.2326177625712913
-1.0295218105101522,1.1556521737819503,-2.0540347875077343,-2.1582240799635635
-1.0179652887723327,1.2002569336319828,-2.07561702830737,-2.0832068301197477
-1.0059627194360128,1.2461499246979681,-2.0964490966085676,-2.007410258734496
-0.9935012201890331,1.2933302282570251,-2.1165231991959126,-1.9306686165257827
-0.9805679179064628,1.3417931860532075,-2.1358298853611704,-1.852807671116221
-0.9671499860459307,1.3915311661956078,-2.1543579620723325,-1.7736459660987471
-0.9532346743839747,1.4425340558391873,-2.1720944217333202,-1.6929958900666613
-0.9388093338255828,1.4947895089384216,-2.189024380633987,-1.6106646119424937
-0.9238614387361986,1.5482829716926558,-2.2051310267534117,-1.5264549332680422
-0.908378609019272,1.6029975032079136,-2.220395576086092,-1.4401661033101223
-0.8923486339871929,1.6589134044664788,-2.234797237119193,-1.3515946388637874
-0.8757594999425281,1.716007664960706,-2.248313183507831,-1.26053518739227
-0.858599423292921,1.774253233328901,-2.260918535381754,-1.1667814694786691
-0.840856890959632,1.833618116042687,-2.2725863500765406,-1.0701273342959685
-0.8225207097992051,1.894064306657105,-2.2832876234195005,-0.970367959725871
-0.803580066732634,1.955546547378176,-2.2929913030167595,-0.8673012266539515
-0.7840246012588523,2.0180109247719953,-2.301664315283299,-0.7607292946071122
-0.7638444920111324,2.081393302390403,-2.3092716082293703,-0.6504604030381331
-0.7430305589872284,2.1456175949842136,-2.3157762122597516,-0.5363109189548979
-0.7215743830373862,2.21059389188048,-2.3211393214493006,-0.4181076469935813
-0.6994684441185814,2.2762164410722816,-2.3253203979192363,-0.29569041221166237
-0.6767062797078587,2.3423615106464015,-2.3282773020413527,-0.16891491861852395
-0.6532826646013946,2.4088851503625035,-2.329966451227538,-0.03765587760103367
-0.6291938130977696,2.4756208834570193,-2.3303430100035487,0.09818961016555322
-0.6044376042631994,2.542377366974213,-2.3293611139018933,0.23869844802220114
-0.5790138305934572,2.608936067947908,-2.326974129421671,0.3839177544679766
-0.5529244699139781,2.675049012304371,-2.3231349518769915,0.5338609500825614
-0.5261739797909344,2.740436673069441,-2.317796342376166,0.6885037945135688
-0.49876961306024,2.8047860738866603,-2.3109113044310305,0.8477804646311076
-0.47072175232137337,2.8677491924495087,-2.3024334997847196,1.0115797815515952
-0.4420442603968783,2.928941755618767,-2.292317701969204,1.1797417097867064
-0.4127548428406906,2.9879425231040155,-2.280520284871337,1.3520542653672025
-0.38287541760965044,3.04429315901584,-2.266999742217665,1.5282509804860511
-0.352432486019492,3.097498789779512,-2.2517172324128043,1.7080090791139015
-0.3214574981216969,3.147029342380396,-2.2346371416216653,1.890948520411325
-0.2899872046978929,3.192321748360334,-2.215727656417552,2.076632064056333
-0.2580639872142896,3.2327830862261573,-2.1949613357769886,2.264566503547065
-0.225736156352028,3.2677947179256837,-2.172315670741518,2.4542052001315433
-0.19305820917277117,3.2967174538450084,-2.1477736187402026,2.6449520315054826
-0.1600910346343211,3.3188977554596213,-2.1213240984251476,2.8361668462058787
-0.12690205707972488,3.3336749553512797,-2.0929624299630887,3.027172487135849
-0.09356530752621209,3.3403894406809824,-2.0626907050917302,3.2172634161825746
-0.06016141311940226,3.338391708140359,-2.0305180709299044,3.405715936483502
-0.02677749603799867,3.3270521555564407,-1.9964609115650693,3.5917999693066434
0.00649302551756574,3.305771427438404,-1.9605429118720028,3.7747922982685505
0.03955073979194978,3.273991078915592,-1.9227949888893172,3.9539911442666
0.0722906505811057,3.2312042655190716,-1.8832550774466512,4.128731880022652
0.10460269323629642,3.176966107003417,-1.8419677586464247,4.298403634452021
0.1363723543063306,3.110903315226751,-1.7989837223019045,4.462466476639131
0.1674813874585981,3.032722623922472,-1.7543590575355132,4.6204688114647885
0.19780861369782282,2.9422175183387127,-1.7081543694208654,4.77206457052544
0.22723078888120996,2.839272742367064,-1.660433723715611,4.917029751516802
0.2556235163048806,2.7238660669434167,-1.611263426200443,5.055277856556709
0.28286217697431476,2.5960668416744817,-1.560710647634876,5.1868738148093705
0.3088228453910596,2.4560309242928993,-1.5088419094867822,5.312046055426303
0.3333831546339886,2.303991687772739,-1.4557214489325192,5.431196528083762
0.356423071511716,2.14024693566175,-1.4014094836516815,5.5449086503603615
0.3778255408683335,1.9651417001912261,-1.3459603971480778,5.653953388402939
0.39747695787024573,1.7790470388185167,-1.2894208632640485,5.759293938835239
0.4152674282584309,1.5823350652136705,-1.2318279238756962,5.862089760121112
0.4310907789105676,1.3753505343181587,-1.1732070262744851,5.963700981643196
0.44484428425374917,1.1583793383508714,-1.113570016458053,6.065694476790293
0.4564280776372579,0.9316142641827361,-1.0529130716901502,6.169853095908827
0.46574422027908524,0.6951183357734316,-0.991214540731062,6.278189678019105
0.47269540363681956,0.4487860764941017,-0.9284326439508709,6.392967430131845
0.47718326440176057,0.19230319377787175,-0.8645029696495524,6.516727948789388
0.4791062963395393,-0.07489425775682518,-0.7993356901616585,6.65232729246624
0.478357353761971,-0.35365879785722343,-0.7328124172369961,6.802978548823636
0.47482076578339877,-0.6451630311871972,-0.6647826317487597,6.9722951710050864
0.4683691354715268,-0.9509118645444197,-0.5950596800387089,7.164320769572552
0.45886001682608263,-1.2727106493527698,-0.5234164723429834,7.383513683033033
0.4461329103325549,-1.6125390293769344,-0.44958133551265306,7.634620142334784
0.43000752003878556,-1.972231448068529,-0.3732351340893052,7.922302941892122
0.4102852055581003,-2.3527758022372494,-0.29401210467038397,8.250268575986388
0.38675744753572777,-2.7528930414903017,-0.2115094189105201,8.61942710069092
0.35922851712082476,-3.1663689085819655,-0.1253151479036109,9.024343806452794
0.3275648280350051,-3.5775640607946873,-0.03507170983908295,9.447155133039486
0.2917891874270582,-3.955348646390986,0.05939984149131192,9.849209856178
0.25223570096314835,-4.248968457616325,0.15789194005309193,10.165149532498482
0.2097460163869851,-4.395515688809764,0.2595434353780768,10.31264317376622
0.16579085949888744,-4.348778254652897,0.362669867115739,10.231195861621455
0.12230307695235848,-4.114938308254212,0.46498182573195357,9.930112209015089
0.08115369386981636,-3.7533651529273673,0.5642829478221044,9.488721970723596
0.04362004234054268,-3.3365708143010586,0.6591701675293404,9.00177520858298
0.010254334197532092,-2.915972758981275,0.7491879196151703,8.534073147222147
-0.01890539339228066,-2.516847692347281,0.8345286510873917,8.1150356438617
-0.044073870315753466,-2.1475088130409294,0.9156790075260087,7.751883155164574
-0.06554895844616276,-1.8081155801267912,0.9931978390776545,7.441681068251652
-0.08363011424743068,-1.4957243055002734,1.067614649760171,7.178018509317997
-0.09858735730243341,-1.206628111127352,1.1393948348533511,6.953970096977463
-0.11065363841370693,-0.9372982668515458,1.2089345358231258,6.763197065075932
-0.12002662108222238,-0.6846975577217718,1.2765665064738851,6.600244011736018
-0.1268735966594401,-0.4463353955219913,1.3425689465912454,6.460524579838704
-0.13133695061466,-0.2202272819305058,1.4071741923896324,6.340206193279621
-0.13353922343396504,-0.004826281486483008,1.4705762543224286,6.236077306443531
-0.13358748624882988,0.20104716521410626,1.5329370273868639,6.145427080242129
-0.13157701459668883,0.3982681571963178,1.5943912981892852,6.06594574191748
-0.12759433302472564,0.5874610727264523,1.65505075560846,5.995645671860361
-0.12171972229746111,0.7690448341828694,1.7150072123270634,5.932800553913186
-0.11402927395563242,0.9432711634399243,1.7743352178661953,5.875899376312512
-0.10459656232123318,1.110257321855966,1.8330942116293205,5.823612289027747
-0.09349398910267352,1.2700145933985234,1.891330334519598,5.774765751385355
-0.08079384316868829,1.4224734657822444,1.9490779920334516,5.728324832885134
-0.06656910851086584,1.5675061717132042,2.006361240362303,5.683380896025594
-0.0508940467937338,1.7049470002307276,2.063195049322559,5.639143186052206
-0.03384457679142652,1.834610586545352,2.119586481183081,5.594933092261311
-0.015498470925973003,1.9563082395997529,2.175535812105694,5.550180046732363
0.0040646114700245255,2.06986226835482,2.2310376125730174,5.5044182049965915
0.024763234153572723,2.1751182170289036,2.286081794622983,5.457283220546761
0.04651441632386176,2.2719549108738546,2.3406546268284507,5.408508587472219
0.06923396543260031,2.3602922403965256,2.394739712703173,5.357921184281542
0.09283688783656557,2.4400966644211324,2.448318924545988,5.305435804696378
0.11723785448077689,2.511384481111901,2.5013732825929518,5.25104860284419
0.1423516992918959,2.5742229908209806,2.5538837686213935,5.1948295047349005
0.1680939292001057,2.628729745855578,2.6058320636687426,5.136913739407036
0.1943812266586615,2.6750701420329466,2.657201201062813,5.077492717421203
0.22113192807899096,2.7134536495735837,2.7079761282370254,5.0168045295004635
0.2482664645747268,2.744129003487175,2.7581441735320302,4.955124354683492
0.2757077546095985,2.767378675774213,2.807695417078865,4.892755058382853
0.30338154136734063,2.78351293539753,2.8566229676626937,4.830018231099701
0.33121667072131594,2.7928637706193062,2.904923149973691,4.767245874209163
0.359145308427509,2.795778906428972,2.9525956087157827,4.7047728864598035
0.3871030974917987,2.7926161021187434,2.999643337580381,4.642930449461251
0.41502925851298617,2.7837378649651185,3.0460726420749933,4.5820403573447095
0.44286663716263736,2.769506669068931,3.0918930456484404,4.522410288590982
0.4705617038533267,2.750280726357537,3.13711714853435,4.464329979008888
0.49806451111690203,2.726410321225244,3.181760448324439,4.408068225050434
0.5253286143291545,2.6982346920367033,3.2258411305749433,4.353870626079695
0.5523109612495215,2.6660794217573525,3.26937983683574,4.301957962133326
0.578971755467095,2.6302542857859526,3.3123994164570734,4.252525098919414
0.6052742983249545,2.591051496798681,3.3549246674462676,4.2057403128835045
0.6311848132929413,2.5487442830753357,3.3969820705751026,4.1617449347021545
0.6566722561236946,2.5035857373622377,3.438599519922124,4.12065321825805
0.681708113497317,2.4558078769237857,3.4798060521047045,4.082552352946018
0.7062661922665548,2.4056208612917707,3.5206315756341646,4.047502549267421
0.7303224008794725,2.3532123217711773,3.5611066011268386,4.01553714058293
0.7538545240971843,2.2987467656267198,3.6012619725326678,3.986662657366345
0.7768419917534516,2.242365027856209,3.6411285991063314,3.960858844321644
0.7992656420320137,2.1841837545044864,3.6807371875495476,3.938078605465149
