th1 (rad),w1 (rad/s),th2 (rad),w2 (rad/s)
0.9990392534301955,-1.7461682855284302,3.4367538162048685,2.429236486226857
0.9815775705749112,-1.830706414483058,3.461046181067137,2.3735643080278352
0.9632705064300806,-1.9180019585742754,3.484781824147415,2.314887312246765
0.9440904868443378,-2.0079706079224766,3.5079306972698827,2.2532670757890565
0.9240107807651131,-2.1004507147406315,3.5304633680277733,2.18888052370558
0.9030062736177068,-2.195185529130488,3.552352173264829,2.122047023970155
0.881054418326402,-2.291804939682409,3.5735726435045305,2.0532567118331535
0.8581363689295779,-2.3898080840990605,3.594105210622862,1.9831980660346995
0.8342382880885872,-2.4885487323724367,3.6139371912832092,1.912781920456048
0.8093528007648628,-2.5872258643037367,3.6330650104877695,1.8431582630832473
0.7834805421218255,-2.684882251825801,3.651496593118602,1.7757215196241158
0.7566317196035675,-2.7804139676944715,3.6692538083148434,1.7120997700225604
0.7288275799266227,-2.8725934168513367,3.686374806015069,1.6541237566489668
0.7001016457581094,-2.9601075956066443,3.702916043581559,1.6037728310422952
0.670500569802043,-3.0416117808078487,3.718953771891982,1.5630972476226825
0.6400844519939645,-3.1157968263368443,3.7345847443682088,1.5341193342816184
0.608926483730596,-3.181465951430667,3.749925937711025,1.518719674728874
0.5771118242162894,-3.237614744006719,3.7651131344583137,1.5185179033763199
0.5447356767762221,-3.283506545024327,3.780298313492077,1.534760278315715
0.5119006113259789,-3.3187348581837517,3.795645916275234,1.56822714235869
0.47871326274414133,-3.3432652093835378,3.8113281876988205,1.6191722386676695
0.44528061065030594,-3.357450971597051,3.8275199100854973,1.6873025683734861
0.41170610093433546,-3.3620207950436045,3.8443929357692324,1.7718025015690597
0.3780858929838994,-3.3580389174084817,3.862110960784923,1.8714000419865955
0.3445055038098146,-3.346843116045501,3.880824961204789,1.9844675985641096
0.3110370726493596,-3.3299677582027605,3.9006696371904304,2.1091454066341027
0.27773739506733197,-3.309060828718582,3.9217610912567715,2.243473642681437
0.24464678678014615,-3.285803775476108,3.944195827683586,2.3855195698311498
0.21178874902538508,-3.2618416470998635,3.9680510233818973,2.5334884662445956
0.17917033255438644,-3.238728716130836,3.9933859080443432,2.6858109129794228
0.14678304539307807,-3.2178921401482485,4.020244017174138,2.8412033294839363
0.11460412399159559,-3.2006137535037054,4.048656050468977,2.9987025799844913
0.08259798645655853,-3.188028197091848,4.078643076268822,3.1576784342144206
0.050717704485640044,-3.1811344667606876,4.110219860610966,3.3178294051593755
0.018906359818033167,-3.180817578361468,4.1433981546625605,3.4791680765795303
-0.012901815965581515,-3.187877259362826,4.1781898354283555,3.6420017523495183
-0.04478058855920978,-3.2030611764537937,4.214609852951851,3.8069134633651887
-0.07681120032374772,-3.227100996249877,4.252678987585503,3.974747384907824
-0.10908221028624648,-3.2607503976156678,4.292426461434581,4.146601792571803
-0.14168971426240318,-3.3048249090461357,4.3338924793602995,4.323831960817422
-0.17473796335286454,-3.360244075093759,4.377130798968474,4.508064931436061
-0.20834040410380214,-3.4280769190253793,4.422211448282835,4.701227808556897
-0.24262117329405594,-3.5095918940560598,4.469223726368404,4.905591032758698
-0.27771709223461655,-3.6063123344781656,4.518279636695991,5.123827654097612
-0.3137802155793982,-3.720077436115462,4.569517913236967,5.359088359586491
-0.3509809899405528,-3.8531061318174094,4.623108796832832,5.615088660435763
-0.3895120512587269,-4.008054973353431,4.67925968343719,5.896196558302313
-0.4295926009922612,-4.188047217032183,4.738221649020213,6.207490568124153
-0.471473073162583,-4.396620194027472,4.800296554701455,6.554717351279088
-0.5154392751028577,-4.637474294769163,4.865843728214246,6.943991153840509
-0.5618140180505493,-4.913776213398369,4.935283639752651,7.380897141909116
-0.610951780184533,-5.226518120623898,5.009092611171742,7.868312181237167
-0.663216961390772,-5.57102300429456,5.087775732984114,8.401680515517963
-0.7189271914337176,-5.930300505231151,5.171792538139294,8.959930157809865
-0.7782301964860292,-6.264779370268462,5.261391839717392,9.491325306747743
-0.8408779901887138,-6.503536577515124,5.356305092784869,9.901284047605174
-0.905913355963865,-6.555578808007996,5.455317933260921,10.06784019145899
-0.971469144043945,-6.3620289529779,5.555996335175511,9.9135488735469
-1.035089433573724,-5.954556566979231,5.65513182391098,9.485428351709269
-1.0946349992435163,-5.435194876984283,5.749986107428073,8.925711922546721
-1.148986948013359,-4.898110282801531,5.839243226653541,8.363608124339194
-1.1979680508413744,-4.392121952998604,5.922879307896933,7.864866416287153
-1.2418892703713604,-3.9314880915080668,6.0015279720598045,7.447814572829179
-1.2812041512864412,-3.5144684371942208,6.076006117788096,7.109323906742451
-1.3163488356583835,-3.134115223174235,6.147099356855521,6.83962499373236
-1.3476899878901258,-2.782762689092678,6.215495606792844,6.628335888393074
-1.3755176147810526,-2.453522656378878,6.281778965676775,6.4663798463713595
-1.4000528413448414,-2.1406160799104956,6.346442764140488,6.346332551499805
-1.4214590021439464,-1.8393137887529503,6.409906089655486,6.262256063578104
-1.4398521400314759,-1.5457778875658024,6.472528650291267,6.2094103356615244
-1.455309918907134,-1.2569039848469392,6.534622753647882,6.183972207939695
-1.4678789587556034,-0.9701931825978511,6.596462475727279,6.182796519633289
-1.477580890581582,-0.6836577541791881,6.658290440923611,6.203221801958717
-1.4844174681233737,-0.39575653546417194,6.720322658943199,6.24291394320084
-1.4883750334780155,-0.10535416249852081,6.782751798375207,6.29974021899355
-1.4894285751030008,0.18830173713631299,6.845749200565143,6.3716676330230735
-1.4875455577316377,0.48559094234481126,6.909465876895373,6.45668164498355
-1.4826896483081895,0.786523915692106,6.974032693345209,6.552723396155083
-1.4748244091512683,1.0907431629496347,7.03955992730676,6.657645237061877
-1.463916977521772,1.3975278573532792,7.106136379677379,6.7691855898597675
-1.4499416989482392,1.7058067728400648,7.173828235575976,6.88496481956302
-1.4328836312198385,2.0141840983179593,7.242677883771606,7.002503711922997
-1.412741790236659,2.3209816944549724,7.312702920890835,7.119265254927235
-1.3895319732921092,2.6242996739934563,7.383895573440108,7.232718676906669
-1.3632889765521747,2.9220948460300913,7.456222760209174,7.340422249093747
-1.3340680280918737,3.212273772195053,7.529626982700112,7.4401185672583425
-1.3019452903699231,3.4927943584606296,7.604028168372695,7.529833442629
-1.2670173467853167,3.7617676242694276,7.679326502798985,7.6079678247675675
-1.2293996705426224,4.01755013997148,7.755406181046661,7.673371952420835
-1.1892241691429077,4.258818020862619,7.832139900570869,7.725392511412839
-1.1466359889342816,4.484615385617787,7.909393825684997,7.763886861702664
-1.1017898350781037,4.694373487117514,7.987032694302024,7.7892028007029985
-1.0548461002069285,4.8879006191627346,8.064924722309055,7.802126951174811
-1.0059670940153012,5.065346565032727,8.142945991820802,7.80380873662852
-0.9553136283649739,5.227148063280281,8.220984079187089,7.795669307165464
-0.9030421477321711,5.3739631096712435,8.298940772258742,7.779305405351799
-0.8493025166354586,5.506601859367525,8.376733826312261,7.7563971741680975
-0.7942364980417834,5.625960727417924,8.454297798053942,7.728626799882755
-0.7379768907676042,5.7329644683647265,8.531584066052769,7.697612275611722
-0.680647246083957,5.8285190200689785,8.608560188808886,7.664858030949812
-0.6223620558832672,5.913476091689269,8.685208769118384,7.631722086718195
-0.5632272949663745,5.988609076137439,8.761525989985566,7.599397940185107
-0.5033412042050001,6.054598941878139,8.837519969387417,7.568908568915405
-0.44279521478621864,6.112028270506978,8.913209055076571,7.541109654003057
-0.38167493208114883,6.161381461263814,8.988620151616601,7.516699213057304
-0.3200611174685107,6.203049211812311,9.063787143747174,7.496231148701069
-0.25803062535038757,6.237335607055227,9.138749455234185,7.480130636323812
-0.1956572692798353,6.264466428158964,9.213550761597423,7.468709709285576
-0.13301260499824563,6.284597581263521,9.288237858690279,7.462181799411854
-0.07016662918561042,6.2978228104417395,9.362859676684398,7.460674331549116
-0.007188401081193022,6.3041800897555005,9.43746641999989,7.4642387480712
0.05585339981636199,6.303656283235882,9.512108807480601,7.472857558798346
0.11888996264872081,6.296189824451403,9.586837383068584,7.48644818595457
0.18185186089323485,6.281671307700591,9.66170186492813,7.504863517056696
0.24466857397024078,6.259942010954061,9.736750500098697,7.527889205943707
0.3072679940797814,6.230790496971443,9.812029392158134,7.555237888015495
0.36957589904949584,6.193947573599158,9.88758177103829,7.586540613877732
0.4315153747854874,6.149080046118148,9.963447177177068,7.62133596869225
0.4930061752466689,6.095783870708551,10.039660536863991,7.6590575437317945
0.5539640139537544,6.033577522308242,10.11625111230131,7.699020670169606
0.6142997891768368,5.961896620447446,10.193241319003006,7.740409615961715
0.6739187553813113,5.8800911023990565,10.270645415162623,7.782266778770923
0.7327196664053018,5.787426470910461,10.348468082950331,7.823485761144251
0.7905939311144065,5.683090833855282,10.426702940561775,7.862810548535663
0.8474248394529593,5.566209535620705,10.505331046047132,7.8988432608376735
0.9030869348091664,5.4358690758104204,10.584319478655509,7.930063020630816
0.9574456255672705,5.291151628132723,10.663620108861817,7.954858259667785
1.0103571418485977,5.131180723180214,10.743168691458495,7.971574144469884
1.0616689490803999,4.955177487223088,10.822884432903194,7.978575639963488
1.1112207239526308,4.762525249662922,10.90267018930283,7.974325012041315
1.15884597644926,4.55283847028643,10.982413439423244,7.957470381567621
1.2043743611521243,4.326030058393056,11.06198814323892,7.926939533713699
1.2476346617360548,4.082369654447091,11.141257538576058,7.882030980922008
1.2884583582805256,3.82252478461055,11.220077848385278,7.822492820050182
1.3266836061266312,3.547577390280996,11.29830277658578,7.7485797567132595
1.3621593800294411,3.259010282162153,11.375788574152914,7.661080155924584
1.3947494828510627,2.958661433729276,11.45239937571216,7.561308129630418
1.4243360971883554,2.6486481883549238,11.528012457008463,7.451060058582924
1.4508225790719047,2.331267588946861,11.602523057594293,7.332539751914514
1.4741352549613733,2.0088822532505697,11.675848455113439,7.208260678925065
1.494224077493879,1.6838028119148478,11.747931061902689,7.080936487459778
1.5110621056130276,1.358177611383379,11.818740426777287,6.953371857607264
1.5246438817268613,1.0338983529660029,11.88827414535336,6.8283646438448695
1.5349828652565214,0.7125271709017569,11.956557791791809,6.708627705601087
1.542108136965539,0.39524709633584953,12.02364406884782,6.596735550868389
1.5460606079288974,0.08283460280152571,12.089611424356505,6.495097676957918
1.5468889539569126,-0.22434954959745734,12.154562401126084,6.405957870922899
1.5446454584609381,-0.5263564735192009,12.218621979835312,6.3314170467833595
1.5393818937257462,-0.8236382393010162,12.281936150303146,6.273476503944443
1.5311455113327361,-1.1170357406856692,12.34467091534259,6.234098656949813
1.5199751539258795,-1.407770705137546,12.407011901912089,6.215283072079041
1.5058974468745039,-1.6974465177360467,12.46916473263288,6.219156769083512
1.4889229816971434,-1.9880617355155967,12.531356300323715,6.248078888591053
1.4690423643419874,-2.282039187522765,12.593837089209625,6.3047605579797725
1.4462219724667598,-2.5822719466824964,12.656884694789422,6.3924003552103175
1.4203992529999347,-2.8921841144620895,12.720808698341525,6.514832604425234
1.391477411855314,-3.2157967698862664,12.785957024385777,6.676676403931908
1.3593194441564513,-3.5577720796499808,12.852723788425095,6.883450192590685
1.3237417233599515,-3.9233694662082836,12.921558290351001,7.141563187226418
1.2845080286978687,-4.318161579454042,12.992973922223266,7.457975821928255
1.2413264129033283,-4.747174626561314,13.067553680442549,7.839066134309733
1.1938546666377152,-5.212755258714,13.145944341785645,8.287731502310738
1.1417271140505751,-5.70986707010349,13.228821656808753,8.796910219511116
1.0846284433495403,-6.217027324988892,13.316790759003863,9.33699573202251
1.0224581700996513,-6.6828044243390785,13.41016071632409,9.83695575369249
0.9556301258562605,-7.017517511662185,13.508530273861014,10.172487302968221
0.8854549507396386,-7.118881326731201,13.610255146890696,10.201209990841964
0.8142661374723267,-6.948095928712507,13.712267246799115,9.867901544349918
0.7447851781852016,-6.579616120084296,13.810946262242615,9.273033753631418
0.6789890169843587,-6.138186412920674,13.90367659977893,8.585296730215346
0.6176071528551519,-5.712077991858906,13.989529567081084,7.922389623815067
0.5604863729365628,-5.337563716052164,14.068753463319235,7.3307084951711285
0.5071107357760412,-5.021095523597577,14.142060548270946,6.816385395931208
0.4568997805400654,-4.757779539971433,14.210224402230258,6.370651810737324
0.40932198514035106,-4.539980554603957,14.273930920337632,5.981457875830952
0.3639221795943115,-4.360405276757396,14.333745499095942,5.637526416999397
0.32031812682673755,-4.212935557446615,14.390120763265935,5.32937540274993
0.27818877125227137,-4.0926775999270175,14.443414517293435,5.049313352687324
0.23726199525300118,-3.995783472149648,14.493907650820308,4.791157347781799
0.19730416053150468,-3.919236609642661,14.541819224298125,4.549926799223105
0.15811179443507806,-3.8606588778848177,14.587318492290356,4.321586481328255
0.11950520565622988,-3.8181502314623446,14.630534357103638,4.102851611843556
0.08132370334160643,-3.790157353444524,14.671562873222074,3.8910495799113396
0.043422129807161196,-3.775364232283277,14.710473369021187,3.6840291915962577
0.005668487484328424,-3.7725979752850467,14.74731366093715,3.480108898450111
-0.032057492268522045,-3.7807446789304886,14.782114749921652,3.278056796761688
-0.06986493905782692,-3.7986720706470902,14.814895317889269,3.0770959774453552
-0.10785165976429784,-3.8251577219696964,14.845666277663723,2.876928655164853
-0.1461032369839948,-3.858823893831536,14.874435564215371,2.677771341868551
-0.18469147592231017,-3.8980824519189627,14.901213277634056,2.4803913226614163
-0.2236723004414998,-3.9410955614240684,14.926017190860671,2.286132285377116
-0.26308325605574046,-3.9857595883503327,14.948878513714442,2.0969149327487746
-0.3029408519392438,-4.0297201450783655,14.96984766304193,1.9151978701772068
-0.34323805339002744,-4.070424808631703,14.988999641743703,1.7438862333927727
-0.38394230147634445,-4.105216230914902,15.00643850407763,1.586181308306266
-0.4249944637854935,-4.131462272559282,15.022300317160694,1.445373821836196
-0.4663090865110863,-4.1467124197388046,15.036754055379056,1.3245953133108987
-0.5077762107084743,-4.148862898195536,15.050000008512166,1.2265533379518905
-0.5492648396904297,-4.136308705573632,15.062265541891685,1.1532838500774327
-0.590627926746166,-4.10806085969115,15.073798380392459,1.1059551910885723
-0.6317085353430776,-4.063811879210781,15.084857932303345,1.0847517056742162
-0.6723466541351854,-4.003940776617563,15.095705449360088,1.0888525036155323
-0.712386061901361,-3.92945851906833,15.106593974396242,1.1165054787733264
-0.7516806470920443,-3.8419036733824616,15.117759029183976,1.1651821856981186
-0.7900996838258689,-3.7432040542727396,15.129410851040957,1.2317886455642528
-0.8275317243685963,-3.635522860760003,15.1417287374966,1.3129022146723703
-0.8638869529761963,-3.5211071473313846,15.154857759643322,1.4050053370378413
-0.8990980244495101,-3.402153284331478,15.1689078130137,1.5046921658806953
-0.9331195572928249,-3.2806993560768083,15.183954734672508,1.6088318898058809
-0.965926550853593,-3.1585492929522947,15.200043053570566,1.7146812318755331
-0.997512043783116,-3.0372288454779266,15.21718986588932,1.8199463781017542
-1.0278843322378952,-2.9179699133462025,15.235389329670339,1.9228004470873226
-1.0570640313713573,-2.801717531481011,15.254617334141212,2.0218660773987938
-1.0850812066861675,-2.689152958761955,15.2748359949152,2.11617389546872
-1.111972736273787,-2.580726549452114,15.295997733869887,2.2051070350102124
-1.1377800017683082,-2.476695035156257,15.31804880421999,2.288340174835656
-1.1625469521198708,-2.3771591286829254,15.340932205968345,2.3657793824907216
-1.1863185434067,-2.2820986790691147,15.364589999793253,2.437506884259122
-1.2091395301973913,-2.191403765057853,15.388965068635844,2.5037330269471028
-1.2310535678479697,-2.104901020145058,15.414002398905316,2.5647562824467607
-1.2521025780494204,-2.0223751201010156,15.439649961729783,2.620931179324849
-1.2723263292504305,-1.9435857640807215,15.465859273523032,2.672643463609096
-1.2917621868912377,-1.868280694066434,15.492585708159123,2.720291502854033
-1.310444993831902,-1.7962053783653225,15.519788623187663,2.7642728625891757
-1.3284070476155552,-1.727109980370912,15.547431351813556,2.8049750255798584
-1.3456781474192643,-1.6607541803809038,15.575481102069354,2.842769334012095
-1.3622856892230732,-1.5969103418149195,15.603908795409474,2.878007372896104
-1.3782547926412225,-1.5353654304636168,15.632688869138436,2.911019154653791
-1.3936084469458587,-1.475922016285949,15.661799060684974,2.942112595951615
-1.4083676671087182,-1.4183986167949743,15.69122018664449,2.971573891734029
-1.422551653276668,-1.3626295811614113,15.72093592556183,2.999668486132221
-1.436177949088282,-1.308464664891854,15.750932610423153,3.0266424161535093
-1.4492625957372005,-1.2557684053901124,15.781199034584688,3.05272386380625
-1.4618202797911017,-1.204419377534843,15.811726273222751,3.0781247980828645
-1.4738644735664501,-1.1543093841479966,15.84250752120358,3.1030426225232848
-1.4854075674079301,-1.1053426175036603,15.873537947428812,3.1276617691946846
-1.4964609935829667,-1.0574348136101168,15.904814565120759,3.152155197798413
-1.5070353417190678,-1.010512409848537,15.936336117098744,3.17668577084372
-1.5171404658175531,-0.964511707809721,15.96810297480718,3.2014074836696147
-1.5267855828956503,-0.9193780361376572,16.000117049643876,3.2264665325190527
-1.5359793632570269,-0.8750649023052992,16.032381714969066,3.252002205598328
-1.5447300122800798,-0.8315331170681133,16.06490173702505,3.278147581616844
-1.553045343450761,-0.78874987051331,16.09768321284122,3.305030018072961
-1.5609328421558941,-0.7466877338761417,16.130733513021948,3.3327714077916357
-1.5683997194946555,-0.7053235564313071,16.164061227099864,3.361488177115366
-1.5754529550589687,-0.6646372216642109,16.19767610887102,3.3912909928527006
-1.5820993272756108,-0.6246102215476979,16.231589018799546,3.422284137759381
-1.5883454294910877,-0.5852240021721558,16.26581186017714,3.4545645061930412
-1.5941976695128093,-0.5464580284340227,16.30035750523907,3.4882201630091747
-1.5996622497971495,-0.5082875104338861,16.33523970686916,3.5233284003555783
-1.6047451249014884,-0.47068073043583636,16.370472990872717,3.5599532197415025
-1.6094519322058467,-0.43359590789058916,16.406072523070133,3.59814216210465
-1.6137878912847525,-0.3969775429008642,16.442053944691178,3.6379224088088313
-1.6177576667137612,-0.360752188128408,16.478433168779265,3.6792960847814062
-1.6213651885950453,-0.3248236189302231,16.51522612962708,3.7222347157412146
-1.6246134247843476,-0.2890674058834831,16.552448476784495,3.7666728304142834
-1.6275040988431824,-0.253324948147228,16.590115205088637,3.812500762798246
-1.6300373483246546,-0.21739710614998792,16.62824021271662,3.8595568066975496
-1.6322113193861545,-0.1810376832343015,16.666835780783593,3.9076190121978502
-1.6340216962184975,-0.14394715112894926,16.70591197090557,3.9563970958564396
-1.635461167729787,-0.1057671910905355,16.745475941864136,4.005525160669207
-1.6365188396406924,-0.06607681929033937,16.785531193470828,4.0545561733824504
-1.6371796078335958,-0.02439105495224287,16.826076755204653,4.102959391383635
