th1 (rad),w1 (rad/s),th2 (rad),w2 (rad/s),a1 (rad/s^2),a2 (rad/s^2)
2.038227777787773,-2.355467433969557,3.331739531086941,-2.6013899543806147,-5.212813362838164,-2.0570854066941138
2.0146731034480774,-2.4075955675979386,3.305725631543135,-2.6219608084475556,-5.196623962332903,-2.5350562209501373
1.990597147772098,-2.4595618072212675,3.2795060234586595,-2.647311370657057,-5.1621662829088155,-3.0274597267029004
1.9660015296998854,-2.5111834700503555,3.253032909752089,-2.677585967924086,-5.108543863223241,-3.5337475191177
1.940889694999382,-2.562268908682588,3.226257050072848,-2.7129234431152627,-5.03475391645897,-4.053248056093024
1.915267005912556,-2.6126164478471776,3.1991278156416953,-2.753455923676193,-4.939681840085852,-4.585163412730977
1.8891408414340842,-2.662013266248036,3.1715932564049334,-2.7993075578035027,-4.822096919872194,-5.12856718801343
1.8625207087716038,-2.710234235446758,3.1436001808268985,-2.850593229683637,-4.680649592929305,-5.682403984363565
1.8354183664171362,-2.7570407313760508,3.1150942485300623,-2.9074172695272726,-4.513870662791203,-6.245490969403895
1.8078479591033756,-2.8021794380039626,3.0860200758347895,-2.9698721792213116,-4.320172880190026,-6.81652212356652
1.779826164723336,-2.845381166805863,3.056321354042576,-3.038037400456977,-4.097855312885032,-7.3940758745158055
1.7513723530552774,-2.8863597199347133,3.0259409800380066,-3.111978159202135,-3.845110922649833,-7.976626915796019
1.7225087558559302,-2.9248108291612116,2.9948211984459854,-3.1917444283600953,-3.560037742815812,-8.562563097732275
1.6932606475643182,-2.9604112065893697,2.9629037541623844,-3.277370059337418,-3.240654000761919,-9.15020835716728
1.6636565354984245,-2.9928177465969887,2.9301300535690102,-3.368872142909091,-2.8849174515435534,-9.737852711621233
1.6337283580324546,-3.0216669211124243,2.8964413321399194,-3.4662506700253033,-2.4907490770193115,-10.323790374212248
1.6035116888213303,-3.0465744118826175,2.8617788254396666,-3.569488573767426,-2.0560611560829227,-10.906367038339258
1.5730459447025043,-3.0671350234434467,2.8260839397019923,-3.6785522441508185,-1.5787895248499677,-11.484037324871425
1.5423745944680698,-3.0829229186919465,2.789298417260484,-3.7933926173995327,-1.0569296234108156,-12.055433267623355
1.5115453652811504,-3.0934922149260546,2.7513644910864885,-3.913946950075766,-0.4885756761070974,-12.619444522341457
1.4806104431318898,-3.0983779716871256,2.7122250215857306,-4.040141395299181,0.12803790859057332,-13.175310705662941
1.4496266634150186,-3.09709759260122,2.6718236076327386,-4.17189450235581,0.7944940768244503,-13.7227258855677
1.4186556874890064,-3.0891526518329755,2.6301046626091806,-4.309121761211487,1.5121509484430324,-14.261954729062166
1.3877641609706766,-3.074031142348545,2.5870134449970656,-4.4517413085021085,2.282101313563115,-14.793959128497354
1.3570238495471911,-3.051210129212914,2.5424960319120444,-4.599680899787082,3.105135030708399,-15.320533212898729
1.326511748255062,-3.02015877890583,2.496499222914174,-4.75288623191607,3.9817050012647903,-15.844443398866945
1.2963101604660037,-2.980341728893182,2.448970360595013,-4.911330665904739,4.911896250671446,-16.36956836412313
1.2665067431770718,-2.9312227663864676,2.399857053935966,-5.07502634954597,5.895395581840619,-16.901031221952465
1.2371945155132071,-2.8722688105680616,2.3491067904405063,-5.244036661765495,6.931455789497534,-17.445312204271396
1.2084718274075266,-2.802954252673086,2.296666423822851,-5.41848978380821,8.018842784168804,-18.010323932097542
1.1804422848807956,-2.722765824831398,2.2424815259847692,-5.598593023129185,9.155745009043839,-18.605421386041414
1.1532146266324816,-2.6312083747409596,2.1864955957534775,-5.784647236989599,10.339610430888678,-19.241302566802485
1.126902542885072,-2.5278122704320727,2.1286491233835814,-5.977060262657624,11.566854326838213,-19.92972965489124
1.1016244201807512,-2.4121437271636905,2.0688785207570053,-6.1763575592065365,12.832346725422587,-20.682958066731025
1.0775029829091143,-2.2838202599094646,2.0071149451649397,-6.383187139873847,14.128535170367686,-21.512692677099675
1.0546647803100195,-2.142534908205788,1.9432830737662012,-6.598314066644844,15.443977196580093,-22.428282787807355
1.0332394312279616,-1.9880951362399868,1.8772999330997528,-6.822596894522917,16.760935845316094,-23.433701865696918
1.0133584798655617,-1.8204857777868257,1.8090739641545237,-7.056933913179886,18.051520063084265,-24.52261574250833
0.9951536220876934,-1.6399705771559832,1.738504625022725,-7.30216007060497,19.2716329715872,-25.670520095379064
0.9787539163161336,-1.447254247440111,1.6654830243166752,-7.55886527155876,20.351777176139937,-26.822582553218755
0.9642813738417325,-1.2437364756787117,1.5898943716010876,-7.827091097090948,21.18374649291009,-27.87569325871756
0.9518440090849454,-1.0318990107496109,1.5116234606301782,-8.105848029678123,21.602916823551652,-28.653976432819455
0.9415250189774492,-0.8158698425140943,1.4305649803333969,-8.392387794006318,21.368365514780233,-28.88016222144943
0.9333663205523083,-0.602186187366292,1.3466411023933338,-8.681189416220812,20.14936259703863,-28.15346002759919
0.9273444586786453,-0.40069256139590576,1.2598292082311258,-8.962724016496804,17.53878369328301,-25.960636367812814
0.9233375330646862,-0.22530472446307567,1.1702019680661577,-9.222330380174931,13.128816293616714,-21.76732772249188
0.9210844858200555,-0.09401656152690854,1.0779786642644085,-9.44000365739985,6.683443282874502,-15.23656618182631
0.9201443202047864,-0.027182128698163527,0.9835786276904099,-9.592369319218113,-1.6141216423210145,-6.547528809675165
0.9198724989178048,-0.043323345121373674,0.8876549344982287,-9.657844607314864,-10.988603342325279,3.382144088690482
0.919439265466591,-0.15320937854462646,0.79107648842508,-9.624023166427959,-20.2040558038002,13.071954585020972
0.9179071716811448,-0.3552499365826285,0.6948362567608004,-9.493303620577748,-28.04211832252401,21.100684373819355
0.9143546723153185,-0.6356711198078686,0.5999032205550229,-9.282296776839555,-33.799711142072674,26.734648111134383
0.9079979611172398,-0.9736682312285954,0.5070802527866274,-9.01495029572821,-37.425394952506075,30.06851917280149
0.8982612788049539,-1.347922180753656,0.4169307498293453,-8.714265104000196,-39.294300013821626,31.70224916560381
0.8847820569974173,-1.7408651808918725,0.32978809878934334,-8.397242612344158,-39.902769912953396,32.33679663338022
0.8673734051884986,-2.1398928800214065,0.24581567266590176,-8.073874646010356,-39.680620726383076,32.54088675586453
0.8459744763882845,-2.5366990872852373,0.1650769262057982,-7.7484657784517115,-38.9346373199466,32.69278269371955
0.8206074855154322,-2.9260454604847035,0.08759226842128108,-7.421537951514516,-37.86186861091432,33.00890605040426
0.7913470309105851,-3.3046641465938467,0.01337688890613592,-7.091448891010473,-36.58264624096548,33.592781443183625
0.7583003894446466,-3.6704906090035014,-0.05753760000396882,-6.755521076578637,-35.17079689471855,34.476662790303806
0.7215954833546117,-4.022198577950687,-0.1250928107697552,-6.410754448675599,-33.67529585173297,35.6503543124243
0.6813734975751048,-4.358951536468016,-0.1892003552565112,-6.054250905551355,-32.134053337167394,37.07954264446878
0.6377839822104246,-4.68029206983969,-0.24974286431202475,-5.683455479106668,-30.581958958822796,38.717194298306715
0.5909810615120278,-4.986111659427918,-0.30657741910309144,-5.2962835361236005,-29.055064834217735,40.510790158458086
0.5411199449177486,-5.276662307770096,-0.35954025446432747,-4.891175634539019,-27.592226387244082,42.40712247682821
0.48835332184004765,-5.552584571642536,-0.40845201080971766,-4.467104409770737,-26.235040173762652,44.35554144391818
0.43282747612362227,-5.814934973380163,-0.45312305490742505,-4.023548995331556,-25.026566753707407,46.309937761421715
0.3746781263898206,-6.065200640917237,-0.4933585448607406,-3.560449617717339,-24.009048655839994,48.22930078974059
0.3140261199806482,-6.305291127475638,-0.528963041037914,-3.078156609819933,-23.220553740323535,50.076296306409446
0.25097320870589185,-6.537496664878873,-0.5597446071361134,-2.5773936467558385,-22.690114870658576,51.812856886879864
0.18559824205710312,-6.764397813585458,-0.5855185436036718,-2.05926507788704,-22.430418832708874,53.39115894762664
0.11795426392124854,-6.988702001912547,-0.6061111943825422,-1.5253534884107733,-22.42635729647574,54.73748070240599
0.048067243902123066,-7.2129655748773045,-0.62136472926665,-0.9779786813867134,-22.616824703785685,55.725345974407674
-0.024062411846649978,-7.439133821915162,-0.6311445160805171,-0.4207252216426367,-22.866437436037156,56.133653849000126
-0.09845375006580159,-7.667798196275533,-0.6353517682969435,0.1406113168473646,-22.92485274731394,55.58734340704798
-0.17513173202855692,-7.897046723748672,-0.6339456551284699,0.6964847509178445,-22.378151016854197,53.48837671032016
-0.25410219926604366,-8.120828233917214,-0.6269808076192914,1.231368518021046,-20.617505523934778,48.97506001481743
-0.3353104816052158,-8.327003289156561,-0.614667122439081,1.7211191181692205,-16.89334241568227,41.00931084502347
-0.41858051449678146,-8.495936713313384,-0.5974559312573887,2.1312122266194553,-10.569529931899151,28.756440820894436
-0.5035398816299153,-8.601632012632376,-0.5761438089911942,2.4187766348284,-1.6361012400987094,12.337881659324472
-0.589556201756239,-8.617993025033362,-0.5519560426429102,2.5421554514216447,8.78286170933249,-6.429885176378146
-0.6757361320065727,-8.530164407940038,-0.5265344881286937,2.4778565996578634,18.587092038781893,-24.271925974763082
-0.761037776085973,-8.34429348755222,-0.5017559221321151,2.235137339910233,25.801308114250563,-38.07689927220482
-0.8444807109614952,-8.086280406409713,-0.47940454873301275,1.8543683471881844,29.681775324933398,-46.55021318905173
-0.9253435150255924,-7.7894626531603794,-0.4608608652611309,1.3888662152976672,30.753919276961174,-50.31771676891805
-1.0032381415571963,-7.481923460390767,-0.4469722031081542,0.8856890476084867,30.06373670062999,-50.85324214433608
-1.0780573761611039,-7.181286093384467,-0.4381153126320694,0.3771566261651259,28.542578678404325,-49.53287200945228
-1.1498702370949485,-6.895860306600424,-0.4343437463704181,-0.11817209392939687,26.797806053598602,-47.297003543193476
-1.2188288401609528,-6.627882246064438,-0.4355254673097121,-0.5911421293613317,25.154862814571832,-44.687135482910485
-1.2851076626215971,-6.3763336179187196,-0.4414368886033254,-1.0380134841904365,23.757982074558083,-41.98041601618327
-1.3488709988007843,-6.1387537971731385,-0.4518170234452298,-1.4578176443522692,22.65116955962572,-39.30370083030668
-1.4102585367725158,-5.912242101576881,-0.4663951998887525,-1.850854652655336,21.828244181980796,-36.70639022021976
-1.4693809577882846,-5.693959659757073,-0.48490374641530587,-2.2179185548575338,21.260274748353595,-34.20156141838146
-1.5263205543858553,-5.4813569122735375,-0.5070829319638812,-2.559934169041348,20.90965029442984,-31.78763508919535
-1.5811341235085907,-5.272260409329239,-0.5326822736542947,-2.877810519933302,20.73697448001453,-29.459152502302764
-1.6338567276018832,-5.064890664529094,-0.5614603788536277,-3.1724020449563297,20.70431515832798,-27.211725890926054
-1.684505634247174,-4.857847512945814,-0.5931843993031909,-3.44451930386559,20.77667566122724,-25.043948574712594
-1.7330841093766323,-4.650080756333542,-0.6276295923418468,-3.6949587896127163,20.922628786724093,-22.957756192861847
-1.7795849169399678,-4.4408544684663,-0.6645791802379739,-3.924536351541335,21.1145676884593,-20.958032438982062
-1.8239934616246307,-4.229708791581707,-0.7038245437533872,-4.134116675931155,21.328780433656764,-19.05188460700995
-1.8662905495404478,-4.01642098724514,-0.7451657105126988,-4.3246355220012545,21.545433447953,-17.247820321017734
-1.9064547594128993,-3.80096665276561,-0.7884120657327113,-4.497113725211432,21.74849258707189,-15.55495273044189
-1.9444644259405555,-3.583481726894891,-0.8333832029848256,-4.6526632525158504,21.925587239345607,-13.982303199011447
-1.9802992432095043,-3.3642258545014347,-0.8799098355099841,-4.792486284505965,22.06781589634487,-12.538235654487442
-2.013941501754519,-3.143547695537986,-0.9278346983550438,-4.917868641050839,22.169492095415432,-11.230034078251935
-2.0453769787098985,-2.921852774583832,-0.9770133847655522,-5.030168981833358,22.22783268020068,-10.063618592017843
-2.074595506455737,-2.699574447781825,-1.0273150745838857,-5.130805167753537,22.2425932580893,-9.043383536367658
-2.1015912509335553,-2.4771485152009323,-1.078623126261421,-5.221239003117214,22.215657069058384,-8.172131389725033
-2.1263627360855644,-2.2549919445103486,-1.1308355162925932,-5.302960317014464,22.150582408647235,-7.45106836388379
-2.1489126555306677,-2.033486120423876,-1.1838651194627379,-5.377471000653302,22.052109838527585,-6.879820103260095
-2.1692475167349063,-1.8129650220386002,-1.237639829469271,-5.446269201685904,21.925623439307923,-6.456418056920931
-2.1873771669552924,-1.593708787645521,-1.29210252148613,-5.510833382255113,21.776550187751226,-6.177197602177495
-2.2033142548317475,-1.3759432857680087,-1.347210855308681,-5.5726053582768875,21.609668195302625,-6.036536741536424
-2.2170736876894277,-1.1598466038149824,-1.4029369088914498,-5.632970725692251,21.42827846470132,-6.0263485724597645
-2.2286721537275773,-0.9455638191679692,-1.4592666161483723,-5.693234211416849,21.233177584743096,-6.135222755829668
-2.238127791919257,-0.7332320433205382,-1.5161989582625408,-5.754586438975146,21.021354658331905,-6.347095696105011
-2.245460112352462,-0.5230184967372191,-1.5737448226522923,-5.818057395936196,20.784334647311688,-6.639328804550282
-2.250690297319834,-0.31517515026410226,-1.6319253966116543,-5.884450683981699,20.506122702280507,-6.980116584240101
-2.253842048822475,-0.11011392324129718,-1.6907699034514712,-5.9542518498241,20.160807861518396,-7.325283478973045
-2.254943188054888,0.09149415537388678,-1.7503124219497121,-6.027504684613831,19.710120873230935,-7.614845746286963
-2.254028246501149,0.28859536410619613,-1.8105874687958505,-6.1036531420767,19.10168747104006,-7.770322466863413
-2.251142292860087,0.47961223881659676,-1.8716240002166176,-6.181356366745335,18.269422612951647,-7.694750797070488
-2.246346170471921,0.6623064649461132,-1.9334375638840708,-6.25830387471604,17.138356680712132,-7.278546415338514
-2.23972310582246,0.8336900317532345,-1.9960206026312313,-6.3310893388694245,15.636644323429783,-6.415038610853748
-2.2313862055049274,0.9900564749875324,-2.0593314960199254,-6.395239724977962,13.716419197447381,-5.028107649068508
-2.221485640755052,1.1272206669620062,-2.123283893269705,-6.445520801468647,11.381067917139996,-3.1088398168145592
-2.210213434085432,1.2410313461334062,-2.1877391012843916,-6.476609199636793,8.70937928093712,-0.7484111085858032
-2.1978031206240978,1.3281251389427773,-2.2525051932807596,-6.484093310722651,5.861006734202381,1.853873035687266
-2.18452186923467,1.386735206284801,-2.317346126387986,-6.465554580365779,3.0508321862379284,4.424271077065327
-2.170654517171822,1.4172435281471802,-2.382001672191644,-6.421311869595125,0.4961718152912395,6.684746846386848
-2.1564820818903505,1.4222052463000927,-2.4462147908875953,-6.354464401131256,-1.6397277969149284,8.427873656090382
-2.1422600294273497,1.4058079683309435,-2.509759434898908,-6.270185664570352,-3.2803696181390594,9.559510026123089
-2.12820194974404,1.3730042721495528,-2.5724612915446112,-6.1745905643091215,-4.433914633285273,10.094949638464938
-2.1144719070225446,1.3286651258167002,-2.6342071971877026,-6.073641067924472,-5.166610244727562,10.122883928598613
-2.1011852557643778,1.2769990233694246,-2.6949436078669473,-5.972412228638485,-5.5704357009555245,9.762448387606135
-2.0884152655306836,1.2212946663598694,-2.754667730153332,-5.874787744762424,-5.738203750636848,9.13085710123771
-2.076202318867085,1.1639126288535009,-2.813415607600956,-5.783479173750047,-5.749927077199773,8.326305134678195
-2.06456319257855,1.1064133580815032,-2.871250399338457,-5.7002161224032655,-5.668255688708589,7.422868434300148
-2.053499058997735,1.0497308011944173,-2.9282525605624894,-5.625987438060264,-5.539184398158324,6.472165779680654
-2.0430017509857907,0.994338957212834,-2.984512434943092,-5.561265780263457,-5.394975813135296,5.50769100004322
-2.0330583614136626,0.9403891990814811,-3.0401250927457264,-5.506188870263025,-5.257508880075064,4.549484173094489
-2.0236544694228478,0.8878141102807304,-3.095186981448357,-5.46069402853208,-5.141242287334963,3.608133774302306
-2.0147763283200404,0.8364016874073807,-3.1497939217336777,-5.424612690789057,-5.05554745400528,2.6878456843301457
-2.0064123114459664,0.7858462128673279,-3.204040048641568,-5.397734233945755,-5.0064287775092335,1.788648049318773
-1.9985538493172932,0.7357819250922356,-3.2580173909810255,-5.379847753452568,-4.997741424452937,0.9079086967321095
-1.991196030066371,0.6858045108477062,-3.311815868515551,-5.3707686664852465,-5.03202968599493,0.04134751199986196
-1.984337984957894,0.6354842139877569,-3.3655235551804035,-5.370355191365248,-5.111091239783124,-0.8163042791604462
-1.9779831428180163,0.5843733015899256,-3.419227107094056,-5.378518234156853,-5.23634768381963,-1.6708827113138913
-1.972139409802117,0.5320098247517293,-3.4730122894356246,-5.395227061269992,-5.4090785465835625,-2.528524118294709
-1.9668193115545998,0.4779190392858937,-3.5269645600483246,-5.420512302452939,-5.630557216317408,-3.3954931480122976
-1.9620401211617409,0.42161346712271963,-3.581169683072854,-5.4544672339330615,-5.902112792982547,-4.278062911462481
-1.9578239864905136,0.36259233919289413,-3.6357143554121847,-5.497247863047686,-6.225130796912985,-5.182415018209901
-1.9541980630985847,0.30034103122376427,-3.6906868340426615,-5.549072013229785,-6.600996878361779,-6.11453313667385
-1.951194652786347,0.23433106244014645,-3.7461775541749596,-5.610217344596523,-7.030980190291641,-7.080065910631736
-1.9488513421619456,0.16402126053723004,-3.802279727620925,-5.681018003702841,-7.516046123588222,-8.084134245598666
-1.9472111295565733,0.08886079930134783,-3.8590899076579532,-5.761859346158827,-8.056581059848137,-9.131054574034193
-1.9463225215635598,0.008294988702866463,-3.9167085011195417,-5.853169891899169,-8.652004281698026,-10.223944007029717
-1.946239571676531,-0.0782250541141138,-3.9752402000385336,-5.9554093319694665,-9.30023408790843,-11.364165617080205
-1.9470218222176723,-0.1712273949931981,-4.034794293358228,-6.069050988140269,-9.99696684055886,-12.550563119584107
-1.9487340961676043,-0.2711970633987867,-4.095484803239631,-6.19455661933611,-10.734720255196736,-13.778425315226022
-1.951446066801592,-0.3785442659507541,-4.157430369432992,-6.33234087248837,-11.501588189681035,-15.038114615301854
-1.9552315094610997,-0.4935601478475644,-4.220753778157876,-6.482722018641389,-12.279658116768516,-16.313296018146406
-1.9601671109395753,-0.6163567290152496,-4.28558099834429,-6.645854978822853,-13.043062333973252,-17.57872211025125
-1.9663306782297278,-0.7467873523549822,-4.3520395481325185,-6.821642199925366,-13.755682416711942,-18.79758067175232
-1.9737985517532777,-0.8843441765221016,-4.420255970131772,-7.009618006642889,-14.368621804135879,-19.918515899945653
-1.9826419935184987,-1.0280303945634603,-4.490352150198201,-7.208803165642345,-14.81772702635237,-20.872620254655473
-1.9929222974641332,-1.1762076648269841,-4.562440181854624,-7.4175293681889,-15.021696788449415,-21.570990305782342
-2.004684374112403,-1.3264246327114784,-4.636615475536513,-7.633239271246723,-14.881677340684456,-21.903859273744683
-2.0179486204395176,-1.475241406118323,-4.71294786824898,-7.85227786398417,-14.283663713326616,-21.74282186236197
-2.032701034500701,-1.618078043251589,-4.791470646888822,-8.06970608260779,-13.105376524515853,-20.94810473029051
-2.0488818149332166,-1.7491318084967475,-4.8721677077149,-8.279187129910696,-11.22928372752045,-19.382886626143826
-2.066373133018184,-1.861424645771952,-4.954959579014007,-8.473015996172133,-8.562654777494053,-16.935830267213873
