th1 (rad),w1 (rad/s),th2 (rad),w2 (rad/s),a1 (rad/s^2),a2 (rad/s^2)
0.033496594263355196,1.5616660476896347,0.9452235560941814,-2.6194633109031025,6.654593435664178,-13.947326656789823
0.04911325474025154,1.6282119820462764,0.9190289229851504,-2.7589365774710006,7.06153778077852,-14.371197655573647
0.06539537456071431,1.6988273598540615,0.8914395572104403,-2.902648554026737,7.477466496657383,-14.81428291178076
0.08238364815925493,1.7736020248206354,0.862413071670173,-3.050791383144545,7.892479419282275,-15.265318182810415
0.10011966840746128,1.8525268190134583,0.8319051578387275,-3.203444564972649,8.29161955776871,-15.706297410265883
0.11864493659759587,1.9354430145911454,0.7998707121890011,-3.3605075390753076,8.652925704094791,-16.109800804689918
0.13799936674350732,2.021972271632093,0.766265636798248,-3.5216055471222067,8.945020861540447,-16.43566511326044
0.15821908945982827,2.1114224802474975,0.7310495813270259,-3.685962198254811,9.124397254060716,-16.627205237650656
0.17933331426230326,2.2026664527881046,0.6941899593444778,-3.8522342506313176,9.132901221120317,-16.607665818892407
0.2013599787901843,2.2939954649993077,0.6556676168381647,-4.018310908820242,8.896526201422894,-16.27841545398335
0.22429993344017737,2.3829607270135367,0.6154845077499622,-4.181095063360075,8.32750723744987,-15.521622731108875
0.24812954071031273,2.4662357993880355,0.5736735571163615,-4.336311290671164,7.332636836793505,-14.21144461214691
0.27279189870419307,2.5395621677559705,0.5303104442096498,-4.478425736792633,5.830884549314771,-12.238000335871858
0.2981875203817528,2.5978710132491183,0.48552618684172344,-4.600805740151351,3.7812563377001154,-9.545454087803547
0.324166230514244,2.6356835766261195,0.4395181294402099,-4.696260281029387,1.2158241572754982,-6.177231826673934
0.35052306628050517,2.6478418181988745,0.39255552662991605,-4.7580325992961265,-1.736041925723809,-2.309094853520158
0.37700148446249393,2.6304813989416362,0.3449752006369548,-4.781123547831328,-4.851476947768715,1.7564562242143307
0.4033062984519103,2.581966629463949,0.2971639651586415,-4.763558985589184,-7.8569826666397615,5.649505874627363
0.4291259647465498,2.5033968027975515,0.24952837530274968,-4.707063926842911,-10.498314723484029,9.028872219054353
0.4541599327745253,2.3984136555627114,0.20245773603432057,-4.616775204652367,-12.604358385499452,11.66928321461742
0.4781440693301524,2.2723700717077167,0.15628998398779692,-4.500082372506192,-14.114538204415943,13.49775212287453
0.5008677700472296,2.1312246896635574,0.111289160262735,-4.365104851277446,-15.064402442474515,14.57232110031731
0.5221800169438652,1.9805806652388123,0.06763811174996054,-4.219381640274273,-15.547651247976846,15.028893907988707
0.5419858235962532,1.8251041527590437,0.02544429534721781,-4.069092701194386,-15.677505704041039,15.027875465082088
0.5602368651238436,1.6683290957186334,-0.015246631664726049,-3.9188139465435645,-15.560351718525377,14.71824205346163
0.57692015608103,1.5127255785333795,-0.054434771130161694,-3.771631526008948,-15.283282659196749,14.220965775282078
0.5920474118663638,1.3598927519414121,-0.09215108639025119,-3.6294218682561272,-14.911463988592955,13.625941722095583
0.6056463393857779,1.2107781120554826,-0.12844530507281246,-3.4931624510351713,-14.49055794389687,12.995750902448986
0.6177541205063327,1.065872532616514,-0.1633769295831642,-3.3632049420106815,-14.05087501502903,12.371652531192897
0.6284128458324979,0.9253637824662236,-0.197008979003271,-3.2394884166987525,-13.611500151976411,11.779419883890412
0.6376664836571602,0.7892487809464596,-0.22940386317025852,-3.1216942178598486,-13.18370859955779,11.234113135964291
0.6455589714666248,0.6574116949508817,-0.260620805348857,-3.0093530865002056,-12.773543569260006,10.743645051023202
0.6521330884161336,0.5296762592582817,-0.29071433621385906,-2.9019166359899735,-12.383658188380448,10.311303541297304
0.6574298510087164,0.4058396773744772,-0.31973350257375877,-2.7988036005770005,-12.0145865183482,9.937472972253472
0.6614882477824612,0.2856938121909952,-0.34772153857952875,-2.6994288708544656,-11.665599734832277,9.62077824229157
0.6643451859043711,0.16903781484267244,-0.3747158272880734,-2.60322108843155,-11.335272459436382,9.3588289908789
0.6660355640527978,0.055685090248308616,-0.4007480381723889,-2.509632798522761,-11.021851530851709,9.14869390090352
0.666592414955281,-0.054533425060208474,-0.4258443661576165,-2.418145859513726,-10.723492315562744,8.987196253560553
0.6660470807046789,-0.1617683482158359,-0.45002582475275377,-2.3282738969781205,-10.438407219962432,8.871092989418939
0.6644293972225205,-0.2661524204154602,-0.473308563722535,-2.239562967083931,-10.164956501269184,8.797179068448584
0.6617678730183659,-0.36780198542815207,-0.4957041933933743,-2.151591176399445,-9.901701415545237,8.76234486194345
0.6580898531640844,-0.46681899958360445,-0.5172201051573687,-2.0639677277800104,-9.64743292703404,8.763604820062467
0.6534216631682483,-0.5632933288539449,-0.5378597824351689,-1.9763316795793857,-9.401184645161356,8.798109323864272
0.6477887298797089,-0.6573051753055584,-0.5576230992309628,-1.888350586340743,-9.162235634053966,8.86314742881347
0.6412156781266534,-0.748927531646098,-0.5765066050943702,-1.7997191120526084,-8.9301067511474,8.956145429215471
0.6337264028101924,-0.8382285991575721,-0.5945037962148964,-1.7101576577604536,-8.704552872758406,9.074664339500753
0.6253441168186167,-0.9252741278851562,-0.6116053727925009,-1.619411014365446,-8.485552523850723,9.21639817753894
0.6160913755397651,-1.0101296531236634,-0.6277994829361554,-1.5272470325900567,-8.273295891693651,9.379174134277916
0.6059900790085285,-1.0928626120406,-0.6430719532620559,-1.4334552912472776,-8.068171865271989,9.560955182475023
0.5950614528881225,-1.17354433069332,-0.6574065061745287,-1.3378457394225274,-7.870754534974606,9.759845322596219
0.5833260095811893,-1.252251876043066,-0.670784963568754,-1.2402472861965652,-7.681789463682237,9.974097425089143
0.5708034908207587,-1.3290697706798884,-0.6831874364307196,-1.1405063119456738,-7.50217996907688,10.202123464645705
0.5575127931139597,-1.4040915703706571,-0.6945924995501763,-1.0384850772992167,-7.33297361549902,10.442506826281718
0.5434718774102532,-1.4774213065256474,-0.7049773503231684,-0.9340600090363995,-7.175349085595447,10.694016275589577
0.5286976643449967,-1.549174797381602,-0.7143179504135324,-0.8271198462805037,-7.030603574326481,10.95562111127315
0.5132059163711806,-1.6194808331248667,-0.7225891488763374,-0.7175636351677722,-6.9001408090989935,11.226506943597656
0.497011108039932,-1.6884822412158567,-0.7297647852280151,-0.6052985657317956,-6.785459738162246,11.506091453507432
0.48012628562777343,-1.7563368385974791,-0.7358177708853331,-0.4902376511967213,-6.688143831478994,11.794039366645174
0.46256291724179865,-1.8232182769122691,-0.7407201473973003,-0.37229725753026954,-6.6098507869782415,12.090275701378905
0.44433073447267596,-1.8893167847820516,-0.744443119972603,-0.2513945005164805,-6.552302207333656,12.394996088121978
0.42543756662485543,-1.954839806855388,-0.7469570649777678,-0.1274445396352607,-6.51727247588464,12.708672562944393
0.4058891685563015,-2.0200125316142343,-0.7482315103741204,-0.0003578140058167756,-6.506575568918648,13.032052645900418
0.3856890432401592,-2.085078287303421,-0.7482350885141785,0.1299627124531874,-6.522047828885816,13.366148628811363
0.36483826036712497,-2.150298765592279,-0.7469354613896466,0.26362419874130105,-6.565523693451302,13.71221268203612
0.3433352727112022,-2.215954002526792,-0.7442992194022336,0.40074632556166223,-6.638799890832661,14.071691449675596
0.32117573268593425,-2.2823420014351186,-0.740291756146617,0.5414632400584182,-6.74358147594856,14.446150960120997
0.2983523126715831,-2.3497778161946044,-0.7348771237460329,0.6859247496596281,-6.881400017640011,14.837158544725662
0.27485453450963704,-2.4185918163710043,-0.7280178762494366,0.8342963351068847,-7.053489873574634,15.24610249796525
0.250668616345927,-2.4891267151067504,-0.7196749128983677,0.9867573600865372,-7.260602301395812,15.673921722369757
0.2257773491948595,-2.5617327381207087,-0.7098073392975024,1.1434965773102348,-7.502728525761016,16.120705707810718
0.20016002181365242,-2.636760023378319,-0.6983723735244001,1.304703634388342,-7.7786911308743765,16.585108952164326
0.17379242157986924,-2.7145469346870628,-0.6853253371805167,1.4705547239099852,-8.085547768950931,17.06350263827159
0.14664695223299862,-2.795402412376572,-0.6706197899414168,1.641189750292701,-8.417732405807394,17.5487603893934
0.1186929281092329,-2.8795797364346463,-0.6542078924384898,1.816677354186635,-8.76583943968782,18.02854743416809
0.08989713074488644,-2.9672381308315243,-0.6360411188966234,1.9969628285283159,-9.11494197870446,18.482963275725503
0.06022474943657119,-3.0583875506185687,-0.6160714906113403,2.181792461285571,-9.442343932353216,18.881400229126626
0.029640873930385503,-3.152810989942101,-0.5942535659984846,2.370606463576837,-9.714730883830297,19.17857233593433
-0.0018872359690355056,-3.249958298780404,-0.5705475013627161,2.5623921869361803,-9.884870708342058,19.309930479008298
-0.034386818956839545,-3.3488070058638244,-0.5449235794933543,2.7554914917262634,-9.888422773772485,19.187251684640675
-0.06787488901547778,-3.447691233601549,-0.5173686645760918,2.94736400857267,-9.642166204940787,18.69624408275639
-0.10235180135149327,-3.544112895650957,-0.48789502449036504,3.134326449400234,-9.046101064700581,17.699609963349534
-0.13779293030800285,-3.634573906297963,-0.4565517599963627,3.3113225490337292,-7.993128306260391,16.050758458875197
-0.1741386693709825,-3.7145051893605667,-0.4234385345060254,3.4718301336224813,-6.390315814674474,13.623766987308215
-0.21128372126458816,-3.7784083475073116,-0.3887202331698006,3.6080678034955636,-4.192986073714857,10.361275132234663
-0.24906780473966128,-3.8203382082444604,-0.35263955513484496,3.71168055481791,-1.4448472746321135,6.3307177431728014
-0.2872711868221059,-3.8347866809907813,-0.3155227495866659,3.774987732249638,1.6943999187436367,1.7627487146384941
-0.3256190536320137,-3.817842681803345,-0.27777287226416947,3.792615219396023,4.958670792257187,-2.9628294206461563
-0.3637974804500472,-3.7682559738807733,-0.23984672007020924,3.7629869251895616,8.033975670600942,-7.399878623171626
-0.4014800401888549,-3.687916217174764,-0.20221685081831361,3.6889881389578454,10.645624648881594,-11.1589546904304
-0.43835920236060255,-3.581459970685948,-0.16532696942873515,3.5773985920535414,12.629518848163556,-14.007653303229347
-0.474173802067462,-3.4551647822043123,-0.12955298350819974,3.437322059021248,13.952957728350643,-15.899690690492678
-0.5087254498895052,-3.315635204920806,-0.09517976291798727,3.278325152116321,14.68626689163073,-16.93469339108014
-0.5418818019387133,-3.1687725360044987,-0.06239651139682406,3.1089782182055195,14.953074085747097,-17.28795900916942
-0.5735695272987582,-3.019241795147028,-0.03130672921476887,2.9360986281138253,14.886561492399698,-17.148677552945507
-0.6037619452502285,-2.870376180223031,-0.001945742933630614,2.76461185258437,14.603443482415306,-16.68314332716606
-0.6324657070524589,-2.724341745398878,0.02570037559221309,2.5977804193127096,14.194232548987358,-16.02092660118618
-0.6597091245064477,-2.5823994199090046,0.051678179785340186,2.4375711533008477,13.723481220790525,-15.255118018723763
-0.6855331187055378,-2.4451646077010993,0.07605389131834867,2.2850199731136103,13.234330865362622,-14.448664474608595
-0.7099847647825488,-2.312821299047473,0.09890409104948478,2.1405333283675243,12.753950564132298,-13.641983026974977
-0.7331129777730235,-2.18528179340615,0.12030942433316003,2.0041134980977744,12.298329180330207,-12.859683703024922
-0.754965795707085,-2.062298501602848,0.14035055931413776,1.8755166610675251,11.87597493117973,-12.115767735748749
-0.7755887807231134,-1.9435387522910506,0.159105725924813,1.7543589837100377,11.490570498857586,-11.417363625962555
-0.795024168246024,-1.8286330473024748,0.1766493157619134,1.6401853474504122,11.142794103902716,-10.767293329038036
-0.8133104987190487,-1.7172051062634477,0.19305116923641752,1.532512414160032,10.831530612875474,-10.165781348418294
-0.8304825497816832,-1.608889800134693,0.20837629337801783,1.430854600675849,10.55465841077245,-9.611566562296163
-0.8465714477830302,-1.5033432160269684,0.22268483938477632,1.3347389350528873,10.309550323127361,-9.102610550806103
-0.8616048799432998,-1.4002477127956947,0.2360322287353052,1.2437128295448263,10.093385823444649,-8.636538891974398
-0.8756073570712568,-1.2993138545612481,0.24846935703075346,1.1573474406250823,9.903340633285872,-8.21090837947308
-0.8886004956168693,-1.2002804482283895,0.2600428314370043,1.0752383568303516,9.736697722095064,-7.8233621834925176
-0.9006033000991531,-1.1029134710074389,0.2707952150053078,0.9970047349954264,9.590908595995534,-7.471713791304796
-0.9116324348092275,-1.0070043850474835,0.28076526235526206,0.9222875970823785,9.46362365130629,-7.153986372306118
-0.9217024786597023,-0.9123681485344206,0.28998813832608583,0.8507477333593173,9.352703696102923,-6.868424833126925
-0.9308261601450466,-0.8188411115733913,0.298495615659679,0.782063485028048,9.256220380405004,-6.6134916822309116
-0.9390145712607805,-0.7262789077693413,0.30631625050995953,0.7159285682057389,9.17245044086483,-6.387853818222548
-0.9462773603384739,-0.634554403360693,0.3134755361920169,0.6520500300235135,9.09986683326005,-6.190364756659064
-0.9526229043720807,-0.5435557350280925,0.31999603649225206,0.5901463824569229,9.037128647288073,-6.020045129261112
-0.9580584617223616,-0.4531844485552118,0.3258975003168213,0.5299459311643118,8.983070944449429,-5.876063207030543
-0.9625903062079137,-0.3633537391107175,0.3311969596284644,0.4711852990940063,8.936695181858934,-5.7577165058204205
-0.9662238435990209,-0.27398678729212816,0.3359088126194045,0.4136081340358021,8.897160585390033,-5.664415093086518
-0.9689637114719422,-0.18501518143822782,0.3400448939597625,0.35696398310493693,8.863776651398544,-5.595666939149562
-0.9708138632863245,-0.09637741492424237,0.34361453379081186,0.3010073137134413,8.835996846296188,-5.551065487526567
-0.9717776374355669,-0.008017446461280484,0.3466246069279463,0.24549665883817562,8.81341351076889,-5.5302795190716125
-0.9718578119001797,0.0801166886464084,0.349079573516328,0.1901938636474595,8.79575394314574,-5.533045329175101
-0.9710566450137157,0.16807422807786582,0.3509815121528026,0.13486341035570848,8.782877623087181,-5.559161209928123
-0.9693759027329371,0.25590300430873764,0.35233014625635967,0.07927179825642724,8.774774535063266,-5.608484219221571
-0.9668168726898497,0.3436507496593703,0.3531228642389239,0.023186956064211534,8.771564556215855,-5.680929218918095
-0.963380365193256,0.43136639522152886,0.35335473379956606,-0.03362233612496942,8.773497881840603,-5.776470169305558
-0.9590667012410407,0.5191013740399348,0.35301851043831634,-0.091387037818025,8.780956471411924,-5.895143672957979
-0.9538756875006413,0.6069109387540541,0.3521046400601361,-0.1503384745476048,8.794456506618944,-6.037054764256583
-0.9478065781131008,0.6948555038202435,0.35060125531466,-0.21070902219017063,8.814651857907426,-6.202384937296836
-0.9408580230748983,0.7830020223993178,0.3484941650927583,-0.27273287156313897,8.842338554471194,-6.391402389970757
-0.9330280028509051,0.8714254079440298,0.3457668363771269,-0.33664689546284654,8.878460240162024,-6.604474429199508
-0.9243137487714649,0.96021001034565,0.34240036742249846,-0.4026916397548416,8.924114567961302,-6.842081922318351
-0.9147116486680084,1.049451156025263,0.33837345102495003,-0.4711124589780251,8.980560428831062,-7.104835578811158
-0.9042171371077558,1.1392567603135737,0.3336623264351698,-0.5421608147661368,9.049225812400753,-7.39349368456015
-0.89282456950462,1.2297490184375812,0.32824071828750845,-0.6160957516117382,9.13171593515001,-7.708980656929377
-0.8805270793202442,1.3210661777890813,0.32207976077139105,-0.693185558181032,9.22982101353789,-8.052405397337028
-0.8673164175423534,1.4133643879244602,0.31514790518958075,-0.7737096121544023,9.345522655262469,-8.425077819238753
-0.8531827736631088,1.506819614477085,0.30741080906803675,-0.8579603903467898,9.480997216816025,-8.828521019359474
-0.838114577518338,1.6016295866452452,0.29883120516456885,-0.9462456005403845,9.638613517422819,-9.264475181650075
-0.8220982816518855,1.6980157218194734,0.289368749159165,-1.0388903523568853,9.820920839739482,-9.734887221104607
-0.8051181244336908,1.7962249302168682,0.27897984563559614,-1.1362392245679314,10.030620934195573,-10.241877035502776
-0.7871558751315221,1.896531139558824,0.2676174533899168,-1.238657994922959,10.270514401641947,-10.787666512789754
-0.7681905637359339,1.9992362835752435,0.25523087344068723,-1.3465346600508565,10.543406806464047,-11.374450368471319
-0.7481982009001814,2.104670351639884,0.24176552684017866,-1.4602791637355697,10.851952372063527,-12.00417734577549
-0.7271514973837826,2.213189875360519,0.22716273520282296,-1.5803209371933247,11.198402013101708,-12.67819473656785
-0.7050195986301774,2.325173895491536,0.2113595258308897,-1.7071028845590033,11.584206270947439,-13.39668648809216
-0.681767859675262,2.4410159582010102,0.19428849698529968,-1.8410697494399249,12.009400635047902,-14.157802833764178
-0.6573577000932519,2.5611099645514894,0.17587779949090043,-1.9826477777775666,12.471669027257024,-14.956335033430646
-0.631746600447737,2.6858266548240595,0.15605132171312477,-2.132211128111873,12.96494045944789,-15.781731866263259
-0.6048883338994964,2.8154760594185384,0.13472921043200603,-2.290028446774506,13.477327933807056,-16.615190535002082
-0.5767335733053109,2.950249338756609,0.11182892596426097,-2.4561803521245267,13.988182545997093,-17.425504837202464
-0.5472310799177449,3.09013116421658,0.08726712244301571,-2.6304354004965513,14.464049279899019,-18.163373994298357
-0.5163297682755791,3.2347716570155702,0.060962768438050194,-2.812069140439535,14.853462867381023,-18.754091423499588
-0.48398205170542336,3.3833062856893803,0.03284207703365484,-2.999610054674531,15.080983284950033,-19.08918475548234
-0.45014898884852955,3.5341161185388805,0.00284597648690953,-3.190501902229354,15.041913332396692,-19.019049943745365
-0.4148078276631407,3.6845352518628474,-0.02905904253538401,-3.3806924016668076,14.601057533224228,-18.351324439844078
-0.37796247514451226,3.8305458271950896,-0.0628659665520521,-3.5642056460652483,13.601598061767458,-16.863571355856145
-0.33965701687256133,3.9665618078127642,-0.09850802301270459,-3.7328413596238095,11.892286655416239,-14.341834170000807
-0.2999913987944337,4.085484674366927,-0.13583643660894268,-3.8762597013238174,9.378716855048342,-10.653181783225302
-0.2591365520507644,4.1792718429174105,-0.17459903362218085,-3.9827915191560703,6.091605379103541,-5.842261742580293
-0.21734383362159032,4.240187896708446,-0.21442694881374155,-4.041214136581873,2.2412311910551703,-0.20834696730840305
-0.17494195465450585,4.262600208618998,-0.2548390901795603,-4.043297606254957,-1.7901269789310055,5.705063181897091
-0.13231595256831588,4.244698938829687,-0.2952720662421099,-3.9862469744359865,-5.544562657582005,11.245989466951498
-0.089868963180019,4.189253312253867,-0.33513453598646975,-3.8737870797664717,-8.636030613746627,15.862108959854863
-0.047976430057480327,4.102893006116401,-0.37387240678413447,-3.715165990167923,-10.862167944563023,19.25906475059318
-0.006947499996316317,3.9942713266707703,-0.4110240666858137,-3.522575342661991,-12.221104144554952,21.425173402306946
0.032995213270391385,3.8720602852252206,-0.44624982011243364,-3.3083236086389216,-12.849015012213005,22.544371021135124
0.07171581612264359,3.7435701351030906,-0.4793330561988228,-3.0828798984275703,-12.936381738914493,22.878754051613107
0.10915151747367449,3.6142063177139456,-0.5101618551830985,-2.8540923579114392,-12.66653721256348,22.682056883701335
0.14529358065081394,3.487540945588311,-0.538702778762213,-2.6272717890744257,-12.186845740910224,22.15879136778672
