th1 (rad),w1 (rad/s),th2 (rad),w2 (rad/s),a1 (rad/s^2),a2 (rad/s^2)
2.8773194225469876,-1.9195839891012634,4.578357282169211,-2.94896638569873,2.1632020481458407,6.339454125471275
2.858123582655975,-1.897951968619805,4.548867618312224,-2.885571844444017,1.76961716458864,6.304683011834269
2.839144062969777,-1.8802557969739186,4.520011899867784,-2.822525014325674,1.383882302311683,6.25726666960244
2.8203415050000378,-1.8664169739508019,4.491786649724527,-2.7599523476296497,1.006376171022602,6.197741837937838
2.8016773352605298,-1.856353212240576,4.46418712624823,-2.6979749292502713,0.6373947188265983,6.126497417383029
2.783113803138124,-1.84997926505231,4.437207376955728,-2.636709955076441,0.27715982326721533,6.043786447359129
2.764614010487601,-1.8472076668196378,4.410840277404963,-2.5762720906028496,-0.07417291264862597,5.949737939746285
2.7461419338194046,-1.847949395946124,4.385077556498935,-2.516774711205387,-0.416507258222356,5.844368424739845
2.7276624398599436,-1.8521144685283475,4.359909809386881,-2.4583310269579886,-0.7498003153921432,5.727593095677955
2.70914129517466,-1.8596124716822688,4.3353264991173015,-2.401055096001209,-1.0740572861336368,5.599236464969375
2.6905451704578374,-1.8703530445436052,4.311315948157289,-2.3450627313515153,-1.3893269722553216,5.459042464360286
2.6718416400124014,-1.8842463142661583,4.287865320843774,-2.2904723067079127,-1.6956979180547074,5.306683940361875
2.6529991768697396,-1.9012032934467054,4.264960597776695,-2.237405467304294,-1.9932950951074413,5.141771510518093
2.6339871439352724,-1.9211362443977797,4.242586543103652,-2.1859877521991127,-2.2822770203063514,4.963861759100619
2.6147757814912946,-1.9439590146008432,4.220726665581661,-2.1363491346081065,-2.5628331925884056,4.772464762503787
2.5953361913452864,-1.9695873465267273,4.19936317423558,-2.088624486983069,-2.835181730083519,4.56705094574357
2.575640317880019,-1.9979391638275625,4.178476929365749,-2.042953977525633,-3.0995670872486714,4.3470572826413365
2.5556609262417433,-2.028934834700049,4.158047389590492,-1.9994834046992198,-3.356257730528806,4.111892864023536
2.5353715778947428,-2.062497412005337,4.1380525555435,-1.9583644760589844,-3.6055436508772027,3.860943871048608
2.5147466037746895,-2.098552848514109,4.11846891078291,-1.9197550373484984,-3.8477335917825988,3.593578004964519
2.4937610752895485,-2.137030184431935,4.099271360409426,-1.8838192572988532,-4.083151872037979,3.3091484405115565
2.472390773445229,-2.1778617031523146,4.080433167836437,-1.8507277728937377,-4.312134683133075,3.006997388044458
2.450612156413706,-2.2209830499836456,4.0619258901075,-1.820657799013293,-4.53502574168096,2.686459369401152
2.4284023259138694,-2.2663333074004552,4.043719312117367,-1.7937932053192815,-4.752171177558182,2.346864334647206
2.405738992839865,-2.313855019176037,4.025781380064174,-1.7703245619728094,-4.963913538351716,1.9875407710288187
2.3826004426481044,-2.3634941545595543,4.008078134444446,-1.7504491542625211,-5.1705847902251225,1.6078189816116768
2.358965501102509,-2.4152000024618054,3.990573642901821,-1.7343709644464043,-5.372498194475244,1.207034738875311
2.3348135010778908,-2.468924984406558,3.973229933257357,-1.7223006170576511,-5.569938937983794,0.7845335475269825
2.3101242512338254,-2.524624373786396,3.9560069270867806,-1.7144552815823813,-5.76315339473917,0.33967578037149787
2.2848780074959616,-2.5822559077337877,3.9388623742709568,-1.7110585237786662,-5.952336895045318,-0.12815701961163653
2.2590554484186236,-2.641779276684241,3.92175178903317,-1.7123400939747826,-6.137619879590001,-0.619554349859543
2.2326376556517813,-2.703155475480141,3.904628388093422,-1.718535637473378,-6.319052318116148,-1.1350671251117994
2.20560610089698,-2.7663459986613024,3.8874430317186883,-1.729886308724496,-6.496586278234947,-1.6751958534203069
2.177942640910367,-2.831311861443652,3.8701441686314433,-1.746638267258699,-6.670056540497339,-2.2403762299077132
2.1496295222959305,-2.8980124268486254,3.852677785958856,-1.7690420295577762,-6.83915917315031,-2.8309617618919143
2.120649398027444,-2.9664040185801284,3.8349873656632782,-1.7973516471766953,-7.003428006408928,-3.447203046315099
2.090985357841643,-3.0364382986442178,3.817013849191511,-1.8318236776398462,-7.16220898435325,-4.0892233437589685
2.0606209748552007,-3.1080603884877505,3.7986956124151128,-1.8727159110774358,-7.314632425880168,-4.756990136965216
2.0295403709703232,-3.181206712746552,3.7799684533043383,-1.920285812447088,-7.459583297991013,-5.450282430528735
1.9977283038428577,-3.2558025457264623,3.7607655951798673,-1.9747886367523755,-7.5956696987607595,-6.168653647557534
1.965170278385593,-3.33175924271407,3.7410177088123437,-2.036475173227951,-7.721189867305463,-6.911390114130876
1.9318526859584524,-3.408971141387125,3.7206529570800644,-2.10558907436926,-7.834098187375296,-7.677465298847952
1.8977629745445812,-3.4873121232608777,3.6995970663363718,-2.1823637273577394,-7.93197083267947,-8.465490197721367
1.8628898533119724,-3.5666318315876726,3.6777734290627944,-2.2670186293349532,-8.01197191748378,-9.27366052824026
1.8272235349960957,-3.6467515507625103,3.655103242769445,-2.359755234617356,-8.070821265647558,-10.099701723084078
1.7907560194884706,-3.727459763418986,3.631505690423271,-2.460752251848197,-8.104765193197405,-10.940813093816123
1.7534814218542807,-3.80850741535096,3.6068981679047893,-2.570160382786358,-8.109552009162053,-11.793612964888462
1.715396347700771,-3.8896029354425803,3.581196564076926,-2.688096512435243,-8.080414268800238,-12.654087051554855
1.6765003183463452,-3.9704070781305827,3.5543155989525737,-2.8146373829507914,-8.012060150788258,-13.517542860513169
1.6367962475650393,-4.050527679638465,3.526169225123066,-2.949812811555923,-7.8986766593651945,-14.378573413286475
1.5962909707686546,-4.129514446232117,3.4966710970075066,-3.0935985456887876,-7.733947653206369,-15.231034108858454
1.5549958263063335,-4.206853922764181,3.4657351115506185,-3.245908886777372,-7.511089949333962,-16.068037029001566
1.5129272870786916,-4.281964822257521,3.4332760226828447,-3.4065892570673877,-7.2229109118139325,-16.88196741850774
1.4701076388561165,-4.354193931375661,3.399210130112171,-3.5754089312524653,-6.8618909745608825,-17.66452741142305
1.42656569954236,-4.422812841121269,3.363456040799646,-3.752054205366696,-6.420294421503144,-18.406812288454837
1.3823375711311472,-4.4870157853363,3.325935498745979,-3.936122328251244,-5.890311403124696,-19.09942460060492
1.3374674132777842,-4.545918899367547,3.2865742754634666,-4.127116574257293,-5.264233542375727,-19.732631333157222
1.2920082242841087,-4.598561234791304,3.2453031097208935,-4.324442887588866,-4.5346644979617,-20.296568853843198
1.2460226119361957,-4.643907879770921,3.202058680845005,-4.527408576127298,-3.694765417079562,-20.781499612994335
1.1995835331384865,-4.680855533941716,3.156784595083732,-4.735223572257242,-2.738533218043555,-21.178123342663795
1.1527749777990695,-4.708240866122152,3.1094323593611595,-4.94700480568388,-1.6611069872921236,-21.47794371363191
1.1056925691378479,-4.724851935995073,3.0599623113043206,-5.161784242820199,-0.4590943619362292,-21.673688917426894
1.058444049777897,-4.729442879614435,3.0083444688761185,-5.378521131994469,0.8690944453110507,-21.759781319920616
1.0111496209817528,-4.720751935161324,2.954559257556174,-5.596118945193675,2.322922281711675,-21.732847117240123
0.9639421016301395,-4.697522712344208,2.898598068104237,-5.813447416366076,3.899433141454349,-21.592251876612988
0.9169668745066974,-4.658528380929664,2.8404635939405765,-6.029369935132205,5.59302106820104,-21.340642245237227
0.8703815906974008,-4.602598170247654,2.7801698945892546,-6.242776357584578,7.395293182141099,-20.984468547362958
0.8243556089949243,-4.528645238426242,2.717742131013409,-6.452621043058207,9.295063473984618,-20.534458418274053
0.7790691566106619,-4.435694603686396,2.6532159205828267,-6.657965627240948,11.278514563337032,-20.00600935518127
0.734712210573798,-4.322909458053026,2.586636264310417,-6.858025720792761,13.329561232722051,-19.41946964688159
0.6914831159932677,-4.189613845725805,2.5180560071024893,-7.052220417261577,15.430441358510777,-18.800284105717626
0.6495869775360097,-4.035309432140697,2.4475338029298737,-7.2402232583187525,17.562546662532924,-18.178994501128276
0.6092338832146027,-3.859683965515368,2.375131570346686,-7.422013203330035,19.7074882863787,-17.591104886870962
0.570637043559449,-3.662609082651581,2.3009114383133857,-7.5979242521987445,21.848372470191425,-17.076848207441316
0.5340109527329332,-3.444125357949667,2.224932195791398,-7.7686927342731575,23.971242491899066,-16.680920303499178
0.4995696991534365,-3.2044129330306763,2.1472452684486667,-7.93550193730815,26.066627704426736,-16.45227689603186
0.46752556982312976,-2.943746655986409,2.0678902490755853,-8.100024706268469,28.131131314211103,-16.444113112031793
0.4380881032632657,-2.662435342844298,1.9868900020129006,-8.264465837388787,30.16898499805286,-16.714156714204577
0.4114637498348227,-2.3607454928637694,1.9042453436390128,-8.431607404530833,32.1934943885037,-17.32539507306294
0.387856294906185,-2.0388105489787325,1.8199292695937044,-8.604861355261463,34.22827810172205,-18.34730309768296
0.3674681894163977,-1.696527767961512,1.7338806560410898,-8.788334386238292,36.308127390806455,-19.857504383858064
0.35050291173678255,-1.3334464940534474,1.6459973121787068,-8.986909430076873,38.479106037009515,-21.94348956354887
0.3371684467962481,-0.9486554336833523,1.556128217877938,-9.206344325712362,40.79700701652044,-24.703327420316015
0.32768189245941454,-0.5406853635181479,1.4640647746208144,-9.453377599915521,43.32213457460645,-28.242771873309266
0.3222750388242331,-0.10746401777208336,1.3695309986216593,-9.735805318648614,46.105844126924296,-32.66277271370809
0.32120039864651223,0.3535944234971596,1.2721729454351731,-10.062433045785696,49.15881705230864,-38.02399704192455
0.32473634288148384,0.845182594020246,1.1715486149773162,-10.44267301620494,52.379835360821865,-44.25950137815915
0.3331881688216863,1.3689809476284647,1.0671218848152668,-10.885268029986532,55.40317218481453,-50.977626245629516
0.34687797829797096,1.92301266947661,0.9582692045154015,-11.395044292442828,57.295762232482424,-57.05765180297413
0.36610810499273705,2.4959702918014344,0.8443187615909733,-11.965620810472569,56.050871027170174,-59.95568714645978
0.3910678079107514,3.0564790020731363,0.7246625534862476,-12.565177681937167,48.09813600414598,-55.001785269317494
0.4216325979314828,3.537460362114596,0.599010776666876,-13.115195534630342,29.037581521423824,-36.31548840323679
0.45700720155262875,3.8278361773288343,0.46785882132057255,-13.478350418662709,-2.0989085567016303,-2.4797805828090835
0.4952855633259171,3.806847091761818,0.33307531713394545,-13.503148224490799,-36.94665695378421,35.59799927527738
0.5333540342435353,3.4373805222239757,0.19804383488903746,-13.147168231738025,-61.98206584999897,60.49007184167372
0.5677278394657751,2.817559863723986,0.06657215257165722,-12.542267513321288,-72.21979967668206,66.50089206531958
0.5959034381030149,2.095361866957165,-0.05885052256155568,-11.877258592668092,-72.57222664028521,60.814213500682314
0.6168570567725866,1.3696396005543132,-0.1776231084882366,-11.26911645766127,-68.9814034509491,51.40224820216586
0.6305534527781298,0.6798255660448221,-0.2903142730648493,-10.75509397563961,-64.61297301689606,42.272443453666
0.637351708438578,0.033695835875861446,-0.39786521282124543,-10.33236954110295,-60.59629534176568,34.72267495601781
0.6376886667973366,-0.5722671175417954,-0.5011889082322749,-9.985142791542772,-57.16416725620371,28.93573352154894
0.6319659956219187,-1.1439087901038325,-0.6010403361477026,-9.695785456327283,-54.23838572086735,24.751241587694853
0.6205269077208804,-1.6862926473125062,-0.6979981907109754,-9.448273040450333,-51.65943435378667,21.94629245364663
0.6036639812477553,-2.2028869908503728,-0.7924809211154786,-9.228810115913866,-49.266006653427574,20.318142366864425
0.5816351113392516,-2.6955470573846485,-0.8847690222746173,-9.025628692245222,-46.919599783972565,19.698500256146957
0.5546796407654051,-3.164743055224374,-0.9750253091970695,-8.828643689683753,-44.51066728585497,19.947251741152492
0.5230322102131614,-3.609849728082924,-1.063311746093907,-8.629171172272228,-41.95919576076693,20.94200357165446
0.4869337129323321,-4.0294416856905935,-1.1496034578166292,-8.419751136555684,-39.21382444792099,22.56873231019009
0.4466392960754262,-4.421579930169804,-1.233800969182186,-8.194063813453782,-36.25051636725842,24.71505477292402
0.40242349677372813,-4.784085093842388,-1.3157416073167238,-7.946913265724542,-33.070772710618535,27.266376662105685
0.35458264583530424,-5.114792820948574,-1.3952107399739693,-7.674249499103485,-29.699156337005526,30.104723086232614
0.30343471762581853,-5.411784384318629,-1.4719532349650042,-7.373202268241159,-26.17996625820505,33.10984560481271
0.24931687378263223,-5.67358404690068,-1.5456852576474158,-7.042103812193032,-22.57308003238055,36.162072975806346
0.19258103331362542,-5.899314847224486,-1.6161062957693462,-6.680483082434969,-18.949156421936383,39.14629986902541
0.13358788484138057,-6.08880641144385,-1.6829111265936958,-6.289020083744715,-15.384515302022253,41.956494635695115
0.07269982072694206,-6.242651564464072,-1.745801327431143,-5.869455137387764,-11.956066194433824,44.500152842171346
0.010273305082301336,-6.362212226408411,-1.8044958788050207,-5.424453608966051,-8.736646038594989,46.7022126878077
-0.05334881718178277,-6.449578686794361,-1.8587404148946813,-4.957431482087974,-5.791070723634242,48.508060009092524
-0.11784460404972638,-6.507489394030703,-1.9083147297155612,-4.472350881997048,-3.1731260543224216,49.88536741510341
-0.18291949799003343,-6.539220654573927,-1.9530382385355316,-3.9734972078460142,-0.9236381175913957,50.824628340936336
-0.2483117045357727,-6.54845703574984,-1.9927732106139917,-3.465250924436651,0.9303231048470207,51.338365159975055
-0.3137962748932711,-6.53915380470137,-2.0274257198583583,-2.9518672728369006,2.3751388814356993,51.4591135082903
-0.3791878129402848,-6.515402415887014,-2.0569443925867272,-2.4372761377539978,3.409351863871306,51.23640652392805
-0.444341837099155,-6.481308897248301,-2.0813171539642674,-1.9249120725147173,4.041583802658798,50.73308567578267
-0.509154926071638,-6.440893059221713,-2.1005662746894145,-1.4175812157568906,4.2879115758349915,50.02132648843649
-0.5735638566638551,-6.398013943463363,-2.1147420868469835,-0.9173679508725257,4.168982775101718,49.178768750159996
-0.6375439960984888,-6.356324115712346,-2.123915766355709,-0.4255802633709257,3.70715284771691,48.285073769338354
-0.7011072372556122,-6.3192525872351775,-2.1281715689894183,0.057270474322457854,2.923906306649876,47.419099331124
-0.764299763127964,-6.290013524168678,-2.1275988642461936,0.531461467633698,1.8378075866352794,46.65669287176448
-0.8271998983696508,-6.271635448302326,-2.122284249569857,0.9980283963513428,0.46324962374339973,46.06884995132671
-0.8899162528526741,-6.2670029520648916,-2.1123039656063436,1.45871689586461,-1.189614744238725,45.719631326614895
-0.952586282373323,-6.278899099507279,-2.0977167966476973,1.915913209130759,-3.113076523551067,45.66268278943102
-1.0153752733683958,-6.3100298647427895,-2.07855766455639,2.372540037025069,-5.296911736472281,45.93427050075754
-1.0784755720158237,-6.362998982107512,-2.0548322641861394,2.8318827420326445,-7.717807809993268,46.539117628334076
-1.1421055618368987,-6.440177060207445,-2.026513436765813,3.297273918315985,-10.318741413602618,47.422592532563286
-1.2065073324389732,-6.543364474343471,-1.993540697582653,3.771499843641618,-12.970947833828431,48.41878624986257
-1.271940977182408,-6.673073952681755,-1.9558256991462368,4.255687706140243,-15.408376942872572,49.16032032007574
-1.3386717167092255,-6.827157722110481,-1.9132688220848344,4.747290909341,-17.127809546263784,48.94058783623324
-1.4069432939303304,-6.998435817573119,-1.8657959129914243,5.236696787703333,-17.27576686643612,46.55881306998662
-1.4769276521060615,-7.17119348623748,-1.813428945114391,5.702284918403199,-14.634440347435373,40.30680724612215
-1.5486395869684362,-7.317537889711834,-1.756406095930359,6.105352990864421,-7.98624020598411,28.491436259463796
-1.6218149658655545,-7.397400291771675,-1.6953525660217146,6.390267353459059,2.851469110846269,10.90078000071341
-1.6957889687832712,-7.368885600663212,-1.631449892487124,6.4992751534661934,15.819810586714404,-9.496332129457034
-1.7694778247899035,-7.210687494796068,-1.566457140952462,6.404311832171623,27.053964300036213,-27.181917396418722
-1.8415846997378642,-6.940147851795706,-1.5024140226307456,6.132492658207436,33.573559582967576,-37.908768149501924
-1.9109861782558213,-6.60441225596603,-1.4410890960486713,5.753404976712417,35.194410687150224,-41.412292528631866
-1.9770303008154815,-6.252468149094527,-1.3835550462815471,5.339282051426099,33.585741440644924,-40.07672186926365
-2.0395549823064267,-5.916610734688078,-1.330162225767286,4.938514832733462,30.507732805281677,-36.432491958969784
-2.0987210896533077,-5.611533406635261,-1.2807770774399514,4.574189913143765,27.073484016780295,-32.0990863174547
-2.15483642371966,-5.340798566467458,-1.2350351783085138,4.253199049969218,23.814494144922463,-27.868708558913365
-2.208244409384335,-5.102653625018234,-1.1925031878088217,3.974511964380084,20.924610897591833,-24.048123433590824
-2.2592709456345172,-4.893407516042315,-1.152758068165021,3.7340307300441755,18.43819977538237,-20.71084106767689
-2.3082050207949405,-4.709025518288492,-1.1154177608645792,3.5269223193674066,16.325466580530378,-17.833326478439627
-2.3552952759778254,-4.545770852483188,-1.0801485376709052,3.3485890545830106,14.536663393961398,-15.359032767883741
-2.4007529845026574,-4.400404218543574,-1.046662647125075,3.1949987269041733,13.02059643466826,-13.225844701781943
-2.444757026688093,-4.270198254196892,-1.0147126598560334,3.062740279886354,11.731389417443648,-11.376613385008142
-2.487459009230062,-4.152884360022456,-0.9840852570571699,2.9489741460362726,10.630221517838594,-9.762330949641733
-2.5289878528302863,-4.04658214484407,-0.9545955155968071,2.851350836539855,9.685080263234727,-8.342309215173808
-2.569453674278727,-3.949731342211723,-0.9260820072314085,2.767927744388117,8.869847543105546,-7.083282911261001
-2.608950987700844,-3.8610328667806675,-0.8984027297875273,2.6970949152755073,8.163261839847813,-5.958249200483619
-2.6475613163686504,-3.7794002483821894,-0.8714317806347722,2.637512423270671,7.547960030472035,-4.945363644592935
-2.6853553188524724,-3.703920648077469,-0.8450566564020655,2.5880587868247416,7.009657756339594,-4.027000345327507
-2.722394525333247,-3.633824070514073,-0.8191760685338181,2.5477887833714665,6.536469346594942,-3.188996192526788
-2.758732766038388,-3.5684593770481237,-0.7936981807001035,2.5158988214461986,6.118347716293475,-2.420066111020074
-2.794417359808869,-3.507275899885189,-0.7685391924856415,2.491698160335998,5.746619834094757,-1.7113664827723523
-2.829490118807721,-3.4498097015442415,-0.7436222108822815,2.474584495508274,5.413594791125603,-1.0561834235065821
-2.8639882158231633,-3.3956737536329853,-0.7188763659271988,2.464022661273208,5.112225241344054,-0.4497249707216282
-2.897944953359493,-3.3445515012195446,-0.6942361393144667,2.4595254115659917,4.83580756850109,0.1110014217148348
-2.9313904683716885,-3.2961934255345335,-0.6696408851988068,2.46063542578314,4.577711266762858,0.6272438507017639
-2.964352402627034,-3.250416312866905,-0.6450345309409754,2.4669078642901576,4.331133947610316,1.0985127248369273
-2.996856565755703,-3.2071049733908015,-0.6203654522980738,2.477892991538527,4.088885587688293,1.5225633017668587
-3.0289276154896108,-3.1662161175139185,-0.5955865223826886,2.4931186245561956,3.8432146025096108,1.8953862250056122
-3.06058977666475,-3.1277839714888223,-0.5706553361371266,2.5120724868062516,3.5856992861395103,2.2112501871561605
-3.091867616379638,-3.091926978627427,-0.5455346112690641,2.534184988677813,3.307240602889976,2.462855512322441
