th1 (rad),w1 (rad/s),th2 (rad),w2 (rad/s)
5.5052377729144215,-2.847214366978399,3.8816971609603437,-1.5067784683606602
5.476765629244637,-2.785810914208672,3.866629376276737,-1.3564999493345076
5.4489075201025505,-2.721413705944356,3.853064376783392,-1.2114298758059696
5.421693383043107,-2.654400280798514,3.8409500780253323,-1.071724864312801
5.395149380235122,-2.5851115103309343,3.8302328293822043,-0.937495582546212
5.369298265131812,-2.513852507763083,3.8208578735567422,-0.808809899237805
5.344159740054181,-2.440894026607953,3.812769774564364,-0.6856963574998379
5.3197507997881015,-2.366474244815127,3.8059128109893656,-0.568147823823905
5.29608605733995,-2.2908008379302864,3.800231332751127,-0.45612518631108506
5.273178048960648,-2.214053254563103,3.7956700808880157,-0.3495609975261645
5.251037516415017,-2.1363851182846245,3.7921744709127543,-0.24836297865849027
5.229673665232171,-2.0579266912187455,3.7896908411261694,-0.15241732168395755
5.2090943983199836,-1.978787345489394,3.78816666790933,-0.06159174443303478
5.189306524865089,-1.899057998921132,3.7875507504649994,0.0242617304419583
5.170315944875878,-1.8188134806866318,3.787793367769419,0.10530428778894325
5.152127810069012,-1.7381148007879452,3.7888464106473085,0.1817081272184834
5.134746662061133,-1.6570113042842152,3.7906634919194935,0.253654559607871
5.1181765490182904,-1.5755426970469815,3.793200037515572,0.3213323798243915
5.10242112204782,-1.4937409346019734,3.796413361313816,0.3849364971426743
5.0874837127018,-1.4116319694080732,3.8002627262852426,0.444666800926415
5.07336739300772,-1.329237354857942,3.8047093942945067,0.500727236613064
5.06007501945914,-1.2465757064992853,3.8097166666606372,0.5533250656666779
5.047609262394148,-1.1636640226104233,3.815249917317304,0.6026702827521222
5.035972622168043,-1.080518867451505,3.8212766201448254,0.6489751637575664
5.025167433493529,-0.9971574213740232,3.827766371782401,0.6924539192979182
5.015195859279789,-0.913598402610865,3.83469091097538,0.7333224298359959
5.006059875253681,-0.8298628660733154,3.84202413527374,0.7717980404448906
4.9977612465929475,-0.7459748849171527,3.849742115678189,0.8080993954024476
4.990301497743776,-0.6619621210546678,3.8578231096322133,0.8424462951664513
4.983681876533229,-0.5778562912119739,3.8662475725838776,0.87505956074468
4.977903313621109,-0.49369353557330986,3.8749981681913246,0.9061608929717435
4.972966378265376,-0.4095146965135947,3.884059777121042,0.9359727166644234
4.96887123130024,-0.32536551538311226,3.893419504287686,0.964718001984767
4.96561757614641,-0.24129675575143478,3.9030666843075337,0.9926200575378465
4.963204608588895,-0.15736426191429548,3.9129928848829123,1.0199022917196698
4.961630965969752,-0.07362896178846942,3.923191907800109,1.0467879405712324
4.960894676351867,0.009843176461065625,3.9336597872058214,1.0734997618602777
4.960993108116477,0.09298122462288878,3.944394784824424,1.1002596962896583
4.9619229203627055,0.17570940207753083,3.9553973817873205,1.127288497621254
4.963680014383481,0.25794720167688556,3.966670266763533,1.1548053341223752
4.96625948640025,0.3396095250175389,3.978218320104757,1.1830273641156395
4.969655581650425,0.4206068187562247,3.990048593745913,1.2121692885827626
4.973861649837987,0.5008452042472046,4.002170286631741,1.2424428837849855
4.978870101880459,0.5802265935351025,4.014594715469591,1.2740565167704327
4.9846723678158105,0.6586487855968761,4.0273352806372955,1.3072146464954446
4.991258855671779,0.7360055376778787,4.04040742710225,1.342117313144782
4.998618911048558,0.8121866075962746,4.053828600233698,1.3789596181417163
5.006740777124521,0.8870777639878541,4.067618196415115,1.4179311973332691
5.0156115547644,0.9605607626242778,4.081797508388448,1.4592156899495152
5.025217162390643,1.0325132881611316,4.096389665287943,1.502990206190589
5.035542295272254,1.1028088619610383,4.1114195673498495,1.549424796703051
5.046570383891865,1.1713167179976796,4.12691381531688,1.598681927771553
5.058283551071842,1.2379016502869873,4.142900634594596,1.6509159667668454
5.070662567574711,1.3024238368204928,4.159409794262264,1.7062726832437114
5.083686805942916,1.3647386466006046,4.176472521094701,1.7648887720513287
5.097334192408922,1.424696438104471,4.194121408815215,1.8268914058746046
5.111581156789966,1.4821423593360679,4.2123903228739605,1.892397825729277
5.126402580383327,1.5369161615677527,4.2313143011312535,1.9615149790347701
5.141771741999005,1.5888520409253262,4.250929450921602,2.034339215919142
5.157660262408258,1.6377785241402945,4.271272843080793,2.1109560552798796
5.174038047649661,1.683518417092984,4.292382403633592,2.19144003271271
5.19087323182059,1.7258888372284742,4.314296803960719,2.27585464256804
5.208132120192875,1.764701353596207,4.337055350386399,2.3642523858888973
5.225779133728837,1.7997622612329425,4.360697874245289,2.456674934544942
5.243776756341166,1.830873020021192,4.385264623590738,2.5531534191359664
5.262085486541378,1.8578308922322402,4.410796157782098,2.653708843713343
5.2806637954637,1.880429818032133,4.437333246219231,2.758352623430491
5.2994680936440215,1.898461574763488,4.464916772453536,2.867087231065087
5.318452709391656,1.91171727448262,4.493587644764188,2.9799069238914013
5.337569882136482,1.91998926595221,4.523386714003101,3.096798502235902
5.356769774796004,1.92307352331576,4.554354699025461,3.217742023424199
5.3760005100291615,1.9207726256782953,4.586532119259703,3.342711357393232
5.395208236285945,1.9128994619641668,4.619959232833635,3.471674420003033
5.414337230905587,1.899281836488185,4.654675977033665,3.604592853230884
5.433330049270468,1.8797682060721437,4.690721905565973,3.7414208332343746
5.45212773133119,1.8542348532587851,4.728136113898317,3.8821025720574402
5.470670079863778,1.8225948965082537,4.766957139618891,4.026567930160147
5.488896028828861,1.7848096610512332,4.807222818920493,4.174725368712308
5.506744125439373,1.7409030851245813,4.8489700726076155,4.32645123839496
5.524153156290619,1.690980012293979,4.892234584991565,4.481574126773891
5.541062956413558,1.6352494073256891,4.937050326259303,4.639852683621138
5.557415450486815,1.574053695875206,4.983448853095514,4.800945053115515
5.573155987445567,1.5079054960126155,5.031458303626669,4.964367850777422
5.588235042405693,1.437532851386772,5.081101982134443,5.129442697285358
5.602610370919561,1.3639334705459054,5.132396409107297,5.295228948423017
5.6162497056250205,1.2884370840794952,5.185348698591527,5.460442892456159
5.6291340764658155,1.212772387952176,5.239953127516089,5.623366951385612
5.641261800345338,1.139130642556351,5.296186797029946,5.781758028545029
5.652653106770901,1.0702115589157062,5.354004377315396,5.932772539116199
5.6633552223600585,1.0092291344352204,5.4133321027065575,6.072936273850098
5.673447513704411,0.9598478071042962,5.474061465445058,6.198197276378401
5.683045991775454,0.9260174696628286,5.536043438208842,6.304103104756996
5.692306166472082,0.911686638953993,5.599084469256412,6.386130777463765
5.701423032861622,0.9204026340566652,5.66294577703105,6.440160028459848
5.710627059202189,0.9548543142690724,5.727347377315648,6.463020273178238
5.720175602344879,1.0164600578982677,5.791977580047431,6.452980917686691
5.730340202923862,1.1051215951877889,5.856507389224298,6.410032350110715
5.74139141887574,1.21922906902518,5.920607712725405,6.33585226259618
5.753583709565992,1.3559208925761763,5.983966235351367,6.23345906109549
5.7671429184917535,1.5115151950877028,6.046300825962322,6.106665293113008
5.782258070442631,1.6819854241255043,6.107367478893452,5.959497169147878
5.799077924683886,1.8633676387065845,6.166962450584931,5.79572161610174
5.817711601070952,2.0520395258790853,6.224919666745948,5.618550652965669
5.838231996329743,2.244865739984751,6.281105173275605,5.430521594983186
5.86068065372959,2.439238069362958,6.335410389225436,5.233509558453461
5.885073034423219,2.633049204565134,6.387745484809971,5.028818247127772
5.91140352646887,2.8246338897972785,6.438033667281248,4.817303895055502
5.939649865366843,3.0127006002370247,6.486206706231803,4.5995025208847276
5.969776871369214,3.196266670470677,6.53220173144065,4.37574451596202
6.00173953807392,3.3746023464926256,6.5759591766002705,4.146250319564039
6.035485561538846,3.5471846720797178,6.617421679795911,3.9112066748715564
6.070957408259643,3.713659731846546,6.656533746544627,3.670825848960534
6.108094005578108,3.873810749814783,6.693242005034232,3.425391392495613
6.146832113076256,4.027529262429187,6.727495918959188,3.1752943476698774
6.187107405700548,4.174786649975808,6.759248862435887,2.9210637918797318
6.228855272200306,4.315603499295304,6.788459500354684,2.6633954831512994
6.272011307193259,4.45001448869645,6.815093455186197,2.4031822317922393
6.316511452080224,4.5780267325731705,6.839125277504119,2.141549415396512
6.362291719405956,4.69956988470891,6.860540771658084,1.8798986209535746
6.4092874182530455,4.814436961851019,6.87933975786762,1.619961446217206
6.457431787871555,4.922216123065292,6.895539372329792,1.363863566834632
6.506653949102208,5.0222159715426615,6.909178007998139,1.114195644544123
6.556876108817635,5.113390863776606,6.92031996444358,0.8740817894207664
6.608010017455401,5.194278619408553,6.929060782337788,0.6472275874188562
6.659952803649486,5.2629706960509175,6.935533058211977,0.4379186024704337
6.7125825106099954,5.317142589303388,6.939912244236681,0.2509294056092104
6.765753936503029,5.354175668440582,6.942421538292773,0.091298862145444
6.819295693187435,5.371393878845048,6.943334526914228,-0.03606025387484102
6.8730096319758855,5.366412586922207,6.9429739243754796,-0.12691006371676025
6.926673757845108,5.337551766387882,6.941704823738312,-0.17832108807144875
6.9800492755089865,5.284216197592634,6.939921612857598,-0.18924442016409102
7.0328914374849125,5.207121471468579,6.938029168655957,-0.16084239832980493
7.084962652199598,5.108274847768351,6.936420744672659,-0.09644315999714477
7.136045400677282,4.990702894450895,6.935456313072687,-0.0011074506864912487
7.185952429621791,4.858011340849419,6.935445238565822,0.11906485512976415
7.234532543030285,4.713912591710822,6.936635887117119,0.2576853786179961
7.281671668947394,4.561840425972376,6.939212740903299,0.40870336459397993
7.327290073207117,4.404712181819832,6.943299774549239,0.566812195665707
7.3713371950253155,4.244837318478786,6.948967896505896,0.7276326766638475
7.413785568210104,4.083934574024228,6.9562442232725346,0.8877257126766873
7.4546249139503455,3.9232110785842087,6.965121480399302,1.0445024036962283
7.4938570247361875,3.7634650845466378,6.975566504436264,1.1960890560314423
7.531491675581654,3.605187704354547,6.987527394996579,1.3411852373517512
7.5675435526251995,3.448651199435627,7.000939247370096,1.4789352671660265
7.602030064619556,3.2939796069607112,7.015728600041756,1.608821168191476
7.634969860689163,3.1412020841545374,7.031816811723671,1.7305779680788715
7.666381881530709,2.990291398624024,7.049122591404459,1.844128853036575
7.6962847955169496,2.841190562579154,7.067563879934825,1.9495365307106451
7.724696701142741,2.693830449202429,7.087059245241932,2.046967168171592
7.751635005634765,2.548140785692706,7.1075289169236475,2.1366637671166786
7.777116413491692,2.4040564195687892,7.1288955545948145,2.2189264667337762
7.80115697768738,2.261520304091679,7.151084819262152,2.2940978590901757
7.823772180728296,2.120484278520205,7.174025797853054,2.362551900051686
7.844977023513498,1.9809084308046756,7.197651316853571,2.424685389125794
7.864786107821545,1.8427596131992166,7.221898170744829,2.480911284510528
7.883213703953537,1.7060095210343615,7.246707283589934,2.531653332269903
7.90027379916388,1.5706326284280303,7.272023816912633,2.577341638465709
7.9159801254481605,1.4366041912620149,7.297797233297291,2.618408915419978
7.9303461673607805,1.3038984690286501,7.32398132245149,2.6552872002166183
7.943385152051067,1.1724872770106325,7.350534194453656,2.6884048843973445
7.955110024821173,1.0423389542090749,7.37741824329763,2.718183915542977
7.9655334143632635,0.9134178171890673,7.40460008245306,2.745037039238706
7.9746675925351544,0.7856841630556171,7.432050452845447,2.7693649477256064
7.98252443416571,0.6590948840008279,7.459744102322703,2.7915531925175627
7.989115383005719,0.5336047592265539,7.487659634247879,2.811968705349253
7.994451430597985,0.4091684951907823,7.5157793213013715,2.8309557582493206
7.998543115549892,0.2857435889931197,7.544088878883865,2.8488311834291253
8.001400551439824,0.16329408810246443,7.572577190718156,2.865878672729139
8.00303349232085,0.04179530672897151,7.601235977445447,2.8823419925255127
8.003451445388139,-0.07876047285538658,7.630059397370703,2.8984169941017135
8.002663840659585,-0.19835734676945416,7.65904356731172,2.9142423854944575
8.00068026719189,-0.31694831807799423,7.688185991166664,2.929889375191758
7.997510784011111,-0.43444729545527705,7.717484884918582,2.945350517469923
7.993166311056559,-0.5507210635282431,7.746938390093281,2.9605283954983452
7.9876591004212765,-0.6655819978454403,7.7765436740482645,2.9752251699899275
7.981003280442822,-0.7787826055963952,7.806295925748164,2.9891344702086475
7.9732154543868585,-0.8900132677016602,7.83618727045025,3.0018375412530705
7.964315321709842,-0.9989047506497433,7.866205645862781,3.01280586412641
7.9543262742033445,-1.1050370237629943,7.896333704504045,3.021412459202114
7.943275903965715,-1.2079555220844944,7.926547829096066,3.026953573874903
7.931196348744869,-1.3071951356396294,7.956817364834815,3.0286812937069687
7.918124397388473,-1.4023108908900064,7.987104177771885,3.025845806079357
7.9041012884795725,-1.492912708392355,8.017362635832677,3.017743839892765
7.889172161395649,-1.5787001596434032,8.047540074231605,3.0037677379565753
7.8733851597992155,-1.659492310212166,8.077577751611171,2.9834483927754696
7.856790236697094,-1.7352479566376553,8.107412235538925,2.9564854998570005
7.839437757130717,-1.8060729728366811,8.136977090537496,2.9227604539460788
7.821377027402351,-1.8722137798507636,8.166204695076956,2.8823303362928017
7.802654889603843,-1.9340384866516387,8.195027998439885,2.8354049209326933
7.7833145047373264,-1.9920092758648682,8.223382047649212,2.7823114388487293
7.763394411978678,-2.0466506083401117,8.2512051620377,2.723453258582404
7.742927905895277,-2.0985176858547767,8.278439694623524,2.659268509936968
7.721942729036729,-2.148168612878481,8.305032379722894,2.590193357129126
7.7004610429079445,-2.196142298632029,8.330934313294184,2.5166327486038433
7.678499619921625,-2.242942778802673,8.356100640780223,2.4389396333812265
7.656070192133598,-2.289029593354508,8.380490037114036,2.35740222406943
7.633179896200053,-2.334813229412192,8.40406405935473,2.272238038240856
7.609831763905931,-2.38065438582534,8.426786439737139,2.1835931092341254
7.586025220047678,-2.4268658320732635,8.44862237082948,2.0915447803919314
7.561756561726946,-2.473715803073659,8.469537818633398,1.9961067267526535
7.537019403696209,-2.5214321004246996,8.489498885900925,1.8972351596890602
7.511805082691962,-2.5702062991507346,8.508471237497815,1.7948354811907123
7.4861030197004546,-2.6201976554603137,8.526419592309722,1.6887689227013412
7.459901043145852,-2.671536464119582,8.543307281536736,1.5788589135024838
7.433185678504656,-2.7243267246307337,8.55909587067176,1.464897076612788
7.405942411258349,-2.7786480500842896,8.573744841437888,1.3466488546733055
7.378155930757506,-2.8345567996998673,8.587211329984621,1.223858835117819
7.349810362760508,-2.892086443700452,8.599449918335798,1.096255883185334
7.320889498323503,-2.951247184039335,8.610412477167651,0.9635582112020823
7.29137702648311,-3.0120248619172463,8.620048059279672,0.8254785190420484
7.261256777863937,-3.0743791869663357,8.628302844470092,0.6817293377808913
7.230512985994274,-3.1382413263436137,8.6351201378479,0.5320286986848058
7.199130572730838,-3.2035108968601502,8.640440424834749,0.37610623400129994
7.167095463762236,-3.2700524111555604,8.644201487174762,0.21370979486678324
7.134394939650681,-3.337691240821997,8.646338585123429,0.04461264480350652
7.1010180272424615,-3.4062091759035495,8.646784711571463,-0.1313787457249024
7.066955935483426,-3.4753396815812745,8.645470924114214,-0.3144163178702055
7.0322025386676135,-3.5447629789302693,8.642326760935513,-0.5046015167604688
6.9967549088783105,-3.614101106772404,8.637280745767908,-0.7019759715463318
6.960613897810586,-3.682913154694932,8.630260986052445,-0.9065119359990725
6.923784766263637,-3.750690891543156,8.621195866692455,-1.1181027256109368
6.8862778573482055,-3.816855046833389,8.610014839436346,-1.336553451712894
6.848109306879872,-3.8807525317610683,8.596649304919216,-1.5615724156359712
6.809301781562261,-3.9416549086024633,8.581033580762856,-1.7927635820860128
6.769885232476236,-3.9987584289593405,8.563105944941997,-2.029620595871835
6.729897648186642,-4.051185959214215,8.542809738983278,-2.271522835051985
6.6893857885945005,-4.0979910929062155,8.520094510632758,-2.5177340020339964
6.6484058776654384,-4.13816471235728,8.494917170612418,-2.7674037387575896
6.607024230541866,-4.170644204508166,8.467243133224843,-3.019572710838347
6.565317788496784,-4.194325458204524,8.43704740611646,-3.273181538105076
6.523374533914739,-4.208077672506437,8.404315590735408,-3.527083856540468
6.4812937571896745,-4.2107608888606185,8.369044752170003,-3.7800636815548474
6.439186148301069,-4.201246025235373,8.331244115354455,-4.0308571075759385
6.3971736880487144,-4.178437038696967,8.290935544278696,-4.278178226735245
6.355389317661745,-4.1412946758483775,8.248153762011343,-4.5207489820996845
6.313976370903261,-4.088861090635058,8.202946272190346,-4.757332490434081
6.273087759996911,-4.020284421310412,8.155372947286004,-4.986769178989408
6.232884915783807,-3.9348422320509786,8.10550525549611,-5.208014886545481
6.193536493463298,-3.831962554598741,8.053425106630655,-5.420179892717135
6.155216867917311,-3.7112411322067853,7.999223307703484,-5.6225676807450355
6.118104456595243,-3.572453397651132,7.942997630896033,-5.81471213512463
6.082379922618732,-3.415559735917168,7.884850509544787,-5.996411860218322
6.04822432525956,-3.2407027125754664,7.824886390942604,-6.167760414737023
6.015817298133805,-3.0481952013951523,7.763208786795234,-6.32917151935504
5.985335346119854,-2.8384987117259968,7.699917071601684,-6.481398726583648
5.956950359002594,-2.612191667842668,7.635103084335848,-6.625549638165494
5.9308284423241675,-2.3699278780876223,7.568847587954193,-6.7630954853514496
5.907129163543291,-2.112385887373801,7.501216633100678,-6.895877696314356
5.8860053046695535,-1.8402102701193639,7.432257856137534,-7.0261138860960095
5.86760320196836,-1.553946153125762,7.361996717276574,-7.1564064222443315
5.852063740437103,-1.2539683738583718,7.290432653054131,-7.289757220930031
5.83952405669852,-0.9404067911396752,7.21753508084483,-7.4295925292654275
5.830119988787123,-0.6130696572671637,7.143239155552176,-7.579800812329835
5.823989292214452,-0.2713682370989466,7.067441147428878,-7.7447847928641504
5.821275609843462,0.08575075262085696,6.989993299500236,-7.929523699401622
5.82213311736967,0.4598503273080307,6.91069806250622,-8.139630677272756
5.826731620642751,0.8529938605977305,6.829301755733492,-8.381366368222661
5.835261559248728,1.2676115389286606,6.745488092051265,-8.661518942154183
5.847937674638015,1.7060960351278651,6.6588729026297235,-8.986955810270244
5.864998634989293,2.1698294057710696,6.5690033445270215,-9.363443431617076
5.8866969290470035,2.657071789564329,6.475368910210851,-9.792952056272684
5.913267646942646,3.158760213503719,6.377439389648124,-10.268115269735425
5.944855249077683,3.6511394227408647,6.27475823695077,-10.762289074414904
5.981366643305092,4.085869537009172,6.167135346206622,-11.215935346661599
6.022225338675184,4.3854151194322295,6.0549759927400055,-11.529814501792833
6.066079489869506,4.46356580262901,5.939677847722077,-11.592049816623016
6.110715147895796,4.281617197325707,5.823757349555847,-11.353430698169898
6.153531319869053,3.890321422029069,5.710223042574148,-10.882791774611592
6.192434534089344,3.392595854959215,5.601395124828032,-10.315132558907875
