th1 (rad),w1 (rad/s),th2 (rad),w2 (rad/s),a1 (rad/s^2),a2 (rad/s^2)
0.07408571132135744,0.5545679585463528,3.238165289195126,-2.511608169767953,-0.640651628001017,0.3113669460529421
0.07963139090682096,0.5481614422663426,3.2130492074974466,-2.5084945003074233,-0.8104333617190691,-0.11318419514218746
0.08511300532948439,0.5400571086491519,3.1879642624943725,-2.509626342258845,-0.9781431781762082,-0.5344268605180741
0.0905135764159759,0.5302756768673899,3.162867999071784,-2.514970610864026,-1.1400248465270186,-0.9482643848733048
0.0958163331846498,0.5188754284021196,3.1377182929631435,-2.524453254712759,-1.2925042396091297,-1.3508510522515953
0.101005087468671,0.5059503860060284,3.112473760416016,-2.5379617652352753,-1.4322703181745546,-1.7387024339835793
0.10606459132873128,0.4916276828242828,3.087094142763663,-2.555348789575111,-1.5563426271008536,-2.108786314840305
0.11098086815697411,0.4760642565532743,3.061540654867912,-2.576436652723514,-1.6621229981331314,-2.458590983826501
0.11574151072250685,0.45944302657194297,3.0357762883406765,-2.601022562561779,-1.7474302432796982,-2.786169293672221
0.12033594098822628,0.441968724139146,3.009766062715059,-2.6288842554985012,-1.8105176971469077,-3.0901584989356374
0.12475562822961773,0.42386354716767694,2.983477220160074,-2.659785840487858,-1.8500744403878153,-3.3697773335752315
0.1289942637012945,0.40536280276379877,2.9568793617551954,-2.6934836138236102,-1.8652118439513639,-3.6248029813529143
0.13304789172893247,0.3867106843242851,2.929944525616959,-2.7297316436371393,-1.855437671816514,-3.8555314599136685
0.13691499857217532,0.36815630760612,2.902647209180588,-2.768286958236276,-1.820620349412718,-4.062725454317251
0.14059656164823653,0.34995010411199284,2.8749643395982254,-2.8089142127794484,-1.7609461496612258,-4.2475538070686305
0.14409606268935646,0.3323406426153806,2.846875197470431,-2.8513897508501347,-1.6768719911854773,-4.411526738284623
0.14741946911551027,0.31557192270352585,2.8183612999619294,-2.895505018232981,-1.5690763202035027,-4.5564304918579905
0.15057518834254552,0.2998811595014908,2.7894062497795997,-2.9410693231515608,-1.4384102033696449,-4.684264553265748
0.15357399993756043,0.28549705746779436,2.759995556548084,-2.987911968684218,-1.285850340064463,-4.7971839362474835
0.1564289705122384,0.2726385540671497,2.730116436861242,-3.0358838080466928,-1.1124552533326777,-4.89744835766674
0.1591553560529099,0.2615140015338229,2.699757598780775,-3.0848582916233602,-0.9193254764237215,-4.987379470031462
0.16177049606824812,0.2523207467695857,2.6689090158645414,-3.134732086323675,-0.7075681456073634,-5.069326742628969
0.16429370353594397,0.2452450653135121,2.6375616950013048,-3.185425353749965,-0.4782660589991604,-5.145642103074071
0.1667461541890791,0.24046240472352048,2.6057074414638053,-3.2368817747807057,-0.2324509757370364,-5.218663085143972
0.1691507782363143,0.23813789496615012,2.573338623715998,-3.2890684056321455,0.028919287764856996,-5.290703978084764
0.1715321571859758,0.23842708784379868,2.5404479396596766,-3.3419754454129933,0.3049805616105307,-5.364054330259282
0.1739164280644138,0.24147689345990397,2.5070281852055465,-3.395615988715586,0.5949795218594803,-5.44098411348084
0.17633119699901284,0.2474266886784988,2.4730720253183907,-3.4500258298503947,0.898289135252695,-5.523754888221977
0.17880546388579782,0.25640958003102576,2.4385717670198868,-3.5052633787326144,1.2144231205419538,-5.614636408224077
0.18136955968610807,0.2685538112364453,2.4035191332325607,-3.5614097428148552,1.543050198974056,-5.715928251285153
0.18405509779847254,0.28398431322618584,2.3679050358044123,-3.618569025327707,1.8840088983527734,-5.829986249030151
0.1868949409307344,0.3028244022097136,2.3317193455511354,-3.6768688878180087,2.237323667296974,-5.95925370314994
0.18992318495283153,0.3251976388826833,2.294950656672955,-3.7364614248495083,2.603223056874071,-6.106297612934469
0.19317516134165835,0.35122986945142404,2.2575860424244603,-3.797524400978853,2.9821607419229426,-6.273850395752944
0.1966874600361726,0.38105147687065344,2.2196107984146716,-3.8602629049363824,3.3748401882295047,-6.464857857419623
0.20049797480487913,0.4147998787529485,2.181008169365308,-3.9249114835105785,3.782243825850805,-6.682534463077773
0.2046459735924086,0.45262231701145655,2.141759054530202,-3.9917368281413563,4.2056676612516055,-6.9304272703872885
0.20917219676252316,0.4946789936239726,2.1018416862487888,-4.061041100845229,4.646762343796768,-7.21249021046654
0.2141189866987629,0.5411466170619403,2.0612312752403366,-4.133166002949895,5.107581778320437,-7.533170724016988
0.2195304528693823,0.5922224348451447,2.0198996152108375,-4.2084977101900645,5.5906404113985655,-7.89751104780082
0.22545267721783374,0.6481288389591303,1.9778146381089368,-4.287472820668072,6.098980252492872,-8.311266633311456
0.23193396560742505,0.709118641484059,1.934939909902256,-4.370585487001187,6.636248410283964,-8.781044135841602
0.23902515202226562,0.7754811255868986,1.8912340550322442,-4.458395928359603,7.206785229648423,-9.314460896789884
0.24677996327813462,0.8475489778833829,1.8466500957486482,-4.551540537327502,7.815721652310666,-9.920326412819612
0.25525545305696845,0.9257061944064896,1.8011346903753733,-4.650743801455698,8.469081569507443,-10.608843141678962
0.26451251500103334,1.010397010101564,1.7546272523608164,-4.756832232872488,9.173879584345404,-11.391817694507106
0.274616485102049,1.1021358059450181,1.7070589300320915,-4.870750409817559,9.938194802963686,-12.282861420124869
0.2856378431614992,1.201517753974655,1.6583514259339158,-4.993579024018807,10.77118357108181,-13.297536958376924
0.2976530207012458,1.309229589685473,1.6084156356937278,-5.126554393602576,11.682962346769047,-14.453366224170967
0.3107453165981005,1.4260592131531635,1.5571500917577021,-5.271088055844285,12.68423534771956,-15.769540683416846
0.32500590872963214,1.5529015666303592,1.5044392111992593,-5.428783462678454,13.785441320743969,-17.26604056388252
0.34053492439593575,1.690755979837799,1.4501513765724747,-5.601443868317279,14.995017280608732,-18.96163053872312
0.35744248419431374,1.8407061526438862,1.3941369378893018,-5.79106017370451,16.3160707886739,-20.869780009783515
0.3758495457207526,2.0038668605306253,1.3362263361522566,-5.999757973802345,17.74023518819113,-22.990840657623938
0.3958882143260588,2.181269212412537,1.2762287564142332,-6.2296663803785846,19.23665533773015,-25.297657367714237
0.41770090645018415,2.3736357657898384,1.2139320926104473,-6.482642954055727,20.73287682490223,-27.710120931892874
0.44143726410808254,2.5809645340388605,1.1491056630698901,-6.759744163374656,22.083213838218228,-30.052407870337294
0.46724690944847114,2.801796672421043,1.0815082214361436,-7.0602682420780285,23.020534205459672,-31.98693446202358
0.49526487617268156,3.0320020144756397,1.0109055390153632,-7.380137586698265,23.094268536302703,-32.928166380860226
0.525584896317438,3.2629446998386666,0.9371041631483805,-7.709419250506867,21.622108752843175,-31.973014450624593
0.5582143433158246,3.4791657873670983,0.8600099706433119,-8.029149395013114,17.739633110157914,-27.962710008755746
0.5930060011894956,3.6565621184686776,0.7797184766931807,-8.308776495100672,10.7019576899996,-19.888081794172294
0.6295716223741824,3.7635816953686736,0.6966307117421741,-8.507657313042394,0.528218514392301,-7.764224371741132
0.6672074393278692,3.7688638805125967,0.6115541386117501,-8.585299556759805,-11.36417553352805,6.510113091941335
0.7048960781329952,3.6552221251773163,0.525701143044152,-8.520198425840393,-22.43041124697402,19.534780400836915
0.7414482993847683,3.430918012707576,0.44049915878574813,-8.324850621832024,-30.44663794802729,28.388897992783647
0.775757479511844,3.126451633227303,0.3572506525674279,-8.040961641904188,-34.758997131287025,32.30453045107096
0.807021995844117,2.7788616619144326,0.276841036148386,-7.717916337393478,-36.10338992464783,32.37340765688683
0.8348106124632614,2.4178277626679545,0.19966187277445124,-7.39418226082461,-35.64501819741731,30.218289422130198
0.858988890089941,2.0613775806937813,0.12572005016620513,-7.091999366603308,-34.32706854773807,27.119923143651924
0.8796026658968787,1.7181068952164007,0.054800056500172056,-6.820800135166789,-32.72517198277245,23.84177587118838
0.8967837348490427,1.3908551753886762,-0.013407944851495837,-6.582382376454905,-31.132921371284876,20.761885588337364
0.9106922866029294,1.0795259616758275,-0.07923176861604489,-6.374763520571531,-29.67576664078874,18.0345718628886
0.9214875462196878,0.78276829526794,-0.14297940382176022,-6.194417801942645,-28.391249782560262,15.701193828135077
0.9293152291723672,0.4988557974423374,-0.20492358184118667,-6.037405863661294,-27.275089721680633,13.752260030694062
0.9343037871467905,0.22610490022553104,-0.26529764047779963,-5.899883263354353,-26.305181458707903,12.158825122061813
0.9365648361490458,-0.03694691436154801,-0.3242964731113432,-5.778295012133735,-25.45336337270521,10.887184848741542
0.9361953670054304,-0.2914805480886001,-0.3820794232326805,-5.66942316364632,-24.690892240343672,9.905132316361438
0.9332805615245444,-0.5383894704920368,-0.4387736548691437,-5.570371840482705,-23.990824440474476,9.184148632619255
0.927896666819624,-0.7782977148967816,-0.4944773732739708,-5.478530354156513,-23.328936989274407,8.699725463767574
0.9201136896706562,-1.0115870847895256,-0.549262676815536,-5.3915330995188375,-22.68399718427287,8.430891474394905
0.909997818822761,-1.2384270566322544,-0.6031780078107244,-5.307224184774888,-22.037769821519927,8.359453911642833
0.8976135482564385,-1.4588047548474536,-0.6562502496584732,-5.22362964565846,-21.37494070633031,8.469193444002451
0.8830255007079639,-1.6725541619107567,-0.7084865461150578,-5.138937711218436,-20.683030878417142,8.745119702155
0.8662999590888564,-1.879384470694928,-0.7598759232272422,-5.051486514196886,-19.952324891697003,9.172833672164725
0.8475061143819071,-2.078907719611898,-0.8103907883692111,-4.959758177475239,-19.175812281411066,9.738014884958053
0.8267170371857882,-2.2706658424260087,-0.8599883701439635,-4.862378028625658,-18.349130938003956,10.426038391727305
0.804010378761528,-2.454157151806048,-0.90861215043022,-4.758117644708385,-17.470497973380837,11.221720154130818
0.7794688072434676,-2.6288621315398566,-0.9561933268773039,-4.6459004431670765,-16.54061449253338,12.109185650346603
0.753180185928069,-2.7942682764651905,-1.0026523313089746,-4.52480858666361,-15.56253367899032,13.071853466061132
0.7252375031634171,-2.9498936132550937,-1.0479004171756108,-4.394090052002999,-14.541485685981039,14.092522835369692
0.6957385670308661,-3.095308470114904,-1.0918413176956407,-4.253164823649302,-13.484657257473277,15.153551508392919
0.6647854823297171,-3.2301550426896366,-1.1343729659321338,-4.101629308565372,-12.400928239053124,16.23710814904305
0.6324839319028208,-3.354164325080168,-1.1753892590177875,-3.9392582270749417,-11.300570787104377,17.325481917740927
0.5989422886520192,-3.467170032951212,-1.214781841288537,-3.766003407897532,-10.194919909891608,18.401431085621084
0.564270588322507,-3.569119232050128,-1.2524418753675122,-3.5819890970413213,-9.096025894797181,19.44855244689849
0.5285793960020057,-3.6600794909981,-1.2882617663379254,-3.3875035725723364,-8.016300245345278,20.451653827928794
0.4919786010920246,-3.740242493451553,-1.3221368020636488,-3.182987034293048,-6.968167112742734,21.39711297304094
0.4545761761575091,-3.8099241645789803,-1.3539666724065793,-2.9690159045626388,-5.963732032445674,22.2732073817536
0.4164769345117193,-3.869561484903437,-1.3836568314522057,-2.746283830745103,-5.014479211417859,23.070401223878292
0.3777813196626849,-3.9197062770176156,-1.4111196697596569,-2.51557981850632,-4.1310077332270225,23.781577313921954
0.33858425689250876,-3.9610163543498857,-1.43627546794472,-2.2777640453671,-3.3228158560335066,24.40220440722432
0.29897409334900993,-3.9942445129102206,-1.459053108398391,-2.033742001294857,-2.598141019042391,24.93043292642563
0.2590316482199077,-4.020225923100645,-1.4793905284113396,-1.7844376720306006,-1.9638611841594757,25.367115713526314
0.21882938898890125,-4.0398645349422395,-1.4972349051316456,-1.5307665148953373,-1.4254607030094923,25.715754470352987
0.17843074363947886,-4.054119141972334,-1.512542570280599,-1.2736089701918074,-0.9870610786508158,25.98237696516897
0.13788955221975552,-4.063989752758842,-1.525278659982517,-1.0137852005401178,-0.6515139414277934,26.175354445051866
0.09724965469216709,-4.07050489217312,-1.5354165119879182,-0.7520316560895991,-0.420550500731382,26.305172485653234
0.05654460577043589,-4.074710397180434,-1.542936828548814,-0.48897993123306677,-0.2949788987482927,26.38417117415341
0.015797501798631555,-4.0776601861679165,-1.5478266278611448,-0.22513821949153268,-0.27491843748521755,26.42627152914099
-0.024979100063047613,-4.080409370542768,-1.55007801005606,0.03912449579987726,-0.3600575755437823,26.44670394531478
-0.0657831937684753,-4.084009946298206,-1.5496867650980612,0.30359153525302507,-0.5499206430715349,26.461750765967256
-0.10662329323145736,-4.089509152728922,-1.546650849745531,0.5682090429126976,-0.8441257940162817,26.488508271939782
-0.14751838475874657,-4.0979504106690845,-1.5409687593164039,0.8330941256320954,-1.2426127038966965,26.544662493586564
-0.18849788886543742,-4.110376537708052,-1.5326378180600828,1.098540750567961,-1.7458111148187478,26.64825655387337
-0.22960165424251794,-4.127834648856239,-1.5216524105544031,1.3650233161066947,-2.3547076180283417,26.81740150608633
-0.2708800007310803,-4.151381725036522,-1.5080021773933363,1.633197331167558,-3.0707433915684907,27.069842095388577
-0.31239381798144555,-4.182089158952207,-1.4916702040816607,1.903895752121444,-3.895432519279917,27.422223736859017
-0.3542147095709676,-4.221043484145007,-1.4726312465604463,2.178117989490034,-4.829517195383686,27.88880117137138
-0.3964251444124177,-4.269338656098843,-1.450850066665546,2.457006001203748,-5.871354515120986,28.479157725861715
-0.43911853097340614,-4.328052201250053,-1.4262800066535084,2.741797578462365,-7.014034327943911,29.19423148526098
-0.4823990529859067,-4.398192544529492,-1.3988620308688848,3.033739893314975,-8.240430181315947,30.019530841168073
-0.5263809784312016,-4.480596846342651,-1.3685246319357351,3.3339352017266557,-9.514975550952444,30.91385222230946
-0.5711869468946281,-4.575746601852176,-1.3351852799184687,3.64307372394975,-10.770516036422208,31.791199448680697
-0.6169444129131498,-4.683451762216398,-1.2987545426789713,3.9609857184365573,-11.88848400707623,32.49346204795518
-0.6637789305353138,-4.802336602287161,-1.2591446854946058,4.285920338916109,-12.67198112808699,32.753284614611964
-0.7118022965581854,-4.929056413568031,-1.2162854821054447,4.613453185062229,-12.816730191445147,32.15407915330391
-0.7610928606938657,-5.057223715482482,-1.1701509502548224,4.934993976595268,-11.898674912246511,30.113457724980936
-0.8116650978486906,-5.176210464604947,-1.1208010104888697,5.236128553845077,-9.421781060443573,25.950992307818694
-0.86342720249474,-5.270428275209382,-1.068439724950419,5.495638476923264,-4.9900780577747454,19.129700939252434
-0.9161314852468339,-5.32032905578713,-1.0134833401811862,5.686935486315789,1.375307583148391,9.699543468902101
-0.9693347758047052,-5.306575979955646,-0.9566139853180283,5.78393092100481,8.934311485520766,-1.282792925492082
-1.0224005356042616,-5.2172328651004385,-0.8987746761079802,5.771102991749889,16.305171936760427,-11.86806958765219
-1.0745728642552659,-5.0541811457328345,-0.8410636461904814,5.652422295873367,22.09041696006238,-20.097309131987235
-1.1251146757125943,-4.83327697613221,-0.7845394232317476,5.451449204553495,25.586301034276886,-24.996114083739755
-1.1734474454739163,-4.577413965789441,-0.7300249311862127,5.201488063716098,26.938671111333672,-26.787307565046515
-1.2192215851318107,-4.308027254676104,-0.6780100505490517,4.933614988065632,26.76375121017836,-26.352997584668163
-1.2623018576785716,-4.0403897425743205,-0.6286739006683955,4.670085012218951,25.717274025367434,-24.627480595691445
-1.3027057551043149,-3.783217002320646,-0.581973050546206,4.423810206262036,24.286921989525027,-22.3059874983663
-1.3405379251275213,-3.5403477824253957,-0.5377349484835856,4.200750331278373,22.770532374598538,-19.81488200140244
-1.3759414029517754,-3.3126424586794103,-0.49572744517080186,4.0026015112643485,21.32554261346987,-17.38177062297864
-1.4090678275385695,-3.0993870325447115,-0.4557014300581584,3.828783805034562,20.023043570502356,-15.111865307246234
-1.4400616978640166,-2.899156596839688,-0.41741359200781275,3.6776651519621,18.88652317714185,-13.0427009619868
-1.4690532638324134,-2.7102913650682696,-0.38063694048819174,3.547238142342232,17.915418161737698,-11.177435936845589
-1.496156177483096,-2.5311371834508924,-0.3451645590647694,3.435463782973776,17.098226192692724,-9.503442641674393
-1.5214675493176049,-2.360154921523965,-0.31080992123503165,3.340429356557032,16.419381351833234,-8.002106848883168
-1.5450690985328446,-2.195961108005633,-0.2774056276694613,3.2604082880682004,15.862657392849599,-6.653726622703304
-1.567028709612901,-2.0373345340771367,-0.2448015447887793,3.1938710218411672,15.41271931631124,-5.439792223223722
-1.5874020549536723,-1.8832073409140242,-0.21286283457036764,3.13947309960893,15.055721117929531,-4.343911916813412
-1.6062341283628125,-1.7326501297347288,-0.18146810357427834,3.096033980440796,14.779431502714807,-3.3520633223881817
-1.62356062966016,-1.5848558147075806,-0.15050776376987038,3.062513347216914,14.573140338400226,-2.452527481694653
-1.6394091878072357,-1.4391244113235784,-0.11988263029770124,3.0379880723999673,14.427475572663699,-1.6356893156821266
-1.6538004319204715,-1.2948496555969413,-0.08950274957370156,3.021631179243146,14.334195243917298,-0.8937960674113534
-1.666748928476441,-1.1515077031577683,-0.0592864377812701,3.0126932185690323,14.285985254364775,-0.22071706486239004
-1.6782640055080187,-1.0086478506141205,-0.02915950559557978,3.0104860479204083,14.276276172964538,0.38827680502909667
-1.6883504840141599,-0.8658850888844751,0.0009453548836243046,3.014368815970699,14.29908367723523,0.9367081167568235
-1.6970093349030047,-0.7228942521121229,0.031089043043331297,3.0237358971382675,14.348873156600153,1.4270627323652956
-1.7042382774241258,-0.5794055205461214,0.06132640201471397,3.0380065244619203,14.420447267159755,1.8609374680850028
-1.710032332629587,-0.43520104787452385,0.09170646725933318,3.0566158991427703,14.508854669010773,2.239169621382694
-1.7143843431083323,-0.2901125011844161,0.12227262625076088,3.079007595356597,14.60931816658224,2.561952487110638
-1.7172854681201766,-0.14401931951859373,0.15306270220432686,3.1046271202277036,14.717180678682071,2.828940669070692
-1.7187256613153625,0.0031524872682269778,0.1841089734066039,3.1329165269184105,14.82786771384608,3.0393484639326696
-1.7186941364426802,0.15143116440668777,0.215438138675788,3.163310011557737,14.936865228153705,3.1920439668676512
-1.7171798247986134,0.30079981668822486,0.2470712387913654,3.1952304512264136,15.0397118530258,3.2856408736342577
-1.7141718266317312,0.45119693521848286,0.27902354330362955,3.2280868599627563,15.132004482490604,3.3185892576265705
-1.7096598572795463,0.6025169800433889,0.31130441190325714,3.261272752539022,15.20941610324368,3.2892659001572246
-1.7036346874791124,0.7546111410758257,0.3439171394286474,3.2941654115405945,15.267724550063967,3.1960640676921184
-1.6960885760683542,0.9072883865764654,0.3768587935440533,3.3261260522175156,15.302850598821985,3.0374819876320363
-1.6870156922025896,1.0603168925646853,0.4101200540662285,3.356500872093836,15.310903504820551,2.8122087098489805
-1.6764125232769427,1.213425927612891,0.44368506278716685,3.384622959192326,15.288231799573039,2.519205596928382
-1.6642782640008138,1.3663082456086213,0.4775312923790901,3.40981501516161,15.231476924016759,2.1577814074003245
-1.6506151815447276,1.518623014848789,0.5116294425307062,3.431392829235613,15.137627151257792,1.7276588654091931
