th1 (rad),w1 (rad/s),th2 (rad),w2 (rad/s)
5.885254646224693,-1.3667929240809455,5.088938093761266,-1.1566957846232
5.871586716983884,-1.3712164797165456,5.077371135915034,-1.049115102258514
5.857874552186718,-1.3732012820167951,5.066879984892449,-0.9427673334768689
5.84414253936655,-1.3728695165259985,5.05745231155768,-0.8376857325608249
5.83041384420129,-1.3703418110400316,5.049075454232072,-0.733902934059843
5.81671042609089,-1.3657364673998285,5.041736424891473,-0.6314505615336511
5.803053061416892,-1.3591687536314843,5.0354219192761365,-0.5303589308854226
5.789461373880577,-1.3507502497191153,5.030118329967282,-0.43065685472475745
5.775953871383386,-1.3405882409104408,5.025811761420035,-0.33237155098873694
5.762547988974282,-1.328785152794856,5.022488045910147,-0.2355286565374092
5.749260137446333,-1.3154380225907778,5.020132759344773,-0.1401523444744603
5.736105757220425,-1.3006380012394607,5.018731235900028,-0.0462655423906731
5.7230993772080305,-1.284469881113806,5.018268580476121,0.046109752534100434
5.710254678396892,-1.2670116444871007,5.0187296780014625,0.13695206671877824
5.697584561952022,-1.248334028433093,5.0200991986686505,0.2262399578224199
5.685101221667691,-1.2285001026043076,5.022361598246874,0.31395144405647635
5.672816220641648,-1.2075648574148619,5.025501112687439,0.40006336358228467
5.6607405720675,-1.1855748015886618,5.029501746323262,0.4845506738510706
5.648884824051613,-1.162567569870581,5.034347253061773,0.5673857025294018
5.637259148352908,-1.1385715439764441,5.040021110087067,0.6485373638676608
5.625873432913144,-1.1136054926038044,5.046506483725744,0.727970357080072
5.6147373779871055,-1.0876782395451052,5.053786187296544,0.8056443665493591
5.603860595591654,-1.0607883726110452,5.061842630962038,0.8815132874391727
5.593252711865544,-1.0329240101116137,5.070657763836429,0.9555245045207206
5.582923471764428,-1.0040626459187703,5.080213008881636,1.0276182565379466
5.57288284530524,-0.9741710984301066,5.090489191447016,1.0977271229795533
5.563141134320939,-0.9432055927505026,5.101466462676812,1.165775674295653
5.553709078393434,-0.9111120086813128,5.113124219419769,1.2316803298440344
5.544597958306621,-0.8778263291135404,5.125441022718209,1.2953494694793017
5.535819695015486,-0.8432753235239631,5.138394517413002,1.356683843883073
5.527386941780247,-0.8073774987731999,5.1519613558518325,1.4155773245766785
5.519313166792514,-0.7700443436149794,5.166117129097599,1.4719180261822011
5.5116127233563645,-0.7311818836745404,5.180836309359421,1.5255898201881513
5.504300904519619,-0.6906925498212383,5.1960922075613025,1.5764742408620231
5.497393979021407,-0.648477344933944,5.211856949969922,1.6244527602142784
5.490909205572067,-0.6044382726842356,5.228101477572065,1.6694093809865713
5.484864822845225,-0.5584809684559917,5.244795571381931,1.7112334663279594
5.479280013160665,-0.5105174488858132,5.26190790604521,1.7498226948596163
5.474174838671806,-0.46046887533688957,5.279406132993807,1.7850860036849348
5.469570149918438,-0.40826821082457887,5.297256993030656,1.8169463634379432
5.465487467810192,-0.3538626423264245,5.315426456665035,1.8453432223639412
5.461948841386928,-0.29721564327359035,5.333879888888674,1.8702344635165669
5.458976684954192,-0.23830856547553297,5.35258223352384,1.891597741719246
5.4565935992994365,-0.17714167542603323,5.3714982109410325,1.9094311042156658
5.454822182545176,-0.11373458488805882,5.390592521983189,1.9237528479510648
5.453684836696296,-0.048126066397446265,5.409830050462699,1.9346006222675731
5.453203576032322,0.01962671358435547,5.429176056685375,1.942029842300729
5.453399843168166,0.08944947241466598,5.448596355108382,1.9461115291226292
5.454294337892312,0.1612524972937554,5.468057470399608,1.9469297321165846
5.45590686286525,0.23493261633938645,5.487526767720774,1.944578713360374
5.458256189028644,0.31037532279151087,5.506972554854378,1.9391600813922014
5.461359942256559,0.38745692332636805,5.5263641556683,1.9307800534282167
5.465234511489823,0.4660465941618887,5.545671956202582,1.919547003643464
5.469894977431442,0.5460082483760882,5.564867426239016,1.9055694245366435
5.475355059915202,0.6272021414651201,5.583923120484383,1.8889543931503252
5.4816270813298535,0.7094861665965899,5.602812664415886,1.8698065982107752
5.488721942995819,0.7927168137590921,5.621510730397993,1.8482279514647806
5.49664911113341,0.8767497863225817,5.639993009912641,1.8243177788986822
5.505416608996636,0.961440283470903,5.658236187701628,1.798173566249136
5.515031011831344,1.0466429673465687,5.67621792336412,1.769892218360156
5.52549744150481,1.1322116399349231,5.693916845547721,1.7395717828299346
5.53681955790416,1.2179986574801631,5.711312563376021,1.707313583832506
5.548999544478962,1.3038541105622685,5.728385699214346,1.6732247105302938
5.562038085584584,1.3896247969516082,5.745117946319649,1.637420804568038
5.5759343335541,1.4751530130700696,5.761492154365329,1.6000290912550363
5.590685863684801,1.5602751893349376,5.777492445277879,1.5611915978173396
5.60628861557815,1.6448203957644028,5.793104361256052,1.5210684983045686
5.6227368195357945,1.7286087477939498,5.808315046239098,1.479841517312153
5.640022907013734,1.8114497489759105,5.82311346141222,1.4377173127767444
5.658137404503494,1.8931406176288035,5.8374906345399875,1.3949307411281782
5.677068810679782,1.973464658850416,5.851439941951269,1.3517478858086878
5.696803457268286,2.0521897615406326,5.864957420809356,1.3084687029038944
5.717325354883693,2.1290671216195247,5.878042107838395,1.2654291064395256
5.738616026099888,2.203830316188156,5.89069639890279,1.2230022829039666
5.76065432926177,2.276194876756079,5.90292642173183,1.1815989932392332
5.78341627802933,2.3458585295360446,5.914742411664222,1.141666595994259
5.8068748633246905,2.41250228268642,5.926159077624165,1.1036865143470072
5.830999886151555,2.475792538727247,5.9371959427676355,1.0681698805311042
5.855757811538828,2.535384389067938,5.947877641572947,1.0356511328238862
5.881111655429507,2.5909262009326826,5.958234152901186,1.0066794209587386
5.9070209174388335,2.6420655310037193,5.968300947110773,0.9818078011154946
5.933441572748871,2.6884562944385455,5.978119025121928,0.9615803715795922
5.960326135693256,2.7297669875657276,5.987734828837724,0.9465177066704226
5.987623805568913,2.765689619241727,5.997200005904428,0.9371011715024959
6.015280701761331,2.7959488680539257,6.006571017619454,0.9337569153216314
6.04324019044187,2.8203108737438787,6.01590858677267,0.9368405109196722
6.071443299179309,2.838591015869889,6.025276991881867,0.9466232948417516
6.099829209338008,2.850660050682045,6.034743224830285,0.963281437499237
6.128335809844828,2.856448077707716,6.044376039205277,0.9868886194131012
6.1569002906219055,2.8559459849157114,6.054244925399408,1.0174129175643196
6.185459750471063,2.849204253873537,6.064419054575051,1.0547181461222133
6.213951793009798,2.836329259857823,6.074966236036273,1.0985694996154909
6.242315085608376,2.8174774370014335,6.085951931032428,1.1486429732861583
6.27048985997839,2.7928478596132797,6.097438360765289,1.2045377393833612
6.298418338574523,2.7626738938642954,6.109483738159123,1.2657904771199437
6.326045077513166,2.7272145913519457,6.122141642930322,1.3318906017778123
6.353317223426686,2.6867464359643387,6.1354605489481004,1.4022954048734697
6.380184687786329,2.6415559382818032,6.149483502996835,1.4764442739481083
6.406600247169147,2.591933423538425,6.164247945736316,1.5537713697158624
6.432519581404532,2.5381682054469827,6.179785659433475,1.6337163622364559
6.457901263459002,2.480545199318265,6.196122823055839,1.715733035678761
6.482706715452185,2.419342916760545,6.213280153412627,1.7992957428926841
6.506900144619791,2.3548327061482457,6.2312731108415536,1.883903817166659
6.530448471681273,2.287279057175175,6.25011214901322,1.969084129089673
6.553321262253025,2.216940769260734,6.269802990304117,2.0543920174342243
6.575490669945633,2.1440727854388344,6.290346910478459,2.1394108337486544
6.596931397800021,2.068928508303928,6.311741018815946,2.22375033107603
6.61762068288306,1.9917624359258375,6.333978522126706,2.30704410737122
6.637538307242318,1.912832977834971,6.357048963200419,2.388946291706704
6.656666637020668,1.8324053299664511,6.380938426117486,2.469127642399003
6.674990690320333,1.7507542997822416,6.405629702541476,2.5472712152147556
6.692498233318155,1.6681669766594043,6.4311024146936235,2.623067759809753
6.709179903084749,1.58494513697025,6.457333092291721,2.696211015191396
6.725029354454452,1.5014072579525393,6.484295202443635,2.7663931006736
6.740043427033977,1.4178899904332316,6.511959133450371,2.83330023644949
6.75422232693831,1.3347489100935177,6.540292135814866,2.896609074601101
6.767569816039245,1.2523583344551419,6.569258226560877,2.9559839716829375
6.780093399383796,1.1711099646315928,6.5988180662777065,3.011075579424755
6.791804499030112,1.0914100961954858,6.628928822071954,3.061521158507367
6.802718599992067,1.0136751537191189,6.659544033657028,3.10694701628588
6.812855351529258,0.9383253514654065,6.690613503819886,3.1469734151488824
6.822238605043912,0.8657763803225135,6.722083237971375,3.1812221770298756
6.830896368847138,0.7964291759968682,6.753895459741673,3.2093270100087863
6.838860660607106,0.7306580343645932,6.785988729841761,3.230946305211256
6.846167240950752,0.668797591826851,6.818298192893874,3.245777814637958
6.85285521686902,0.611129450206846,6.850755971040253,3.2535742636154947
6.858966511371089,0.5578694506126521,6.883291713676408,3.254158636700916
6.864545205877215,0.5091567339802119,6.915833300043417,3.2474376764444037
6.869636773217017,0.46504571760079294,6.948307676807861,3.2334121185294222
6.874287230393025,0.4255019375661377,6.980641797993155,3.21218239564086
6.878542249768687,0.39040236228962794,7.012763621949564,3.183948971208524
6.882446273391583,0.359540317892948,7.044603111661649,3.1490070545704527
6.886041676570512,0.3326346610375324,7.076093182207353,3.1077360984781097
6.889368023180888,0.30934238112520784,7.107170543192135,3.0605850668383403
6.892461446992139,0.2892734927215776,7.137776393860518,3.0080548782555194
6.895354181919355,0.2720069387559369,7.167856942643073,2.950679615499964
6.898074251306915,0.25710627073614684,7.197363738798073,2.889008035290295
6.900645314014277,0.2441340700069429,7.226253819150975,2.82358666098569
6.903086654714346,0.23266436566790985,7.2544896857608325,2.754945369147544
6.905413298371025,0.22229262603127048,7.282039139452308,2.683585972971062
6.907636224631338,0.2126431972685761,7.308874999182018,2.609973931394028
6.909762656604023,0.20337429985029884,7.3349747384959585,2.534533017359666
6.911796399602526,0.19418085561137108,7.360320068669555,2.457642580542451
6.91373820815864,0.18479550752945303,7.3848964944749795,2.379636935490697
6.915586163233934,0.17498822287001226,7.408692863829886,2.3008063787898405
6.917336045462634,0.16456485501930634,7.431700927617785,2.2213993662089058
6.918981694012827,0.15336499682673532,7.453914921279874,2.141625440993439
6.920515343981094,0.1412594026308305,7.475331175689808,2.0616585794637814
6.921927938007403,0.12814719761901477,7.495947761484446,1.9816406968781435
6.923209409983593,0.11395303836013883,7.515764168453228,1.9016851270029256
6.924348940367194,0.09862434080513029,7.534781019723257,1.8218799488236983
6.925335183775245,0.08212865312484169,7.552999819211494,1.7422910819714754
6.926156470306494,0.0644512203724039,7.570422730031209,1.6629651091478324
6.926800982510218,0.04559276524927697,7.587052381122687,1.5839318104832736
6.927256910162711,0.025567492995877204,7.60289169922752,1.505206413114971
6.92751258509267,0.004401317326955059,7.61794376335867,1.4267915711082777
6.92755659826594,-0.01786970281014287,7.632211679069753,1.3486790977877106
6.927377901237839,-0.041200730089111216,7.6456984700476305,1.270851475948699
6.926965893936948,-0.06553933582664959,7.658406984807118,1.1932831723797932
6.926310500578681,-0.09082652441397752,7.670339816530916,1.1159417824712248
6.925402235334541,-0.11699761214118468,7.681499234355628,1.038789029037911
6.924232259213129,-0.14398297655896852,7.691887124646007,0.9617816372854946
6.922792429447539,-0.17170869136032968,7.701504941018862,0.8848721054024885
6.9210753425339355,-0.20009706045731163,7.710353662072887,0.8080093877727578
6.919074371929362,-0.2290670635933395,7.718433755950614,0.7311395053980198
6.916783701293428,-0.25853472454561466,7.7257451510045945,0.6542060958739155
6.914198354047972,-0.28841341177943336,7.7322872119633335,0.5771509132128024
6.911314219930178,-0.31861408034131217,7.738058721095461,0.49991428596440013
6.908128079126765,-0.3490454628304249,7.743057863955105,0.4224355404487434
6.904637624498461,-0.3796142164689373,7.747282219359593,0.3446533944720621
6.900841482333772,-0.4102250325965338,7.750728753304314,0.26650632562768894
6.896739232007807,-0.4407807143346171,7.753393816560591,0.18793291717128163
6.8923314248644605,-0.4711822276914536,7.755273145732303,0.10887218348288084
6.887619602587546,-0.501328731000397,7.756361867567132,0.02926387626917952
6.882606315277542,-0.5311175872886668,7.756654506329824,-0.050951228098466084
6.877295139404655,-0.5604443639538436,7.756144994048839,-0.13183106038497028
6.871690695765117,-0.5892028239697673,7.754826683444989,-0.21343201029931808
6.865798667525419,-0.6172849127442775,7.752692363341996,-0.29580869970073626
6.859625818397976,-0.6445807447006545,7.749734276344989,-0.37901377905244155
6.85318001095097,-0.6709785936463983,7.7459441385544645,-0.4630977493639201
6.846470225014506,-0.6963648910223732,7.741313161060825,-0.5481088121842487
6.839506576104282,-0.7206242361895178,7.735832072938982,-0.6340927504514938
6.832300333742387,-0.7436394230089548,7.7294911454344675,-0.7210928431527314
6.824863939512297,-0.7652914871073094,7.7222802170029405,-0.8091498167858173
6.817211024641224,-0.7854597783994766,7.714188718835082,-0.8983018365109434
6.809356426857229,-0.8040220636786084,7.705205700469973,-0.9885845396022734
6.801316206220442,-0.8208546643975945,7.69531985507395,-1.0800311133127483
6.793107659576466,-0.8358326351870821,7.684519543940822,-1.172672418491482
6.784749333224595,-0.8488299892236836,7.672792819755907,-1.2665371591709356
6.776261033332358,-0.8597199773357747,7.660127448164197,-1.3616520967790648
6.767663833559,-0.8683754287908646,7.646510927196407,-1.45804230551449
6.758980079271091,-0.8746691631515138,7.631930504141262,-1.5557314626039915
6.750233387639576,-0.878474484552761,7.616373189515222,-1.6547421634551314
6.741448642794048,-0.879665772421219,7.59982576788067,-1.7550962468852698
6.732651985069836,-0.8781191862547383,7.582274805411817,-1.856815109349145
6.723870793207289,-0.8737135069067817,7.563706654318326,-1.959919979014947
6.715133658138221,-0.8663311432452478,7.544107454528176,-2.064432110163637
6.7064703467057685,-0.8558593415496719,7.52346313342654,-2.1703728450897275
6.697911753290271,-0.8421916461511356,7.501759404975642,-2.2777634736910275
6.68948983682876,-0.8252296743038445,7.478981770238732,-2.3866247992994967
6.681237540085721,-0.8048852869249934,7.455115522245737,-2.4969762918848297
6.673188687216472,-0.7810832605675322,7.430145759326888,-2.608834675239652
6.665377854610797,-0.7537645957484486,7.404057412574492,-2.722211751703926
6.657840208653313,-0.7228906333799737,7.376835295057453,-2.837111215038316
6.650611302319513,-0.6884481949842114,7.34846418290707,-2.953524138248023
6.643726820369671,-0.6504560131489295,7.3189289415245895,-3.071422748578457
6.637222260238182,-0.6089727740582584,7.288214714038805,-3.1907520188319562
6.631132532497599,-0.5641071484451593,7.2563071938504855,-3.311418518963476
6.625491461013147,-0.5160302300404338,7.223193008660851,-3.433275898088222
6.620331158712743,-0.46499081183346896,7.188860249679968,-3.5561063297016426
6.615681250594408,-0.4113338771861027,7.153299186382952,-3.679597295130854
6.611567911822547,-0.3555225132127521,7.116503213431644,-3.803313270751971
6.60801268669042,-0.2981630921280254,7.078470080724124,-3.9266623252308595
6.605031055769139,-0.24003291175542243,7.039203457471815,-4.048858461526891
6.602630726651585,-0.1821084236816853,6.998714872856546,-4.1688819153246595
6.6008096424147675,-0.125590610926677,6.9570260537032995,-4.285441685885338
6.5995537363055,-0.0719220062230248,6.914171636844446,-4.396947343199994
6.59883451624327,-0.022787493181176788,6.870202163412446,-4.501500343131505
6.598606641311458,0.019910967634517357,6.825187159981131,-4.596917868320114
6.598805750987803,0.05411603120604883,6.77921798129793,-4.680803042918517
6.599346911299864,0.07772076850240743,6.732409950868745,-4.750672057265004
6.600124118984888,0.0887189523691658,6.684903230296095,-4.804139222173218
6.601011308508579,0.08538801780270823,6.636861838074363,-4.839144923727363
6.601865188686606,0.06647833479096969,6.58847038883709,-4.854192217963482
6.602529972034516,0.031371246903981034,6.539928466657455,-4.848543066102738
6.602843684503555,-0.019832483546097394,6.4914430359964275,-4.822324337554442
6.602645359668094,-0.08631871912534511,6.443219792620883,-4.776511836549089
6.601782172476841,-0.16666088312978103,6.395454674255392,-4.712793212828187
6.600115563645543,-0.2589907183312619,6.34832674212711,-4.633344099824935
6.59752565646223,-0.3611984290737759,6.301993301128861,-4.540571406146313
6.593913672171492,-0.47112170985277496,6.256587587067398,-4.436876702632279
6.589202455072964,-0.5866953969148404,6.212218820041075,-4.324475535715726
6.583335501103816,-0.7060501999118045,6.168974064683918,-4.205285934955903
6.576274999104698,-0.8275630245015011,6.12692120533436,-4.080880903327615
6.567999368859684,-0.9498694255928827,6.0861123963010835,-3.952489548117168
6.558500674603755,-1.0718510056569657,6.0465875008199115,-3.82102910886614
6.5477821645471845,-1.192609148597965,6.0083772097312504,-3.6871525474102453
6.535856073061205,-1.3114335104441017,5.971505684257148,-3.551300645771297
6.522741737956764,-1.4277706292146868,5.935992677799435,-3.4137517846537797
6.508464031664617,-1.5411955557164365,5.9018551599528974,-3.2746658824885784
6.493052076107452,-1.6513877069140284,5.869108501128012,-3.1341212001282575
6.476538199038312,-1.7581111056093663,5.837767289126729,-2.9921440318687837
6.458957087982218,-1.8611986151350746,5.807845848808041,-2.84873197431139
6.440345101830867,-1.960539535373124,5.779358529064927,-2.703871730742338
6.420739706477136,-2.056069866815377,5.752319811757504,-2.5575524479275953
6.4001790078089815,-2.1477645851676725,5.726744287278228,-2.4097755108654115
6.3787013619573045,-2.2356313463828927,5.702646532169574,-2.2605616083052134
6.356345048493476,-2.3197051304653034,5.680040916086521,-2.10995576506829
6.333147997188823,-2.4000434160969126,5.658941358435839,-1.9580309340678046
6.309147563027854,-2.476721549969545,5.639361049095161,-1.8048906578056454
6.284380347528159,-2.5498280324136844,5.621312142517104,-1.650671246343161
6.258882067204022,-2.6194594849119843,5.6048054300536725,-1.4955438735395565
6.232687472354902,-2.6857150973282686,5.589849991318277,-1.3397169613546043
6.20583032138162,-2.7486903762647805,5.5764528217047316,-1.1834391977347014
6.178343417618972,-2.8084700351913217,5.564618429727385,-1.0270035102720534
6.150258717267059,-2.86511988782599,5.554348394624664,-0.8707522867462231
6.1216075183887995,-2.918677636977639,5.545640871757201,-0.7150840832030545
6.092420742019023,-2.9691425031462932,5.53849003092517,-0.5604619746586409
6.06272931698756,-3.0164637260448526,5.532885411178584,-0.4074235618726949
6.032564679727111,-3.060528117578472,5.528811175559857,-0.2565924232978683
6.001959398551326,-3.1011470698309473,5.526245251326878,-0.10869046334230983
5.970947927853017,-3.138043749394495,5.525158346693455,0.035449873843448304
5.939567490359073,-3.170841655278896,5.525512845431889,0.1748752002980964
5.907859073806284,-3.1990562748580227,5.52726159743487,0.30850505860788036
5.875868511057703,-3.222092189761344,5.530346648020949,0.43513340902247444
5.84364758916009,-3.2392485379144564,5.534697982111173,0.553441822150538
5.811255103780946,-3.2497360091064933,5.540232400332679,0.6620288064010714
