th1 (rad),w1 (rad/s),th2 (rad),w2 (rad/s)
4.261267217669593,1.753806475919694,1.7061467480274854,-1.4427047798458599
4.27880528242879,1.8289613807454113,1.691719700229027,-1.4601896066203899
4.297094896236244,1.9063973712577242,1.677117804162823,-1.4740282277369692
4.316158869948821,1.9862881581727614,1.6623775218854533,-1.4840990071007998
4.336021751530549,2.0687850931975142,1.6475365318144453,-1.490322207702041
4.356709602462524,2.154005516431124,1.6326333097374248,-1.4926772275050089
4.378249657626835,2.2420189090556826,1.6177065374623747,-1.4912232327584098
4.400669846717392,2.332831046370862,1.6027943051347906,-1.4861229513396783
4.4239981571811,2.42636667665881,1.5879330756213939,-1.4776689042335978
4.448261823947688,2.522451688318333,1.5731563865790579,-1.4663107051510014
4.473486340830871,2.620796251252907,1.558493279527548,-1.4526812726429603
4.4996943033434,2.720980973718341,1.5439664668011184,-1.437618954053259
4.526904113080583,2.822448604230327,1.5295902772605858,-1.4221818009008347
4.555128599122886,2.9245040885553455,1.5153684592515775,-1.4076497725462191
4.584373640008439,3.026325698223424,1.5012919615261153,-1.395510733965724
4.614636896990674,3.1269893276522347,1.487336854186458,-1.3874269947225315
4.645906790267196,3.2255068319552858,1.4734625842392326,-1.385180949337648
4.678161858586749,3.320877499999886,1.4596107747458562,-1.390601066582923
4.711370633586747,3.4121496527926403,1.445704764080027,-1.405472714780464
4.745492130114673,3.4984873130866334,1.4316500369322223,-1.4314415215921035
4.780477003245539,3.5792353820061984,1.4173356217163011,-1.4699194171552088
4.816269357065601,3.653976214535334,1.402636427544749,-1.5220045072792092
4.852809119210955,3.7225711576471134,1.3874163824719568,-1.588425042209413
4.8900348307874255,3.7851824715043034,1.3715321320498626,-1.6695149930973758
4.927886655502468,3.8422737698436613,1.3548369821188888,-1.765224603521744
4.966309393200905,3.894590151326788,1.3371847360836713,-1.8751645887797423
5.005255294714172,3.943121945138083,1.3184330901958738,-1.998678383448064
5.044686514165553,3.9890579553676564,1.2984463063613931,-2.1349338243755893
5.08457709371923,4.033734976054341,1.2770969681176372,-2.2830243912582064
5.124914443479773,4.078590150594444,1.2542667242050551,-2.44207066175685
5.1657003449857175,4.1251216942637905,1.2298460175874866,-2.6113146329689845
5.2069515619283555,4.174861963553647,1.2037328712577968,-2.790202436587283
5.248700181563892,4.229365250791208,1.175830846891924,-2.9784541049481916
5.290993834071805,4.290211352177983,1.1460463058424422,-3.176121922522672
5.333895947593585,4.35902512661201,1.1142850866172154,-3.383641230827787
5.377486198859705,4.437512027957642,1.0804486743089374,-3.6018792838578046
5.421861319139281,4.527509950366841,1.0444298814703594,-3.832188999867497
5.46713641864295,4.6310586089721,1.0061079914716844,-4.076475451598494
5.5134470047326705,4.750488984824486,0.9653432369556995,-4.337283917633729
5.560951894580915,4.888536935129384,0.9219703977793622,-4.61791940784824
5.609837263932209,5.048486573163755,0.8757912037008798,-4.922608577818169
5.660322129663847,5.234349600295094,0.8265651179226982,-5.256714852743255
5.712665625666798,5.451084155551809,0.7739979693952657,-5.627013352992797
5.767176467222316,5.704844995104897,0.7177278358653377,-6.042015668455522
5.824224917173365,6.003220594377541,0.6573076791807825,-6.512284395079401
5.88425712311714,6.355313000078074,0.5921848352299884,-7.050539211559617
5.947810253117921,6.771255417246586,0.5216794431143923,-7.67099395729986
6.015522807290386,7.260110679675747,0.4449695035413937,-8.38645574036804
6.088123914087144,7.823595192070405,0.36110494613771327,-9.199622180235616
6.1663598660078485,8.440341041802919,0.2691087243353571,-10.08118090289888
6.250763276425878,9.03418103126229,0.16829691530636828,-10.925560359933083
6.341105086738501,9.438011513344618,0.05904131170703744,-11.500420534789942
6.435485201871947,9.434930620792949,-0.05596289364086199,-11.504121348188564
6.529834508079876,8.966158381441296,-0.17100410712274763,-10.8559431130775
6.619496091894289,8.24554050242605,-0.27956353825352265,-9.85450703704291
6.70195149691855,7.519493990750244,-0.3781086086239518,-8.842062912758063
6.777146436826053,6.893109456758066,-0.46652923775153243,-7.9636964165454165
6.846077531393633,6.3779787575224365,-0.5461662019169866,-7.235014183554044
6.909857318968857,5.95713829975263,-0.6185163437525271,-6.632437791766867
6.969428701966383,5.610685303838068,-0.6848407216701957,-6.128561106987114
7.0255355550047645,5.322091969768882,-0.7461263327400669,-5.700777114989412
7.078756474702454,5.078734357449062,-0.803134103889961,-5.331956806573697
7.129543818276944,4.871143600808645,-0.856453671955698,-5.009400174987609
7.17825525428503,4.692179159368185,-0.9065476737055741,-4.7237006779832305
7.225177045878712,4.5363722166299105,-0.9537846804854064,-4.4678560747977585
7.270540768045011,4.399446221612727,-0.998463241233384,-4.236630020109299
7.314535230261138,4.2779744769410435,-1.040829541434477,-4.026105822881446
7.357314975030548,4.169135743336879,-1.0810905996632916,-3.833375762877046
7.399006332463917,4.070538861706769,-1.1194243572920621,-3.656322808401545
7.439711721080984,3.980096803358871,-1.1559875853760775,-3.4934636289054852
7.479512689114573,3.895937668142879,-1.1909222216651323,-3.343830411072586
7.518472065796002,3.8163451448889547,-1.224360525775858,-3.206874754619973
7.556635517244891,3.739724246476645,-1.256429273322058,-3.0823808873060954
7.594032759709658,3.664590002616618,-1.287253082195119,-2.9703785889337726
7.630678659735825,3.589577339136384,-1.3169568680844566,-2.8710493834868664
7.666574433127188,3.51346963292655,-1.3456673619193251,-2.7846233423959554
7.701709129456454,3.4352415452537395,-1.3735135953432847,-2.7112684595692422
7.736061544908991,3.354109110364257,-1.400626279938977,-2.65097968066803
7.769602636012634,3.2695774679246052,-1.4271360767456573,-2.6034793254725783
7.80229841069188,3.1814751509894963,-1.4531708700003831,-2.568143370207682
7.834113162201775,3.0899645381324676,-1.47885230370246,-2.543967385188325
7.8650128075831,2.995521512130381,-1.504291977554343,-2.5295811077959414
7.894968022704404,2.8988831604946386,-1.5295877886323024,-2.523312306766765
7.923956854309351,2.800969095132457,-1.55482091169997,-2.523290898595948
7.951966545260675,2.7027876514794373,-1.5800538206859296,-2.5275761918718507
7.97899442177547,2.6053410695706147,-1.605329582604648,-2.53428626185688
8.005047832471176,2.5095429910716227,-1.6306724452232169,-2.5417098696462466
8.030143262381891,2.416157769631682,-1.6560895439196792,-2.548387174165471
8.054304840078208,2.3257657015782423,-1.681573415661334,-2.5531534747592297
8.077562497093991,2.2387530891161482,-1.7071049504089264,-2.5551478016218327
8.099950027985154,2.1553223352859394,-1.7326564284251447,-2.5537934947430427
8.121503251338012,2.0755155315111073,-1.7581943633725752,-2.5487603151914007
8.142258406653124,1.9992450149553116,-1.7836819665244892,-2.53991748729845
8.162250856802677,1.9263255325937185,-1.8090811413974737,-2.5272852998410333
8.181514112128614,1.8565042846165052,-1.834353994395884,-2.5109904795694566
8.200079154974778,1.7894867224708821,-1.8594638991915786,-2.4912282247454365
8.217974022199487,1.7249572634210881,-1.884376181439033,-2.4682319464580935
8.235223594833698,1.662594964714603,-1.9090585009036138,-2.4422505260136846
8.251849544480844,1.602084709590309,-1.9334810061637506,-2.4135321980087863
8.267870391576748,1.5431246824575082,-1.9576163281438386,-2.382313876496548
8.283301638401323,1.485430948017782,-1.981439466908804,-2.348814713438874
8.2981559478815,1.4287398799686297,-2.0049276140431926,-2.3132327967492397
8.312443346681187,1.3728090674434164,-2.028059942010685,-2.2757440764911765
8.32617143735562,1.3174171982895586,-2.0508173827755964,-2.2365028005566097
8.339345609338515,1.2623632979396935,-2.0731824107811625,-2.195642917621091
8.351969242317912,1.2074656001091155,-2.0951388399573734,-2.1532800534480896
8.364043898319004,1.1525602432446163,-2.1166716404918544,-2.1095137841960616
8.37556950075145,1.097499923357185,-2.1377667783338152,-2.0644300196656618
8.386544499985021,1.0421525868219705,-2.158411078530472,-2.018103374850674
8.39696602585324,0.9864002127415242,-2.1785921122789786,-1.9705994545939514
8.406830027980655,0.930137710549402,-2.198298106824918,-1.9219770080870495
8.41613140508615,0.8732719421309427,-2.2175178769057884,-1.8722899311717045
8.42486412450746,0.8157208668131168,-2.2362407762175054,-1.8215891079181301
8.43302133317559,0.7574128005565604,-2.2544566672966866,-1.7699240910835685
8.440595461181156,0.6982857764036269,-2.2721559082075222,-1.7173446255221425
8.447578318945192,0.6382869908520606,-2.2893293544627435,-1.663902020686042
8.453961188853713,0.5773723197376717,-2.305968374669604,-1.6096503789344858
8.45973491205109,0.5155058870081641,-2.322064878458949,-1.5546476860907026
8.464889970921172,0.45265967017405423,-2.3376113553198556,-1.498956770002803
8.469416567622913,0.3888131270450191,-2.352600923019884,-1.4426461320738526
8.473304698893363,0.32395282947837056,-2.367027384340622,-1.3857906560282431
8.476544227188148,0.2580720911997325,-2.380885290900905,-1.3284721976988714
8.479124948100145,0.19117057824935407,-2.3941700128778938,-1.2707800594206993
8.481036653882638,0.12325389222056056,-2.406877813472101,-1.2128113527282478
8.482269192804845,0.05433311815672466,-2.4190059269993833,-1.1546712534744186
8.482812523986413,-0.015575669270275705,-2.4305526395341275,-1.096473154190365
8.48265676729371,-0.08645194589368731,-2.441517371076031,-1.0383387194494609
8.481792247834774,-0.15827132731129046,-2.4519007582705257,-0.9803978511303686
8.480209534561661,-0.2310062083389052,-2.4617047367818294,-0.9227885717358703
8.477899472478272,-0.3046264520460608,-2.470932622499188,-0.865656835253777
8.474853207957812,-0.37910012617590494,-2.479589190851726,-0.809156276382398
8.471062206696054,-0.45439428328621273,-2.4876807536155496,-0.7534479102269035
8.466518263863192,-0.5304757796267361,-2.4952152327178188,-0.6986997957498752
8.461213506066924,-0.6073121266084709,-2.5022022306753176,-0.6450866772800159
8.45514038480084,-0.6848723677360804,-2.508653097448118,-0.5927896192034737
8.448291661123479,-0.7631279730737847,-2.5145809936401524,-0.541995649543774
8.44066038139274,-0.8420537427001081,-2.5200009501355902,-0.49289742844484585
8.43223984396574,-0.9216287101749049,-2.5249299244200385,-0.44569295757684785
8.42302355686399,-1.001837036783979,-2.529386853995807,-0.40058534615939306
8.41300518649615,-1.0826688872267751,-2.533392707457401,-0.3577826486169182
8.402178497623883,-1.164121277448113,-2.5369705339435704,-0.3174977878241288
8.390537284849401,-1.2461988854546602,-2.540145511821812,-0.27994857644535687
8.378075295994854,-1.3289148161604158,-2.5429449975862655,-0.24535784700150914
8.36478614783325,-1.4122913115225506,-2.5453985760562805,-0.2139536989941831
8.350663234718025,-1.4963603973985293,-2.5475381130462225,-0.18596986866046955
8.33569963074404,-1.5811644586059197,-2.549397811732827,-0.1616462237041674
8.319887986157982,-1.6667567335161095,-2.551014273969869,-0.1412293816258476
8.30322041882282,-1.7532017190721807,-2.5524265677861275,-0.12497344602503649
8.285688401632099,-1.8405754762930997,-2.553676302246378,-0.11314085043289866
8.267282646869168,-1.9289658250119393,-2.554807710750707,-0.10600329380148193
8.247992988619048,-2.018472414697268,-2.555867743688722,-0.10384274566093249
8.227808264472076,-2.109206655633439,-2.5569061711453314,-0.1069524920816435
8.20671619791574,-2.2012914914107222,-2.5579756960661477,-0.11563818585784547
8.184703283001634,-2.2948609895467555,-2.559132077924726,-0.1302188556757368
8.161754673106167,-2.390059722107894,-2.5604342664814834,-0.15102781936906445
8.137854075885087,-2.48704190245335,-2.561944544675174,-0.17841343565833512
8.112983656860553,-2.585970237784776,-2.5637286790317573,-0.21273961704057115
8.087123954482706,-2.687014450238105,-2.565856075202163,-0.25438601387212667
8.060253809980326,-2.7903494121103063,-2.568399935340884,-0.30374776644888885
8.032350315859222,-2.896152833928738,-2.571437413005373,-0.36123470853278683
8.003388787519935,-3.004602438087405,-2.575049760090701,-0.42726989308301166
7.973342763139061,-3.115872546553486,-2.579322459021531,-0.5022873000671773
7.942184037673526,-3.230130009794721,-2.5843453320222025,-0.5867285787254305
7.909882737575579,-3.347529406953981,-2.5902126178094567,-0.6810386745967935
7.876407443506039,-3.468207455995674,-2.5970230045554246,-0.7856601975469574
7.841725368946083,-3.592276588828513,-2.6048796065308943,-0.9010264039590797
7.805802603057797,-3.7198176720568017,-2.613889870570485,-1.0275526974483613
7.768604426337229,-3.850871890613879,-2.6241653975449686,-1.1656266012063576
7.730095707431091,-3.9854318601405674,-2.635821663557032,-1.3155962241446009
7.690241388829685,-4.123432094671074,-2.648977625798478,-1.4777573339834258
7.649007067882975,-4.264739027567862,-2.663755199138312,-1.652339262867929
7.606359677607296,-4.409140862256707,-2.6802785917669913,-1.8394900015013629
7.562268268984729,-4.556337609208667,-2.6986734917820048,-2.039260978686447
7.516704892892642,-4.705931738144606,-2.719066101568869,-2.2515921623889184
7.469645575511196,-4.857419928467755,-2.741582023192758,-2.476298239014258
7.421071376226518,-5.010186423708898,-2.7663450055829006,-2.713056708556495
7.370969511989429,-5.163498474545199,-2.7934755726684655,-2.961398751716352
7.319334527243977,-5.3165042793334765,-2.823089560185629,-3.220703659470235
7.266169484450642,-5.4682336959000155,-2.8552965967803314,-3.49019745023765
7.211487147491642,-5.617601806432274,-2.890198571282708,-3.7689560298770566
7.155311129427319,-5.763415181803487,-2.9278881315814784,-4.0559128855490645
7.097676977609284,-5.90438043646961,-2.968447260436969,-4.349870874066556
7.038633173244588,-6.03911442361261,-3.011945969177635,-4.649517214095379
6.978242029008462,-6.1661552317423025,-3.0584411413185886,-4.953440378291628
6.916580476691039,-6.2839730483548415,-3.107975545101505,-5.260147271256807
6.853740746207491,-6.390979987895887,-3.160577017814073,-5.568078934352836
6.789830946328531,-6.485538163795658,-3.2162578071576013,-5.875623089371452
6.724975564690575,-6.565965626824057,-3.275014038051316,-6.181122151277324
6.659315908422334,-6.630540287372493,-3.336825259564089,-6.4828759143694406
6.593010505548609,-6.677502563979988,-3.4016540187077835,-6.7791389310860195
6.5262354799088085,-6.705058214145195,-3.4694454080186437,-7.06811361977474
6.459184897767357,-6.711383546759434,-3.540126544216391,-7.347941294160162
6.392071062299762,-6.6946359044503145,-3.6136059571579926,-7.616694510910026
6.325124703255259,-6.6529728225891755,-3.6897729022670926,-7.872375252056779
6.258594975029367,-6.584583464655163,-3.7684966547876604,-8.112924315629698
6.192749140382816,-6.4877356087624625,-3.8496258979439575,-8.336247644329951
6.127871784295191,-6.36084040789779,-3.932988374387257,-8.540264897431559
6.064263380216214,-6.202535188948278,-4.0183910233615725,-8.722984082936156
6.0022380283267305,-6.011781629690098,-4.105620864190934,-8.88260331791212
5.942120212029829,-5.787972917226503,-4.194446897370055,-9.01763678887783
5.884240482857564,-5.531039425248707,-4.284623265258833,-9.127057103941254
5.828930088605077,-5.241538883169699,-4.375893836298246,-9.210441263210948
5.776514699773379,-4.92071503110977,-4.467998248930356,-9.2681036139133
5.727307549462282,-4.570509421265811,-4.560679285069489,-9.301197741737328
5.681602455249624,-4.1935149671481415,-4.653691262486863,-9.311771343191161
5.6396673055781426,-3.7928668543158444,-4.746808975918774,-9.302764025906013
5.601738637034984,-3.3720752925769326,-4.839836616177834,-9.277946913928252
5.5680178841092145,-2.934813286226191,-4.932616085317116,-9.241813094165192
5.538669751246952,-2.484678891462732,-5.025034216258768,-9.199437022642234
5.513822962332325,-2.0249536400306574,-5.1170285864851905,-9.1563269889739
5.493573425932019,-1.5583764004300205,-5.208591856374929,-9.118296581201339
5.477989661927719,-1.0869456659646373,-5.299774822186943,-9.091379068660608
5.467120205268072,-0.6117547717271419,-5.390688612873549,-9.081804072450629
5.461002657550801,-0.13285583717826888,-5.481506653598055,-9.096050610241642
5.4596740991790185,0.35085888770726353,-5.572467159700472,-9.140986014556972
5.463182688056091,0.8417735359132554,-5.6638770198460415,-9.224096538191361
5.471600423415223,1.3436768581125595,-5.756117985227955,-9.353810444211064
5.485037191996349,1.8619042989183971,-5.849656089670066,-9.539900708850995
5.503656234985533,2.4034606726132655,-5.945055096758575,-9.793912890644293
5.5276908417116655,2.976996470937493,-6.042994225665018,-10.129445342471193
5.55746080642104,3.592271072168212,-6.144288679089731,-10.561791465051783
5.593383517142722,4.258141806858515,-6.249906593740248,-11.105645201996147
5.635964935211307,4.976744792783564,-6.36096304576021,-11.767671017965764
5.685732383139142,5.728942561979644,-6.478639755939867,-12.52709842102984
5.743021808758939,6.444340771130163,-6.603910740150166,-13.294846958127305
5.8074652164702405,6.9633820316350326,-6.736859209731439,-13.860948546609794
5.877099036786591,7.063196704940729,-6.8754686951975374,-13.928477472857258
5.947731003835998,6.651077376640906,-7.01475346992611,-13.376416715338033
6.0142417776024075,5.916693221575264,-7.1485176370794905,-12.462748561511026
6.07340870981816,5.122525747961547,-7.273145122694601,-11.534449154941246
6.124633967297775,4.397034667993505,-7.388489614244013,-10.752276236022407
6.168604313977711,3.7638881793559165,-7.496012376604237,-10.137843379308691
6.20624319577127,3.2106226653547996,-7.597390810397324,-9.668088907378355
6.238349422424818,2.718730611797183,-7.694071699471108,-9.31485975018345
6.26553672854279,2.2719238034416716,-7.787220296972943,-9.054894995070976
6.288255966577206,1.857393891625012,-7.877769246923653,-8.87073180972492
6.306829905493457,1.4653591532123555,-7.966476565020902,-8.749586653851837
6.32148349702558,1.088387579507336,-8.053972431559421,-8.682094356781318
6.332367372820654,0.720846463625872,-8.140793375127235,-8.661291021639896
6.339575837456913,0.3585235099377001,-8.227406285343633,-8.681849232738086
6.343161072556289,-0.001604935511245964,-8.314224777671015,-8.739501109027412
6.343145023201177,-0.3614908186309609,-8.40161978876129,-8.830587034652307
6.339530115014867,-0.722043841553246,-8.489925659107813,-8.95168461404543
6.332309676599334,-1.0830961996679398,-8.579442505248267,-9.099289233256327
6.321478714602655,-1.4433241448371577,-8.67043539758083,-9.26953251248045
6.307045473154283,-1.800150515901059,-8.763130722705634,-9.457938534140554
6.289043967995273,-2.1496580197863873,-8.85771010804704,-9.659230525459844
6.267547387797409,-2.4865500748661846,-8.954302413301638,-9.867212055718937
6.242681887048747,-2.804201561903347,-9.052974533858828,-10.074754668175713
6.214639871429713,-3.094841769066029,-9.153722080540586,-10.273924750622706
6.183691453739053,-3.34990165087469,-9.256461328046813,-10.456272600217934
6.150192437230306,-3.5605342322900104,-9.361024054048992,-10.613284118215436
6.114587094907406,-3.7182817045435796,-9.467156895231145,-10.736962850721996
6.07740427786197,-3.815822612678481,-9.574526523738365,-10.820475407325025
6.039246051735185,-3.8476996858414614,-9.682731277811616,-10.8587686847428
6.000769054876771,-3.8109157883970513,-9.791318964659045,-10.849063092039195
5.9626598969928,-3.705298673522032,-9.899809595579436,-10.791144639578143
5.92560691025758,-3.5335717409347422,-10.007721041975218,-10.687413535126266
5.890271192848232,-3.301117487977879,-10.11459517732648,-10.542686528656558
5.857260017968453,-3.0154705950979324,-10.220022042613046,-10.363785731301649
5.827105312017474,-2.6856187251628207,-10.323659899926062,-10.1589741725575
5.800249124765846,-2.321214301096196,-10.425249641651638,-9.937316548329246
5.7770369817548834,-1.9318054914403644,-10.52462280713493,-9.708050171328168
