th1 (rad),w1 (rad/s),th2 (rad),w2 (rad/s),a1 (rad/s^2),a2 (rad/s^2)
4.455522041361559,1.451429955154565,0.35072606033451126,-3.1001636448954244,14.299276278758006,3.0666633586155254
4.470036340913104,1.594422717942145,0.319724423885557,-3.069497011309269,14.10951708091333,2.28833711734898
4.4859805680925255,1.7355178887512783,0.2890294537724643,-3.0466136401357793,13.948002479473379,1.4612842464796603
4.503335746980039,1.8749979135460122,0.2585633173711065,-3.0320007976709826,13.821841759293305,0.5863540143876623
4.522085726115499,2.013216331138945,0.22824330939439666,-3.026137257527106,13.738119282501339,-0.3369744614195518
4.5422178894268885,2.1505975239639583,0.1979819368191256,-3.0295070021413015,13.70405036737695,-1.3107438426126274
4.563723864666528,2.287638027637728,0.16768686679771258,-3.042614440567428,13.72717510486095,-2.3386883228825357
4.586600244942906,2.4249097786863376,0.1372607223920383,-3.0660013237962533,13.815591683873393,-3.4264357088384485
4.610849342729769,2.5630656955250717,0.10660070915407575,-3.100265680884638,13.978233137257748,-4.5817567051912365
4.63647999968502,2.7028480268976494,0.07559805234522937,-3.1460832479365504,14.22519360479767,-5.814876773986
4.663508479953996,2.845099962945626,0.044137219865863865,-3.2042320156764106,14.56811173145143,-7.138865680652195
4.691959479583452,2.9907810802601404,0.012094899709099757,-3.2756206724829324,15.020618668989332,-8.570117470843941
4.7218672903860535,3.1409872669500336,-0.020661307015729567,-3.361321847191372,15.598854263818614,-10.128926235017037
4.753277163055554,3.29697580958822,-0.05427452548764329,-3.4626111095415424,16.322043177483422,-11.840144639871985
4.786246921151436,3.460196241363054,-0.08890063658305872,-3.581012555940262,17.213094340413694,-13.73387073613827
4.820848883565067,3.632327184767191,-0.12471076214246134,-3.7183512633016447,18.29912498273207,-15.846019595274544
4.857172155412739,3.8153184345945115,-0.1618942747754778,-3.87681145925439,19.611679653516326,-18.218450815582997
4.895325339758684,4.011435231129675,-0.2006623893680217,-4.05899596741022,21.186145201341944,-20.897942556945317
4.935439692069981,4.2232966831430945,-0.2412523490421239,-4.267975392979673,23.05931590981611,-23.932532563250973
4.977672658901412,4.453889842241256,-0.2839321029719206,-4.507300718612182,25.262970646801747,-27.36220975538958
5.022211557323824,4.706519548709273,-0.32900511015804246,-4.780922816166078,27.809197393022856,-31.197949801470195
5.069276752810917,4.984611522639502,-0.37681433831970323,-5.09290231418078,30.65927218753391,-35.37756535306081
5.119122868037312,5.291204244514841,-0.42774336146151104,-5.446677967711388,33.66146260217435,-39.677791689900126
5.172034910482461,5.627818870536585,-0.4822101411386249,-5.843455884610389,36.43573695364826,-43.55163756942448
5.228313099187827,5.992176240073067,-0.5406446999847289,-6.278972260304633,38.18734860716658,-45.86563866065464
5.288234861588558,6.374049726144733,-0.6034344225877752,-6.73762864691118,37.49227441397669,-44.597492341995846
5.351975358850005,6.7489724702844995,-0.670810709056887,-7.1836035703311385,32.31546290232519,-36.86137161422701
5.419465083552851,7.072127099307751,-0.7426467447601984,-7.552217286473408,20.90280028064943,-20.16333397020236
5.490186354545928,7.281155102114246,-0.8181689176249325,-7.753850626175432,3.9640714645119757,4.524409407956005
5.56299790556707,7.320795816759365,-0.8957074238866868,-7.708606532095872,-13.777247865990137,30.57455966725701
5.636205863734664,7.183023338099464,-0.9727934892076455,-7.402860935423302,-26.346613300617694,49.574651975848134
5.7080360971156585,6.919557205093287,-1.0468220985618786,-6.907114415664821,-31.459679301497495,58.265488353498064
5.777231669166591,6.604960412078312,-1.1158932427185269,-6.32445953212984,-30.955365833633124,59.16642155420294
5.843281273287374,6.295406753741981,-1.1791378380398252,-5.7327953165878105,-27.663816043247635,56.20210647701029
5.906235340824794,6.018768593309504,-1.2364657912057033,-5.170774251817708,-23.50726690370633,52.04485755261251
5.966423026757889,5.783695924272441,-1.2881735337238804,-4.650325676291582,-19.409045644676674,47.980552081718635
6.024259986000613,5.589605467825674,-1.3346767904867962,-4.170520155474396,-15.709942283022528,44.48422304501992
6.08015604067887,5.432506044995448,-1.37638199204154,-3.7256779250241965,-12.485813720685874,41.65992265467144
6.1344811011288245,5.307647907788589,-1.4136387712917822,-3.309078698477482,-9.711011916346315,39.46700096066393
6.18755758020671,5.2105377886251265,-1.446729558276557,-2.914408688870843,-7.330091241725696,37.81926647838733
6.2396629580929615,5.1372368762078695,-1.4758736451652654,-2.53621602408697,-5.286157850105407,36.624075247631765
6.29103532685504,5.084375297706815,-1.5012358054061352,-2.169975271610652,-3.5306287217533825,35.795704026364845
6.341879079832108,5.049069010489282,-1.5229355581222417,-1.8120182313470037,-2.025503813861672,35.25843810924073
6.392369769937001,5.028813972350665,-1.5410557404357117,-1.4594338502545963,-0.7428375789371026,34.94592283775443
6.442657909660507,5.021385596561294,-1.5556500789382577,-1.1099746218770519,0.336697825893245,34.7994623072945
6.492871765626121,5.024752574820226,-1.5667498251570282,-0.7619799988041069,1.2254394406774736,34.76631978356274
6.543119291374323,5.037006969227001,-1.5743696251450692,-0.4143168009684795,1.9303103965616333,34.798399793257886
6.593489361066593,5.056310073192617,-1.578512793154754,-0.06633280303590061,2.4542894913623834,34.85141501160964
6.644052461798519,5.080852968106241,-1.579176121185113,0.28218134708019577,2.7977742778705763,34.884525482716334
6.694860991479581,5.108830710884947,-1.576354307714311,0.6310266019073592,2.9598448573534064,34.86038463109248
6.745949298588431,5.1384291594584806,-1.5700440416952373,0.9796304482182839,2.939422298706239,34.74549663444622
6.797333590183015,5.167823382445543,-1.5602477372130543,1.3270854145627462,2.736298082678904,34.51076985311442
6.849011824007471,5.195186363272332,-1.5469768830674269,1.6721931130938903,2.3519975627124574,34.132139505077326
6.9009636876401945,5.218706338899456,-1.5302549519364879,2.0135145081446635,1.7904360073605703,33.59113241843277
6.953150751029189,5.236610698973061,-1.5101198068550412,2.349425832328991,1.058332580134836,32.875260617088976
7.00551685801892,5.2471940247744095,-1.4866255485317512,2.678178438499881,0.16536516684682784,31.97815959844185
7.057988798266664,5.248847676442878,-1.4598437641467523,2.9979600344842994,-0.8759258668112293,30.89942875847305
7.110477275031093,5.240088417774766,-1.4298641638019094,3.30695432206903,-2.0504493807055963,29.644179241248974
7.162878159208841,5.21958392396771,-1.3967946205812192,3.6033961144815194,-3.3410313072603333,28.222340000037995
7.215073998448518,5.186173610895107,-1.360760659436404,3.8856195144818995,-4.728964868635258,26.647807454350403
7.266935734557469,5.138883962208754,-1.321904464291585,4.152097589025404,-6.1945675055206175,24.937541465855944
7.318324574179557,5.076938287153548,-1.280383488401331,4.4014730036839635,-7.717679861816771,23.11070797985635
7.369093957051092,4.9997614885353805,-1.2363687583644913,4.6325800834825275,-9.27806348534859,21.187948450177856
7.419091571936446,4.906980853681895,-1.190042957529666,4.844459567984306,-10.855680893705731,19.19082347395872
7.468161380473265,4.798424044744838,-1.1415983618498229,5.036367802723894,-12.430868864212071,17.1414402335092
7.516145620920713,4.6741153561027176,-1.091234683822584,5.207782205058986,-13.984438204131795,15.06223785067717
7.56288677448174,4.5342709740614,-1.039156861771994,5.358404583565758,-15.497747126098801,12.975877773982095
7.6082294842223535,4.379293502800412,-0.9855728159363364,5.4881633613055785,-16.952798760674717,10.905171826453838
7.652022419250358,4.209765515193665,-0.9306911823232806,5.597215079570117,-18.33240621902376,8.872980039622881
7.694120074402294,4.026441453003427,-0.8747190315275795,5.685944879966346,-19.620452619265613,6.902022999514259
7.734384488932328,3.830236926810771,-0.817859582727916,5.754965109961489,-20.802251649703347,5.014576217799207
7.772686858200435,3.6222144103137377,-0.7603099316283012,5.8051108721394815,-21.86499055016951,3.23204259214965
7.808909002303572,3.4035645048120426,-0.7022588229069063,5.837431298060978,-22.79821619842937,1.5744280846508392
7.842944647351692,3.1755823428277488,-0.6438845099262965,5.853175578907487,-23.594310275817154,0.05977008903166198
7.8747004707799695,2.939639240069577,-0.5853527541372217,5.853773279797803,-24.248894104885313,-1.2964167218149025
7.904096863180666,2.697150299020724,-0.5268150213392436,5.840809112579654,-24.76110878414768,-2.4816084971626444
7.931068366170873,2.449539211179247,-0.4684069302134471,5.815993027608028,-25.13373071512647,-3.4865936693197144
7.955563758282666,2.1982019040279823,-0.4102469999373668,5.781127090914831,-25.373103683238657,-4.305604832014728
7.977545777322946,1.9444708671955957,-0.3524357290282185,5.738071042594684,-25.488892275867855,-4.936241540469462
7.9969904859949015,1.6895819444369171,-0.2950550186022717,5.688708627189989,-25.493683321687236,-5.379189106461188
8.013886305439271,1.4346451112200447,-0.23816793233037178,5.634916736125377,-25.402478675653356,-5.637759767083105
8.028232756551471,1.1806203244635112,-0.181818764969118,5.578539138454546,-25.232131951752184,-5.717297464402142
8.040038959796107,0.9282990049459894,-0.12603337358457253,5.521366163810525,-25.000783308668908,-5.6244944019780325
8.049321949845567,0.6782911718593003,-0.07081971194646729,5.465121219790745,-24.727341198598257,-5.366666770506501
8.05610486156416,0.43101775987331775,-0.016168499748559842,5.411454552085679,-24.43105013624811,-4.951030113242701
8.060415039162892,0.18670725851083664,0.03794604577229695,5.361944250953252,-24.131171388987774,-4.38400403618622
8.062282111748,-0.0546044553790411,0.09156548828182948,5.31810421059139,-23.846791112704537,-3.6705638535406497
8.06173606719421,-0.2930723665060865,0.14474653038774338,5.281398572055983,-23.59675924750055,-2.8136456125317584
8.05880534352915,-0.529039958981092,0.19756051610830322,5.253262115930665,-23.399752878576024,-1.8136028184959307
8.053514943939339,-0.7630374877668522,0.25009313726760984,5.235126087745706,-23.27444907634516,-0.6677101299551816
8.04588456906167,-0.9957819785303038,0.3024443981450669,5.228448986446154,-23.23978240892487,0.6302859880568693
8.035926749276367,-1.2281798026195525,0.35472888800952845,5.234751846326723,-23.315247408229407,2.0905526187333354
8.023644951250171,-1.4613322767018466,0.4070764064727957,5.255657372514056,-23.521179180347445,3.7274368092103733
8.009031628483152,-1.696544068505321,0.45963298019793625,5.29293174060616,-23.878893426385787,5.559483029823158
7.992066187798099,-1.9353330027691789,0.5125622976039979,5.348526570904391,-24.410467545852107,7.608928680938403
7.972712857770407,-2.1794376782277,0.5660475633130417,5.424615857713775,-25.137755977352217,9.90013679827102
7.95091848098813,-2.4308152380012222,0.6202937218901795,5.523617225696485,-26.07988226996318,12.455929919837098
7.926610328608118,-2.691614060700854,0.6755298941471444,5.648176524894856,-27.24781385348669,15.289892023616012
7.899694188001109,-2.964092199235721,0.7320116593960929,5.801075445131016,-28.633517247082715,18.39114227068169
7.870053266008752,-3.2504273717065484,0.790022413847403,5.984986867837833,-30.18941529987802,21.69557070533783
7.837548992291687,-3.5523215247053286,0.8498722825257814,6.201942574891211,-31.791531515407783,25.034192970262843
7.8020257770446335,-3.8702368398594063,0.9118917082746935,6.452284504593839,-33.17837107969545,28.047280864069258
7.763323408646039,-4.202020550656361,0.9764145533206319,6.732757313234532,-33.86348163438628,30.060938395190743
7.721303203139476,-4.540655367000223,1.0437421264529771,7.033366697186439,-33.049687760673116,29.964536316496172
7.675896649469474,-4.871152244606955,1.1140757934248415,7.333012060351401,-29.65488112541168,26.24188519980972
7.627185127023404,-5.167701055861071,1.1874059140283555,7.5954309123494985,-22.68007186451596,17.478817497893505
7.5755081164647935,-5.394501774506231,1.2633602231518504,7.770219087328433,-12.088977461162154,3.586116485283346
7.5215630987197315,-5.515391549117853,1.3410624140251346,7.806080252181267,0.30978459357148347,-12.968810613196403
7.466409183228553,-5.512293703182138,1.4191232165469472,7.676392146049302,11.331172132445039,-27.806438759266058
7.411286246196731,-5.398981981857688,1.49588713800744,7.398327758456642,18.479239384794152,-37.49651008862878
7.357296426378154,-5.214189588009746,1.5698704155920065,7.023362657570353,21.389530112981014,-41.54760731486267
7.305154530498056,-5.000294286879936,1.64010404216771,6.607886584421727,21.228986175453837,-41.56687151962259
7.255151587629257,-4.788004425125398,1.7061829080119273,6.192217869225501,19.402133145098773,-39.47348367402227
7.207271543378003,-4.59398309367441,1.7681050867041823,5.797483032485278,16.901747237197416,-36.61241417954925
7.1613317124412585,-4.424965621302436,1.8260799170290352,5.431358890689785,14.271220094425571,-33.71106336336718
7.117082056228234,-4.282253420358181,1.880393505935933,5.094248257056114,11.758437018657911,-31.094905602111183
7.0742595220246525,-4.164669050171602,1.931335988506494,4.7832992010350015,9.453111216739224,-28.87690348330741
7.032612831522936,-4.070137938004209,1.979168980516844,4.494530166201927,7.3700846187145475,-27.071144268596232
6.991911452142894,-3.996437091817064,2.0241142821788634,4.223818723515965,5.492724172500514,-25.651271316223305
6.9519470812247235,-3.941509850092059,2.066352469414023,3.967306010353732,3.793754229003676,-24.5779699336393
6.912531982723803,-3.903572307802022,2.1060255295175603,3.721526311017339,2.244643163761468,-23.81087279185641
6.873496259645783,-3.8811258761644076,2.1432407926277337,3.483417583098775,0.8195108881593568,-23.313052590061417
6.834685000884139,-3.872930767282814,2.1780749684587213,3.2502870571981606,-0.5034692318497671,-23.052131945423014
6.795955693211311,-3.877965459601312,2.210577839030703,3.0197657377439304,-1.7417470861355018,-22.999922811150654
6.757176038615298,-3.8953829304626666,2.2407754964081423,2.789766509632424,-2.9084857627010003,-23.13147826162485
6.718222209310671,-3.9244677880896766,2.2686731615044664,2.5584517270161755,-4.012767274038018,-23.42395396603649
6.678977531429775,-3.964595460830057,2.294257678774628,2.3242121873558106,-5.05979401451622,-23.855455319492226
6.639331576821474,-4.015193400975219,2.317499800648186,2.0856576341608886,-6.051052786885706,-24.40395219035697
6.5991796428117215,-4.075703928844076,2.338356376989795,1.8416181122573188,-6.984452698809883,-25.046310746708127
6.55842260352328,-4.145548455832175,2.356772558112368,1.5911550047902374,-7.854472726237513,-25.757488782899888
6.516967118964959,-4.22409318309455,2.3726841081602705,1.3335801169612385,-8.652368963470895,-26.509950703738518
6.474726187134014,-4.310616872729259,2.386019909329883,1.0684806099238533,-9.366498606603093,-27.273370620922204
6.431620018406721,-4.40428185879529,2.3967047154291214,0.7957469037146312,-9.982817075302677,-28.014698956515332
6.387577199818768,-4.5041100295483165,2.4046621844662677,0.5155999141494778,-10.48559419538444,-28.698662408813526
6.342536099523285,-4.608965971502161,2.4098181836077623,0.22861329006134257,-10.858372737994424,-29.288743048560605
6.296446439808263,-4.717549698882105,2.4121043165083758,-0.06427414042426349,-11.085157069436466,-29.748636214875333
6.249270942819442,-4.82840126957647,2.4114615751041333,-0.36176050257301684,-11.151773631538678,-30.044120179680778
6.200986930123677,-4.9399190058918565,2.407843970078403,-0.6622017043698246,-11.04729520351964,-30.145191537708158
6.151587740064759,-5.050391957927053,2.401221953034705,-0.9636536197469062,-10.765378325909825,-30.02824454101678
6.1010838204854885,-5.158045741186151,2.391585416837236,-1.2639360651570741,-10.305340907178037,-29.67802059338167
6.049503363073627,-5.261099150257931,2.378946056185665,-1.5607162710908908,-9.672815994465068,-29.08904562653648
5.996892371571048,-5.357827310202582,2.363338893474756,-1.8516067273562555,-8.879862465942601,-28.26631981069724
5.943314098469021,-5.446625934862008,2.3448228262011934,-2.134269925463228,-7.9444884968877885,-27.225123402740316
5.888847839120401,-5.5260708198308865,2.3234801269465613,-2.406521159490631,-6.889633598377782,-25.989935808492074
5.833587130922092,-5.594967155814665,2.299414915351655,-2.6664205175755518,-5.741738563463621,-24.592601855776064
5.7776374593639455,-5.652384541449301,2.2727507101758997,-2.9123465361333123,-4.529089694270934,-23.06998760682079
5.721113613949452,-5.69767543839201,2.2436272448145664,-3.14304641220152,-3.2801420985583314,-21.46142430698869
5.664136859565532,-5.730476859377593,2.212196780692551,-3.357660655271407,-2.022006032890086,-19.806235662509643
5.606832090971756,-5.7506969197064945,2.178620174139837,-3.5557230118965033,-0.7792301325116868,-18.141589496643665
5.549325121774691,-5.758489221031612,2.143062944020872,-3.73713890686294,0.42704834018920174,-16.50083015552042
5.491740229564376,-5.75421873762972,2.1056915549522426,-3.9021472084181443,1.5795775678139814,-14.912356186108523
5.434198042188078,-5.73842296195158,2.066670082868061,-4.051270770279229,2.6651287496326703,-13.399028071647091
5.376813812568562,-5.711771674455253,2.0261573751652686,-4.185261050995701,3.674365425671434,-11.978034407382276
5.31969609582401,-5.675028020198539,1.9843047646553116,-4.305041395069523,4.601523615247616,-10.661114659621386
5.262945815622024,-5.629012784046063,1.9412543507046163,-4.411652541665737,5.443978473425469,-9.45502917653966
5.206655687781564,-5.574572999311808,1.897137825287959,-4.506202833431134,6.201761060469843,-8.362175840722257
5.150909957788445,-5.51255538870711,1.8520757969536477,-4.589824591838356,6.877072977502705,-7.381270596335696
5.095784403901375,-5.443784658932083,1.806177551035264,-4.6636372978017135,7.473830756279619,-6.508030148506533
5.041346557312054,-5.3690463513692865,1.759541178057247,-4.728717599286779,7.997258205486129,-5.735815370852596
4.987656093798361,-5.289073769314426,1.7122540020643793,-4.786075752995305,8.45353433791383,-5.056211132957888
4.934765356105217,-5.204538425935287,1.6643932445344263,-4.836637864324883,8.849497084762053,-4.459531543067025
4.882719971845864,-5.116043455087667,1.6160268658911774,-4.8812331797555535,9.192398314097758,-3.935249070517109
4.8315595372949875,-5.024119471946689,1.5672145340936219,-4.920585670460724,9.489703094764847,-3.4723522190309457
4.781318342575521,-4.92922244099904,1.5180086773890147,-4.9553091926510335,9.748925073742559,-3.059640080157891
4.73202611816553,-4.831733190261614,1.4684555854625043,-4.985905593452612,9.977489753578222,-2.685963894894294
4.683708786262914,-4.731958292725832,1.418596529527978,-5.012765232401555,10.182617989117213,-2.3404262628938577
4.636389203335655,-4.6301321128346595,1.3684688772039626,-5.036169495030493,10.371222918806165,-2.012548289411509
4.590087882207309,-4.526419883646598,1.3181071822536576,-5.056294977924608,10.549814659366652,-1.6924140394109302
4.544823683370843,-4.4209217370529315,1.2675442324744115,-5.073219118318717,10.724408353524572,-1.3708003528513233
4.500614466000314,-4.3136776535176855,1.2168120412912242,-5.08692712184723,10.900432546209055,-1.0392984604516655
4.4574776894651365,-4.204673328055595,1.1659427700727518,-5.097320106451747,11.082636374611342,-0.6904319708530866
4.41543095618458,-4.093846964309481,1.1149695690082344,-5.104224426160278,11.274995690484257,-0.31777370378014413
4.374492486541485,-3.981097007404639,1.0639273247466317,-5.1074021631980795,11.48061996760153,0.08393844734179316
4.334681516467439,-3.8662908077286233,1.012853303114651,-5.106562778724662,11.70166362541264,0.5186888612075454
4.296018608390153,-3.749274171474497,0.9617876753274043,-5.101375890112586,11.939247115510415,0.9890794169230985
4.258525866675408,-3.629881700319393,0.9107739164262785,-5.091485095943355,12.193394611735407,1.496239551859837
