th1 (rad),w1 (rad/s),th2 (rad),w2 (rad/s)
2.0310126692171693,-2.2315408203612987,5.63383278006694,-1.0255583617780502
2.0086972610135563,-2.321165216772591,5.623577196449159,-1.024397516289894
1.9854856088458304,-2.4097394930093197,5.61333322128626,-1.0186217132501998
1.9613882139157373,-2.497111220954077,5.603147004153758,-1.0078844063210786
1.9364171017061964,-2.583122621899328,5.593068160090548,-0.9918310455677538
1.9105858754872032,-2.6676132005859077,5.58314984963487,-0.9701027629718398
1.883909743481344,-2.750422940568774,5.573448822005151,-0.9423407217145738
1.8564055140756563,-2.8313960729934164,5.564025414788006,-0.9081910899988946
1.8280915533457223,-2.9103854096417465,5.554943503888016,-0.8673105588414897
1.7989876992493048,-2.98725720529339,5.546270398299601,-0.8193722751680372
1.769115127196371,-3.0618964848912174,5.538076675547921,-0.7640720084053155
1.7384961623474589,-3.134212739245224,5.530435955463868,-0.7011343133578694
1.7071540349550065,-3.204145861375446,5.523424612330289,-0.6303183983385693
1.675112576341252,-3.271672167153422,5.517121428346903,-0.5514233600831075
1.6423958546697177,-3.336810322332496,5.511607194746072,-0.46429241129682425
1.6090277514463927,-3.3996269873610987,5.506964270633104,-0.36881570814469344
1.5750314815727817,-3.460241995444232,5.5032761135516575,-0.2649313882096078
1.5404290616183394,-3.5188329014129476,5.500626799669561,-0.1526244573219694
1.5052407326042099,-3.5756387811394426,5.499100555096342,-0.03192321650603083
1.4694843447928154,-3.6309632238848213,5.498781322931281,0.09710700494954252
1.4331747125539671,-3.685176541537716,5.499752392980777,0.23437295436823283
1.3963229471385898,-3.738717315762102,5.502096122524459,0.3797654478313718
1.3589357739809689,-3.792093511750596,5.505893777002773,0.5331742125209551
1.3210148388634628,-3.8458835000905376,5.511225519127982,0.6945054789609391
1.2825560038625574,-3.9007374412046025,5.518170573917591,0.863702197712424
1.2435486294505114,-3.957379596645408,5.526807595894716,1.0407667814921484
1.2039748334840572,-4.016612237722988,5.537215263709637,1.2257863624731133
1.1638087111068274,-4.079321927554481,5.549473127334368,1.4189607131282285
1.1230154918312825,-4.146489064259213,5.56366273446565,1.620633211225947
1.0815506011886904,-4.219201699975538,5.57986906657791,1.8313255355356581
1.039358584188935,-4.298674802170541,5.598182321933266,2.0517771534944895
0.9963718361672296,-4.386276304804245,5.618700093468211,2.2829910909696847
0.9525090731191871,-4.483561495648588,5.641530004377908,2.526287920563924
0.9076734581627012,-4.592317451416285,5.666792883583548,2.7833702794646236
0.8617502836485383,-4.714619223989064,5.6946265863781935,3.056400320693069
0.8146040914086476,-4.8528989610959785,5.725190589585124,3.3480918313015717
0.7660751017976879,-5.01002734181173,5.75867150789814,3.6618162341034437
0.7159748283795706,-5.189401899434895,5.795289670239175,4.001714916608068
0.6640808093852216,-5.3950251913834375,5.835306819405256,4.372793986644973
0.6101305574713872,-5.631529049648935,5.879034759271706,4.780940014074464
0.5538152669748979,-5.904041466323442,5.92684415941245,5.232711606572713
0.4947748523116635,-6.217663339591539,5.979171275478177,5.734580378244704
0.4325982189157481,-6.576055657024206,6.036517079260625,6.290921154075902
0.3668376623455061,-6.978145538609549,6.099426290801384,6.899361462145249
0.2970562069594106,-7.411299413790977,6.168419905422836,7.541175479095602
0.2229432128215008,-7.839468233142445,6.243831660213792,8.1646316549569
0.14454853049007638,-8.18973709969568,6.325477976763361,8.666134314999749
0.06265115949311957,-8.356876737815204,6.412139319913359,8.896722819379589
-0.02091760788503247,-8.258395847136683,6.501106548107154,8.739585553711168
-0.1035015663563993,-7.915441494363414,6.588502403644266,8.223832403112374
-0.18265598130003344,-7.445094524472599,6.67074072767539,7.51372129698016
-0.2571069265447594,-6.962354336295879,6.745877940645191,6.771106538903659
-0.3267304699077182,-6.526504523512622,6.813589006034228,6.080071784777013
-0.3919955151428444,-6.153859270142328,6.874389723881998,5.464552071748222
-0.4535341078442677,-5.841684711443985,6.92903524459948,4.921690271925109
-0.5119509549587076,-5.581588660636026,6.978252147318731,4.440553363180709
-0.5677668415650678,-5.364751006422911,7.022657680950538,4.009484216587029
-0.6214143516292969,-5.183499487243535,7.0627525231164086,3.618355751403158
-0.6732493465017323,-5.031555857368813,7.09893608063044,3.258964182940999
-0.7235649050754205,-4.903873670895866,7.13152572245985,2.9248452562871576
-0.7726036417843791,-4.796392204835288,7.160774175022722,2.6109667914303745
-0.820567563832732,-4.705808461713412,7.186883842937025,2.3134405420222257
-0.8676256484498661,-4.629391655523294,7.2100182483572475,2.02928782322878
-0.9139195650050991,-4.564839762624914,7.230311126589536,1.7562582566858076
-0.9595679626313482,-4.510171282503557,7.247873709156393,1.4926915966967722
-1.0046696754563837,-4.463644918771026,7.262800625123361,1.2374117323555727
-1.049306124644094,-4.423701096344154,7.275174742446917,0.9896435510015067
-1.0935431356075356,-4.388920610930489,7.285071177956932,0.7489453728452681
-1.1374323417168404,-4.357996829499017,7.292560631685385,0.5151515273559628
-1.1810123100118306,-4.32971865156068,7.297712146958944,0.288321223452371
-1.2243094965274375,-4.302961944231625,7.300595359193468,0.06869119037691984
-1.2673391159697538,-4.276687455575862,7.301282271097238,-0.1433693251129715
-1.3101059905255124,-4.2499433712279595,7.299848577846108,-0.3474017050659436
-1.3526054242377918,-4.221870782784854,7.296374560795448,-0.5428990304026724
-1.3948241320656405,-4.191710444221704,7.290945570491422,-0.7293443444522669
-1.4367412365078576,-4.158809348232558,7.283652127046899,-0.9062450923583656
-1.4783293299901832,-4.12262588018451,7.274589676123315,-1.0731626559015135
-1.5195555887920282,-4.082732603225631,7.2638580495643,-1.2297360450330541
-1.5603829148242845,-4.038816074223689,7.25156068911397,-1.3756991108760652
-1.6007710755665214,-3.990673453342113,7.23780369800521,-1.5108910491255692
-1.6406778100999426,-3.938206011813748,7.222694787513954,-1.6352603985343326
-1.68005987021808,-3.8814099280449943,7.206342183528611,-1.7488631411414075
-1.71887396949853,-3.820364967097169,7.188853552117197,-1.8518558280000712
-1.7570776191695017,-3.7552217522346867,7.170334993837196,-1.9444848560716002
-1.7946298366918485,-3.6861883628350616,7.15089014527648,-2.027073100567208
-1.831491720320199,-3.613516944735032,7.130619414270808,-2.1000050733682256
-1.8676268897675494,-3.537490917784871,7.109619363537126,-2.1637116563899292
-1.9030017989453982,-3.458413233627936,7.087982246973227,-2.2186552792236234
-1.9375859312816777,-3.3765959952214075,7.0657956941809905,-2.2653162034366208
-1.9713518912338917,-3.2923516147269534,7.043142532146624,-2.3041803674412713
-2.004275407381161,-3.205985569150942,7.020100728472212,-2.335729054988241
-2.0363352630726705,-3.1177907193572354,6.996743437922329,-2.360430488914376
-2.067513170266243,-3.028043089394159,6.973139133033185,-2.3787333250633718
-2.0977936011601845,-2.936998957995691,6.949351799782551,-2.39106192951036
-2.1271635907401416,-2.8448930893147804,6.925441180487447,-2.39781326216686
-2.1556125216332895,-2.7519379212779493,6.901463047865779,-2.3993551564443005
-2.1831319008460692,-2.658323533189899,6.877469496301336,-2.3960257721570812
-2.209715136177968,-2.564218225533644,6.853509238579765,-2.3881340016504145
-2.2353573184333047,-2.469769561112698,6.829627898563261,-2.3759606223000493
-2.2600550140444318,-2.3751057352875136,6.80586829234026,-2.3597600079945957
-2.283806071397307,-2.2803371622699573,6.7822706922603135,-2.339762234854563
-2.3066094430200064,-2.1855581830465467,6.758873069911768,-2.3161754400072785
-2.328465024850472,-2.0908488177650395,6.735711315511695,-2.289188315199638
-2.349373513028122,-1.9962765009563408,6.712819432359699,-2.2589726384513233
-2.3693362780376854,-1.9018977516414135,6.690229705975185,-2.2256857663279166
-2.3883552555540994,-1.8077597422213334,6.667972848311906,-2.1894730265537747
-2.406432852976313,-1.7139017401942322,6.646078118046368,-2.150469965599821
-2.423571870378255,-1.6203564053586719,6.62457341839037,-2.10880441870453
-2.439775434431842,-1.5271509324345263,6.603485374203325,-2.06459838071173
-2.4550469437561873,-1.4343080351361184,6.582839390396208,-2.017969665350725
-2.4693900241075486,-1.3418467728233863,6.562659693742701,-1.9690333483499842
-2.4828084918357827,-1.249783225064295,6.5429693602592005,-1.9179029962506966
-2.4953063240864255,-1.1581310228684054,6.523790330296694,-1.8646916881276325
-2.5068876343151096,-1.0669017480772467,6.505143413415418,-1.8095128417596342
-2.517556651795882,-0.9761052144835758,6.4870482849978215,-1.7524808592224446
-2.5273177039407178,-0.8857496457479641,6.469523476405597,-1.6937116094837739
-2.536175200398197,-0.7958417661297287,6.452586360310759,-1.6333227674316793
-2.5441336180594947,-0.7063868204902749,6.436253132636442,-1.5714340299216814
-2.5511974862643974,-0.6173885400023601,6.420538792337225,-1.50816722994214
-2.557371371664421,-0.5288490695547226,6.405457120037803,-1.4436463699292033
-2.562659862359968,-0.44076887202933507,6.391020656338511,-1.3779975946741096
-2.567067551080261,-0.3531466235048465,6.37724068039177,-1.311349123223754
-2.5705990173153097,-0.26597911206527597,6.364127189159532,-1.2438311577520322
-2.5732588084359627,-0.17926115133066495,6.351688877582012,-1.1755757856497722
-2.5750514199492693,-0.09298551813900162,6.339933119725514,-1.1067168891214587
-2.575981275130659,-0.007142922056552578,6.3288659508343,-1.0373900744626363
-2.5760527043512247,0.07827798736797902,6.318492050089674,-0.9677326309938966
-2.5752699244775448,0.16329057141306794,6.308814723779735,-0.8978835274103747
-2.573637018763414,0.24791010851003376,6.299835888505631,-0.8279834511257912
-2.5711579176783137,0.33215365507331457,6.2915560539943725,-0.7581748940933705
-2.5678363811275804,0.41603986123165304,6.283974305053439,-0.6886022866077773
-2.5636759825152637,0.4995887431253869,6.2770882821873615,-0.6194121787569355
-2.55868009508401,0.5828214145637763,6.270894160399792,-0.5507534675142386
-2.552851880938372,0.66575978183163,6.26538662572465,-0.48277766594489363
-2.5461942831200557,0.7484262063097351,6.260558849065201,-0.41563920964176915
-2.5387100210569584,0.8308431403471627,6.256402456968783,-0.34949579429692124
-2.530401589653487,0.9130327425172107,6.252907499025814,-0.28450873724173564
-2.5212712622283147,0.9950164790261774,6.2500624116533965,-0.22084335483623468
-2.511321097438053,1.0768147186490986,6.247853978105034,-0.15866934674179695
-2.5005529502515618,1.1584463291615503,6.246267284637616,-0.09816117735897781
-2.4889684869599464,1.2399282838414252,6.245285672864027,-0.03949844404553703
-2.476569204121532,1.3212752872451603,6.244890688423571,0.017133778852082934
-2.4633564512490804,1.4024994301300633,6.245062026212092,0.07154463161057531
-2.44933145694778,1.4836098841029481,6.245777472528197,0.1235372082224537
-2.4344953581067506,1.5646126473230848,6.247012844610422,0.1729083550498705
-2.4188492316335197,1.645510353364621,6.248741928160921,0.21944854118242868
-2.4023941280998735,1.7263021561320668,6.250936413572745,0.262941812468401
-2.385131106538553,1.8069837044955452,6.253565831697429,0.3031658407087885
-2.3670612694935977,1.8875472210353104,6.256597490104517,0.3398920786322048
-2.3481857972832447,1.9679816999147686,6.259996410890839,0.37288602990707004
-2.328505980284097,2.0482732393887173,6.26372527118991,0.40190764148573976
-2.3080232478902096,2.1284055247454394,6.267744347604767,0.42671182289398707
-2.2867391926427554,2.2083604775235863,6.272011465833707,0.44704909355562455
-2.2646555878675194,2.2881190865875025,6.276481956769263,0.4626663547548614
-2.2417743970016444,2.367662436048308,6.281108620316812,0.47330777727674667
-2.2180977726411615,2.4469729440617414,6.2858416980895795,0.4787157890358478
-2.193628043200544,2.526035825225011,6.290628855979938,0.47863213904072094
-2.168367684948294,2.6048407876809563,6.295415177370345,0.47279900482063064
-2.1423192770714845,2.683383974218434,6.300143167418551,0.4609600999821674
-2.1154854373293004,2.76167015479828,6.304752768418373,0.44286172694022363
-2.0878687357813175,2.839715176278629,6.309181385687776,0.41825370720651905
-2.059471584018531,2.9175486739965115,6.313363922759841,0.386890108091627
-2.030296097278566,2.995217049719928,6.317232823840757,0.3485296704836901
-2.0003439267813667,3.0727867218588245,6.320718120545594,0.3029358277074881
-1.9696160595627785,3.1503476573681555,6.3237474788226695,0.249876190493605
-1.938112582989097,3.228017201255647,6.326246240727605,0.18912135784539225
-1.9058324109765405,3.305944229892807,6.328137454306059,0.12044289794724602
-1.8727729686776124,3.3843136693954405,6.329341883285532,0.043610326812123595
-1.838929831983658,3.463351441264773,6.329777986553653,-0.04161310563481865
-1.8042963175710103,3.543329925435549,6.329361855497305,-0.13547603308790418
-1.7688630183166547,3.6245740671320634,6.328007095166425,-0.23824623024305447
-1.7326172776453341,3.7074682998377466,6.3256246328639945,-0.35021977807293597
-1.6955425946469567,3.792464513620282,6.322122435083265,-0.47173244605466813
-1.657617949510754,3.880091367284821,6.317405110622718,-0.6031736533122697
-1.6188170358379057,3.970965325122136,6.311373374089595,-0.745003437496072
-1.5791073825866844,4.0658038938014105,6.303923339714634,-0.8977729410646196
-1.5384493436486704,4.165441638478466,6.294945610303988,-1.0621490145487922
-1.4967949272638856,4.2708496587236215,6.2843241201585,-1.2389436197781898
-1.4540864306766494,4.383159278983292,6.271934683960718,-1.4291487553401288
-1.4102548378868165,4.503690699252202,6.257643196407317,-1.6339775396662821
-1.3652179308942944,4.63398714218736,6.241303421010654,-1.8549117030119688
-1.3188780594724208,4.775854381609651,6.222754303980534,-2.093754709299361
-1.2711195156563242,4.931403953133502,6.20181675688754,-2.3526873484442072
-1.2218054761249892,5.103094839235043,6.178289883403098,-2.6343174977280506
-1.170774527732639,5.293761001987458,6.151946708425817,-2.9417050325145535
-1.1178369177127643,5.506596874889803,6.122529658100672,-3.2783210227789175
-1.0627709489638661,5.745042233787546,6.089746447872883,-3.647856709837414
-1.0053205266259906,6.01244791030055,6.053267880774508,-4.05371291612296
-0.945196047522985,6.311292564317757,6.012730751613279,-4.49784375230843
-0.8820831218798074,6.641535832731443,5.967752314090195,-4.9783689835900615
-0.8156677635524929,6.997465101103602,5.917968624254294,-5.485051892281428
-0.7456931125414569,7.362404203860498,5.86311810533148,-5.991765383812582
-0.6720690705028519,7.701914974000071,5.803200451493354,-6.446871350485788
-0.5950499207628512,7.960602808166543,5.738731737988497,-6.768792473281786
-0.5154438926811858,8.074665096366054,5.671043813255679,-6.863999455420445
-0.43469724171752533,8.007709537169283,5.602403818701474,-6.678094946661539
-0.3546201463458325,7.7835842741795895,5.535622869234859,-6.242830691841078
-0.2767843036040366,7.472214769340127,5.473194562316449,-5.656584394952608
-0.20206215591063534,7.142730508838807,5.416628718366923,-5.018056400512659
-0.13063485082224727,6.836694841677686,5.366448154361796,-4.387838249862709
-0.06226790240547041,6.570578144078029,5.3225697718631695,-3.791285896014827
0.003437879035309885,6.346844536614187,5.284656912903022,-3.233868213084649
0.06690632440145175,6.162048938749971,5.252318230772175,-2.7125502226251923
0.12852681378895145,6.010919357239264,5.225192728545924,-2.221625040774433
0.1886360073613441,5.888052835607294,5.202976478138179,-1.755208280727717
0.24751653571741702,5.788495588855992,5.1854243953309025,-1.3081534163015096
0.30540149160597696,5.707862617164359,5.172342861167888,-0.8763020154304164
0.36248011777762057,5.642289274341738,5.163579841013584,-0.4564790147421
0.41890301052103796,5.588336067269662,5.159015050866163,-0.04640362564984207
0.47478637119373457,5.542893815114794,5.158551014609665,0.3554181416978113
0.5302153093448825,5.503105560711294,5.162105196026642,0.7497970094889712
0.5852463649519954,5.466309325973934,5.169603166121532,1.136955068212844
0.6399094582117348,5.430001085777759,5.180972716803661,1.5166128164792025
0.6942094690695124,5.391815624973619,5.196138844968453,1.8880714975494697
0.7481276253192486,5.349522361954499,5.215019559943948,2.250293324697093
0.8016228489387935,5.301033036905401,5.237522493190919,2.6019811923747973
0.8546331793078475,5.244418123450799,5.263542305114666,2.9416583288663016
0.9070773605423555,5.177928871933994,5.292958888403329,3.267747328298507
0.9588566492616954,5.100022037340001,5.325636361686314,3.578647242249371
1.0098568696350956,5.0093845955536125,5.361422834108808,3.872806969495531
1.0599507155906318,4.904956099863943,5.400150903803763,4.148793050920259
1.1090002765892712,4.785946745242719,5.441638834312966,4.405350101669842
1.1568597440416983,4.651849648378023,5.485692335329664,4.641452411248661
1.2033782405254785,4.502446276238975,5.53210685944215,4.8563456247832555
1.2484027032878682,4.337804339670911,5.580670315689983,5.049577811383478
1.2917807466845772,4.158267807393167,5.6311660938038175,5.221019585743848
1.3333634247585089,3.964439005413282,5.683376289661256,5.370873269255305
1.3730078148126417,3.7571530724045914,5.737085022353809,5.49967137639122
1.4105793455366875,3.5374453639371954,5.792081736117721,5.608265021255645
1.4459537991760594,3.306512741968888,5.848164386330278,5.6978031806707286
1.4790189265957483,3.0656700320831565,5.905142418136985,5.769704125292174
1.5096756269165799,2.816303239942597,5.962839459389907,5.825620713756865
1.5378386593160058,2.559821339302982,6.021095666527476,5.8674015902419345
1.5634368727090358,2.297608528638793,6.0797696824298955,5.8970505781819025
1.5864129579954236,2.030978770999646,6.138740188211714,5.9166866751116505
1.60672274570542,1.7611341778910705,6.197907054962831,5.928506999919314
1.6243340874843308,1.4891283976003449,6.257192124962024,5.934754826836532
1.6392253714603342,1.2158356705569422,6.316539673230389,5.937694489874044
1.6513837281659036,0.9419256826020683,6.375916618129129,5.939594504714809
1.6608029849919244,0.6678438487096439,6.435312563176278,5.9427197838396255
1.6674814234790207,0.39379625800621515,6.494739761014674,5.949333354090592
1.671419386059083,0.11973826407989502,6.55423309455558,5.961707533692638
1.6726167686998819,-0.15463432568008223,6.6138501698925065,5.982144048631416
1.671070425443081,-0.4298922345375172,6.673671610378821,6.013001950281361
1.666771503097706,-0.7068779171976547,6.7338016298816346,6.05673119751884
1.6597027239257294,-0.9867075415540579,6.794368941856823,6.115907936309209
1.6498356485101888,-1.2707655382106222,6.855528021219915,6.193264024070378
1.6371279931280827,-1.5606824017545322,6.917460661460619,6.29169671903049
1.6215211691105373,-1.85827715914338,6.980377628650924,6.414232056036638
1.6029383975191036,-2.165429349118957,7.04451994921129,6.563892793140822
1.581284104027914,-2.483816652851111,7.110158877142698,6.743382029529429
1.5564459374994029,-2.814407750183461,7.177592697437992,6.954428313538998
1.5283018599975682,-3.156534746262973,7.247136980573383,7.196545436179021
1.4967365125349386,-3.506311362762678,7.319102434935173,7.464874754457994
1.4616733989073118,-3.854223334664984,7.393751182479753,7.7468533238409
1.423131165560662,-4.182198885838164,7.471219715718162,8.018108862665576
1.3813091767022803,-4.4618610205250695,7.5514008043448175,8.239912136613547
1.3366905664970297,-4.657852507884915,7.633799925710953,8.36357061109155
1.2901120414181806,-4.740105336466266,7.717435631821869,8.347160596268674
1.2427109880535179,-4.701137816456317,7.800907237784555,8.179235516465324
1.1956996098889547,-4.56323571143615,7.8826995929492085,7.8886373682183555
1.1500672527745932,-4.36618904774767,7.961585966631392,7.527659726282408
1.1064053622971166,-4.147799433011586,8.036862563894216,7.145516065890243
1.0649273679670008,-3.933459099512928,8.108317724553118,6.774420525924088
