th1 (rad),w1 (rad/s),th2 (rad),w2 (rad/s)
2.299986777828493,-1.7777955801043823,2.5027668847421563,-2.4728877367358297
2.282208822027449,-1.845426636024384,2.478038007374798,-2.4714403701535472
2.263754555667205,-1.9137082067349447,2.453323603673262,-2.471450770719693
2.2446174735998556,-1.9826335466148648,2.428609095966065,-2.4729109537305978
2.224791138133707,-2.0521903972295465,2.403879986428759,-2.475820969116022
2.2042692341614116,-2.1223597887819916,2.3791217767375987,-2.480190394964265
2.1830456362735915,-2.1931148569577346,2.354319872787956,-2.48603980273504
2.161114487704014,-2.2644196821818907,2.3294594747606054,-2.493402179348213
2.138470290882195,-2.336228160167032,2.3045254529671233,-2.502324287415805
2.1151080092805246,-2.4084829150139306,2.279502210092965,-2.5128679401389022
2.091023180130385,-2.481114268945365,2.254373530691576,-2.525111161981193
2.0662120374409314,-2.5540392858892336,2.2291224190717642,-2.539149200375699
2.040671644582039,-2.6271609094306756,2.2037309270680074,-2.5550953477078604
2.014400035487732,-2.7003672189359813,2.178179973590929,-2.5730815270096667
1.9873963632983722,-2.7735308306882565,2.1524491583208323,-2.593258589638261
1.9596610549914897,-2.846508473406376,2.1265165724244497,-2.6157962692150805
1.931195970257426,-2.9191407692616136,2.100358609732299,-2.6408827338427283
1.9020045625648099,-2.9912522521725298,2.0739497823938717,-2.6687236786983104
1.8720920400430845,-3.0626516544835525,2.0472625456068885,-2.699540904105725
1.8414655234982489,-3.1331324909115055,2.020267136565831,-2.7335703306133956
1.8101341985891337,-3.202473964775979,1.9929314332596972,-2.7710594127849606
1.778109458941374,-3.270442216061949,1.9652208391318475,-2.8122639274391616
1.7454050367807545,-3.3367919240345283,1.937098199857456,-2.8574441297149153
1.7120371175404092,-3.4012682693914473,1.9085237585603068,-2.906860290959867
1.6780244348464948,-3.463609252974419,1.8794551556507082,-2.9607676549946556
1.6433883423167506,-3.5235483607324127,1.8498474791007617,-3.019410872334662
1.6081528587094265,-3.5808175589266393,1.8196533703774151,-3.083017993672466
1.5723446831201602,-3.635150600491987,1.7888231904406904,-3.151794122365947
1.5359931771152404,-3.686286623900478,1.757305249217031,-3.2259148388741763
1.4991303108762357,-3.7339740304037576,1.7250461008282891,-3.305519516308515
1.461790570572198,-3.7779746343204206,1.691990905665204,-3.390704644266689
1.424010824228994,-3.8180680936694604,1.658083859222537,-3.481517267326033
1.3858301432922993,-3.8540566438707615,1.6232686865492767,-3.577948625263708
1.3472895768535917,-3.8857701736941306,1.5874892002966396,-3.6799280554478764
1.3084318751166504,-3.913071697742041,1.5506899197421609,-3.7873171860450787
1.26930115813923,-3.9358632905109934,1.51281674788171,-3.899904414757176
1.22994252523412,-3.9540925499974833,1.4738177037341382,-4.017399635627724
1.1904015997341453,-3.9677596499655463,1.433643707377861,-4.139429150758594
1.1507240032344899,-3.976925015051253,1.392249415870275,-4.265530690123895
1.1109547530839774,-3.9817176071612184,1.349594108969036,-4.3951484675663
1.0711375770123652,-3.9823437401465953,1.305642624293373,-4.527628232022982
1.0313141396108993,-3.9790962374333034,1.2603663419731432,-4.66221233849156
0.9915231772365664,-3.9723636095417603,1.2137442185882277,-4.798034972100566
0.9517995411411487,-3.962638752169149,1.165763868867222,-4.934117819029285
0.9121731536194573,-3.950526451209181,1.1164226906769292,-5.069366694943937
0.8726678891073655,-3.9367487358956677,1.06572902372749,-5.202569913045486
0.8333004017484088,-3.9221468633463497,1.013703324597035,-5.332399484992892
0.7940789331149453,-3.907678481494655,0.9603793297471062,-5.457416564367212
0.7550021482999987,-3.894408357880293,0.905805164103434,-5.576082802942305
0.7160580647211957,-3.8834910564804157,0.850044336074011,-5.686779403956242
0.6772231541563916,-3.876144187792448,0.7931765420344485,-5.787835508427089
0.638461712278467,-3.873611441973153,0.7352981869501777,-5.877567020381929
0.5997255978587355,-3.8771156011105714,0.6765225167463584,-5.954325979074452
0.5609544418476298,-3.8878030971164956,0.616979256955614,-6.016559124692705
0.5220764108764648,-3.9066832966955998,0.5568136657086868,-6.062872528124325
0.4830095779095088,-3.934567271834882,0.4961849404274436,-6.092097388069807
0.44366390519116,-3.972011958080196,0.43526396654674554,-6.103350801634773
0.40394378561035804,-4.019275903120512,0.3742304585303978,-6.096084968924813
0.3637510265791529,-4.076291987809207,0.3132696088411497,-6.070119218004077
0.3229881067010609,-4.142660560491781,0.2525684166611089,-6.025651418554364
0.2815615010961431,-4.217663701344219,0.19231190247556526,-5.963248370876333
0.23938486408270088,-4.30029842859553,0.13267941876680192,-5.883817886458348
0.19638187979674557,-4.389324244637708,0.07384123990221844,-5.788567732583777
0.1524886373503685,-4.483319007642571,0.015955562576380672,-5.678957833462542
0.10765544727394279,-4.580736895856405,-0.04083401575824475,-5.556651943345397
0.06184807831537874,-4.679963064156294,-0.09640053519169872,-5.42347367639446
0.015048447673815794,-4.779361106496241,-0.15063527195564333,-5.281369789221767
-0.032745163391146616,-4.877311201887638,-0.20344896984786098,-5.1323815029099675
-0.08151827541002299,-4.972238479250783,-0.25477278487696065,-4.978622836340625
-0.13124066020253083,-5.062632473646565,-0.3045590132403669,-4.822263622235053
-0.1818669849389965,-5.1470594867705275,-0.3527816494627174,-4.665514137399797
-0.23333757980670178,-5.224170223018709,-0.39943679083671535,-4.510608039783335
-0.28557928203688887,-5.292705298534601,-0.4445428712345487,-4.359780477958918
-0.33850633502223487,-5.351501155925948,-0.4881406760141379,-4.215238758637187
-0.39202134658149435,-5.399498576073007,-0.5302930636005098,-4.079123804304534
-0.44601633234222443,-5.435755353382028,-0.5710843016435551,-3.953461816232438
-0.5003738858760447,-5.459463789516207,-0.6106189198058795,-3.8401070769983954
-0.5549685237712068,-5.469972503976538,-0.6490199905758635,-3.7406786117277036
-0.6096682488109721,-5.4668107792175595,-0.6864267766931405,-3.6564952869121803
-0.6643363566031477,-5.449712471060605,-0.7229917295622622,-3.5885155257890187
-0.7188334813137538,-5.418635711264723,-0.7588768848201524,-3.5372887252833234
-0.773019838426401,-5.373774493471823,-0.7942497720729856,-3.5029252539089564
-0.8267575833611192,-5.315558936872042,-0.8292790246120751,-3.4850903613555633
-0.8799131727298396,-5.2446425180824,-0.8641299282256307,-3.483024546203488
-0.9323595979106636,-5.161876554321965,-0.8989601736876656,-3.4955894036524446
-0.9839783634538832,-5.0682742320389425,-0.93391606772419,-3.5213344832953477
-1.0346611057742727,-4.964968003240019,-0.9691294125571435,-3.5585780327016625
-1.084310785806673,-4.853164869133575,-1.00471519288416,-3.6054932468989387
-1.1328424344980088,-4.734103854896241,-1.0407701253531494,-3.66019192793723
-1.1801834730469711,-4.609019030811685,-1.0773720446325217,-3.720799003606978
-1.226273663355088,-4.479110095169334,-1.1145800346685915,-3.7855136158075817
-1.2710647643067812,-4.345521166221646,-1.1524351708266674,-3.852654874748508
-1.3145199759689976,-4.209327307527408,-1.1909617195741524,-3.920692422956667
-1.3566132490442717,-4.071527568396131,-1.2301686438037192,-3.98826341398647
-1.397328524728233,-3.9330429672554486,-1.2700512779435837,-4.054178339021438
-1.4366589544007875,-3.7947178067395093,-1.3105930613337982,-4.117418422935576
-1.4746061324681825,-3.6573228789369003,-1.351767245563154,-4.177127214697223
-1.5111793612575515,-3.5215593962929623,-1.3935385177101263,-4.232598672560292
-1.5463949552204812,-3.388062791369114,-1.4358645044357292,-4.283263618606448
-1.5802755831341724,-3.257405819465351,-1.4786971406217937,-4.328675994539926
-1.6128496413288258,-3.1301006494792967,-1.521983900567193,-4.368499937993472
-1.6441506478236187,-3.006599835027029,-1.5656688999471275,-4.402498335107654
-1.674216646173889,-2.8872962238493614,-1.6096938832982042,-4.430523193450095
-1.7030896084123825,-2.7725219958874745,-1.6539991152327052,-4.452507915052634
-1.7308148283712572,-2.6625471247567756,-1.6985241943832314,-4.46846132770298
-1.757440299618825,-2.557577635584579,-1.7432088076602612,-4.4784631523575955
-1.7830160759746707,-2.457754082002739,-1.7879934391838372,-4.482660449112964
-1.8075936167946982,-2.3631506810831304,-1.8328200436749669,-4.481264500802503
-1.8312251236055295,-2.2737755209801747,-1.877632688682992,-4.474547570169483
-1.8539628788153313,-2.1895721880733108,-1.9223781643846867,-4.462839009041563
-1.8758586006960645,-2.110423049763813,-1.9670065544751023,-4.446520304658213
-1.8969628311937026,-2.03615428418039,-2.0114717575216843,-4.426018808670018
-1.9173243740355064,-1.9665425845107225,-2.0557319456083842,-4.401800088202405
-1.9369897998806136,-1.901323304277775,-2.0997499464904084,-4.374359038638174
-1.9560030329233913,-1.8401996726875187,-2.14349353687679,-4.344210075247542
-1.9744050296502664,-1.7828526149281354,-2.1869356376292655,-4.311876850221322
-1.9922335557995479,-1.7289506724154151,-2.2300544061314787,-4.277882006932663
-2.009523062523702,-1.678159534377522,-2.272833226200805,-4.2427374803193025
-2.026304657867477,-1.630150757514412,-2.315260601003998,-4.206935788985873
-2.042606165442621,-1.5846093505316634,-2.3573299588938568,-4.170942657750996
-2.0584522589479377,-1.5412400176674212,-2.3990393854713665,-4.135191180021784
-2.0738646591246117,-1.499771972930486,-2.440391297271584,-4.100077598272751
-2.0888623788539165,-1.4599623410534506,-2.4813920732543115,-4.065958664658593
-2.103462002264451,-1.4215982434539887,-2.5220516599008973,-4.033150452994788
-2.117677984698991,-1.3844977241881764,-2.562383164430845,-4.001928432343061
-2.1315229619408727,-1.348509702615731,-2.6024024487542756,-3.972528580391279
-2.14500805896703,-1.313513149817069,-2.6421277345581884,-3.9451493073655817
-2.158143190465201,-1.2794156797243095,-2.681579227631844,-3.9199539722596017
-2.170937347262444,-1.2461517287705746,-2.72077876735444,-3.897073796323775
-2.1833988645501496,-1.2136804744328238,-2.7597495053176777,-3.876611008328457
-2.195535669294478,-1.181983617208449,-2.7985156154009623,-3.8586420875972673
-2.2073555054665626,-1.1510631251145222,-2.837102036276935,-3.8432210010352024
-2.2188661367177076,-1.1209390165133037,-2.875534246287287,-3.8303823574086606
-2.2300755268828407,-1.091647236899554,-2.9138380698613737,-3.8201444250227743
-2.240991999251836,-1.0632376685662754,-2.9520395141116014,-3.812511977458241
-2.251624375937499,-1.0357722987106655,-2.9901646338861836,-3.8074789464179037
-2.2619820989246056,-1.0093235612183262,-3.0282394233503624,-3.805030871498918
-2.272075334536789,-0.9839728596183721,-3.0662897320653517,-3.8051471444665883
-2.2819150631329728,-0.9598092730512242,-3.1043412035100175,-3.807803050985617
-2.291513155863485,-0.9369284430756201,-3.1424192340198736,-3.812971616333939
-2.300882440294241,-0.9154316363581377,-3.180548950183213,-3.8206252638676315
-2.3100367566578224,-0.8954249764018817,-3.2187552028218893,-3.8307372963097572
-2.3189910064218413,-0.8770188362145274,-3.2570625757849867,-3.8432832105946586
-2.3277611947839865,-0.8603273829863255,-3.2954954078909333,-3.8582418572213784
-2.3363644686138496,-0.8454682652959188,-3.334077826463147,-3.8755964549949695
-2.3448191512668086,-0.8325624329782839,-3.3728337910130968,-3.895335471746493
-2.3531447755965913,-0.8217340794986348,-3.4117871457305617,-3.91745338116402
-2.3613621163915774,-0.8131106964242418,-3.450961679542202,-3.9419513052510746
-2.36949322335582,-0.8068232293316643,-3.490381192594713,-3.9688375511491243
-2.3775614556491367,-0.8030063241951949,-3.530069568106204,-3.998128050098326
-2.3855915188910886,-0.8017986529400473,-3.5700508486071874,-4.029846705140552
-2.393609505420489,-0.8033433063751729,-3.610349315658593,-4.0640256527623375
-2.401642938484241,-0.8077882421048275,-3.6509895721862162,-4.100705442003343
-2.409720820905289,-0.8152867742078473,-3.6919966266062496,-4.139935132588645
-2.4178736886473677,-0.8259980904147055,-3.733395977932136,-4.181772311350964
-2.4261336695515148,-0.8400877811433567,-3.7752137010456455,-4.226283023562285
-2.4345345473629485,-0.8577283630079421,-3.8174765312812684,-4.273541612763628
-2.4431118309930278,-0.8790997772169952,-3.8602119474089047,-4.323630459237987
-2.451902828765198,-0.9043898405546816,-3.9034482520012848,-4.376639603387907
-2.460946727170745,-0.9337946233154156,-3.947214648035164,-4.432666235934244
-2.470284673403899,-0.9675187245702863,-3.9915413103945063,-4.4918140320346325
-2.479959860649602,-1.0057754104272234,-4.036459450714853,-4.554192301135092
-2.490017614753874,-1.0487865754725294,-4.082001373726204,-4.619914918649874
-2.500505480508599,-1.0967824813523552,-4.128200522912702,-4.689098999489525
-2.5114733053221228,-1.1500012195265332,-4.175091512907597,-4.761863267163416
-2.5229733175173883,-1.20868783774027,-4.2227101455792315,-4.838326065894938
-2.535060195894791,-1.273093061957595,-4.271093406238181,-4.918602957246527
-2.547791126514367,-1.343471537778343,-4.320279435810646,-5.0028038376520305
-2.5612258418921505,-1.4200795083061712,-4.370307474187166,-5.091029509685452
-2.5754266369752123,-1.503171839883518,-4.421217769284021,-5.183367638787285
-2.5904583553740474,-1.592998304197333,-4.473051445671894,-5.279888029735055
-2.606388338416021,-1.6897990264779066,-4.525850325969245,-5.380637164912944
-2.6232863286808,-1.793799016745875,-4.579656697618374,-5.485631961264874
-2.6412243188482587,-1.9052017165935224,-4.634513017231022,-5.594852726866061
-2.660276336014194,-2.024181520454017,-4.690461544499683,-5.708235333688676
-2.680518151218734,-2.1508752705764174,-4.74754389783657,-5.825662672758406
-2.7020269039244984,-2.2853727818119745,-4.8058005245641535,-5.946955523594078
-2.724880631742618,-2.4277065282020285,-4.865270079800094,-6.071863052905629
-2.7491576970246383,-2.5778407195418267,-4.92598871032915,-6.200053257859678
-2.7749361042200564,-2.735660111978113,-4.987989242907747,-6.33110378436691
-2.8022927053398377,-2.9009590287672236,-5.051300280751416,-6.464493675081908
-2.83130229562751,-3.073431208052069,-5.115945217502236,-6.599596725169042
-2.862036607708031,-3.2526612314050936,-5.181941184753926,-6.735677231450109
-2.8945632200220817,-3.438118401904197,-5.2492979570684275,-6.87188899230316
-2.9289444040411237,-3.6291540104405695,-5.318016846991459,-7.007278427455843
-2.965235944145529,-3.8250029270515102,-5.388089631266018,-7.140792612662492
-3.003485973416044,-4.024790353433605,-5.459497557392643,-7.271292840591412
-3.0437338769503803,-4.227544351595085,-5.532210485798557,-7.39757401067928
-3.086009320466331,-4.4322144117020565,-5.60618622590535,-7.518389716818867
-3.1303314645833518,-4.637695847965016,-5.681370123073538,-7.632482363457643
-3.176708423063002,-4.842859247130877,-5.757694946708114,-7.738617044078809
-3.225137015534311,-5.046583597253881,-5.835081117148903,-7.835617331325415
-3.2756028515068496,-5.247791173124402,-5.913437290462157,-7.922400641962905
-3.3280807632380935,-5.445481836791817,-5.992661296881786,-7.998010541425308
-3.3825355816060116,-5.638764207610681,-6.072641402296039,-8.061643314160342
-3.4389232236821186,-5.826881220865001,-6.153257835437643,-8.112666384062752
-3.4971920358907687,-6.009227940537014,-6.23438449927827,-8.150626711765147
-3.5572843152961386,-6.185360084815109,-6.315890766395921,-8.175248058869958
-3.6191379161442896,-6.354992482905824,-6.397643246984621,-8.18641688890517
-3.682687840973348,-6.517987500549897,-6.479507415873672,-8.184157547063148
-3.7478677159788467,-6.674334235680427,-6.561348991344304,-8.168598109229134
-3.814611058335651,-6.824119899324238,-6.643034972436595,-8.13992883080328
-3.8828522573288935,-6.967495200591784,-6.724434260744628,-8.09835541996428
-3.952527209334811,-7.10463573298036,-6.805417814944271,-8.044049421354183
-4.023573566664615,-7.235701338399697,-6.885858309157812,-7.9770978800647745
-4.095930580048612,-7.360795262608489,-6.96562928795846,-7.897454244627268
-4.1695385326746965,-7.479924685294418,-7.044603830404732,-7.80489225335537
-4.2443377795276405,-7.592963987090875,-7.1226527529382855,-7.698964417215689
-4.320267419398549,-7.699621974127984,-7.199642397110442,-7.5789667345315275
-4.397263639139829,-7.799414273771213,-7.2754320644557575,-7.443911495661798
-4.4752577818775405,-7.891642280379124,-7.349871179412376,-7.292510479331023
-4.554174204681332,-7.9753803829049374,-7.4227962842056865,-7.123171492951514
-4.633928008510382,-8.049473734861069,-7.494027999135201,-6.934012008832862
-4.714422745858992,-8.112549480201617,-7.56336811922353,-6.722894475185061
-4.795548240661009,-8.163045017216918,-7.630597063975381,-6.487488524838812
-4.877178690833178,-8.199257376690557,-7.695471949223769,-6.225365438130774
-4.959171264600084,-8.219417817533376,-7.757725603605077,-5.934129378415309
-5.041365442775417,-8.221794902967211,-7.81706689738923,-5.611587535993541
-5.123583391805089,-8.204827146850675,-7.873182772749166,-5.255956802425338
-5.2056316632735955,-8.167282401462966,-7.925742340773419,-4.866097572883254
-5.2873044872882256,-8.108435367178242,-7.974403316502252,-4.44175592940189
-5.368388840960008,-8.028247418221381,-8.018820875796271,-3.98378499895201
-5.448671315142222,-7.927525747339478,-8.058658725785792,-3.4943072660845056
-5.527946572615616,-7.808034008704313,-8.093601798446636,-2.9767758369801696
-5.606026912702659,-7.672527083749236,-8.123369556816439,-2.435898151059525
-5.682752183540152,-7.524690610479848,-8.147728538327033,-1.8774028503741387
-5.75799908964495,-7.368981679167229,-8.166502566830776,-1.3076580660838126
-5.831688906436622,-7.21038755871027,-8.179579147491614,-0.7331809301545044
-5.903792782023725,-7.0541385631000875,-8.18691095679316,-0.16010370671325447
-5.974334167654726,-6.905422619010798,-8.188511993860292,0.40632804036137327
-6.043388393844834,-6.769148652836124,-8.184448713456678,0.9621598224041193
-6.111079880373196,-6.649794124926898,-8.174827115232636,1.5049964827848106
-6.177577821622465,-6.551353803091089,-8.15977715040479,2.034129804618635
-6.243091359653375,-6.477388879940049,-8.139435852358602,2.5505516258653778
-6.307865248452776,-6.431163164788655,-8.113930336099948,3.0568984415352434
-6.372176880100663,-6.4158484976926236,-8.083361351684596,3.557380536719437
-6.436335365077589,-6.434783700517991,-8.047787546317402,4.057745521792303
-6.500683202082769,-6.49177703635613,-8.007210091099479,4.5653165816753045
-6.5656009724463305,-6.591446375495825,-7.961556925282726,5.089131261181394
-6.631515436201289,-6.739585977282255,-7.910665612670912,5.640181618956769
-6.698911295974111,-6.943516629759863,-7.854263796481344,6.231699564429418
-6.768346462271709,-7.212273555589356,-7.79194680083705,6.879282227716647
-6.840469197827603,-7.556203120335846,-7.723153978559884,7.600255813923937
-6.916031229030962,-7.98480296712079,-7.647151420420644,8.410651106380712
-6.995879258702169,-8.499879709870154,-7.563044909356837,9.315707933761542
-7.080878055800871,-9.077725678330195,-7.469887830019221,10.285108035793218
-7.171655312584173,-9.632153084334266,-7.367036749661289,11.20151078409665
-7.267976843427515,-9.97246024269251,-7.255021641820322,11.802072884443147
-7.367701445854441,-9.859186961412943,-7.137000912975891,11.756865921227398
-7.46629331546857,-9.25687557400959,-7.019432253763617,11.022118387799136
-7.558862071208666,-8.43021331833616,-6.909211069885626,9.972138849160517
-7.643164204392027,-7.635381920014565,-6.809489681394021,8.966740234809453
-7.719518023592173,-6.961042792481162,-6.7198222790459265,8.131056268439853
-7.789128451516985,-6.40569768434616,-6.638511716361528,7.4646390191355465
-7.853185428360447,-5.945812733960635,-6.5638653261701725,6.936497169775204
-7.912643555700054,-5.558359979753244,-6.494500354472421,6.516405386189187
-7.968227155497586,-5.225173903497009,-6.429336300610529,6.180935023283547
-8.020478894532555,-4.932616436255973,-6.367526950377693,5.9129888139917295
-8.069805058895115,-4.670472276020259,-6.308397062237775,5.700270490696688
