th1 (rad),w1 (rad/s),th2 (rad),w2 (rad/s),a1 (rad/s^2),a2 (rad/s^2)
2.7747732887356915,1.9436267949548056,1.0362835650540372,-0.8165630677863219,-4.296240660002396,-5.4254521234295705
2.7942095566852396,1.9006643883547816,1.028117934376174,-0.8708175890206177,-4.258848126143016,-5.674623278175564
2.8132162005687875,1.8580759070933515,1.0194097584859678,-0.9275638218023733,-4.234441204001783,-5.917194903646871
2.8317969596397212,1.8157314950533336,1.0101341202679441,-0.986735770838842,-4.223139734338196,-6.154336968521163
2.8499542745902544,1.7735000977099518,1.0002667625595558,-1.0482791405240537,-4.225091422188032,-6.387180510768932
2.8676892755673538,1.7312491834880714,0.9897839711543153,-1.112150945631743,-4.240464553501051,-6.616814607188095
2.8850017674022346,1.688844537953061,0.9786624616979979,-1.1783190917036241,-4.269439993539616,-6.844281321181171
2.9018902127817654,1.6461501380176649,0.9668792707809616,-1.246761904915436,-4.312202055855795,-7.070568328732016
2.918351714161942,1.603028117459107,0.9544116517318072,-1.317467588202756,-4.368927778229665,-7.296598839059867
2.934381995336533,1.5593388396768104,0.9412369758497796,-1.3904335765933546,-4.439774078963538,-7.523218334479585
2.949975383733301,1.514941098887175,0.9273326400838461,-1.4656657599381504,-4.52486219376971,-7.751177553690972
2.965124794722173,1.469692476949478,0.9126759824844646,-1.54317753547506,-4.624258711468775,-7.981111035331234
2.9798217194916674,1.4234498898347903,0.897244207129714,-1.6229886458283724,-4.737952438597936,-8.213510427217594
2.9940562183900155,1.376070365448811,0.8810143206714303,-1.7051237501005483,-4.8658262337934595,-8.448691657013995
3.0078169220445035,1.3274121031108763,0.8639630831704248,-1.7896106666706881,-5.007622870675361,-8.68675496166818
3.021091043075612,1.2773358744041228,0.8460669765037179,-1.8764782162873699,-5.162903925732741,-8.927536700914915
3.0338644018196534,1.2257068351467955,0.8273021943408442,-1.965753583296519,-5.331000664515892,-9.170551856921227
3.0461214701711214,1.1723968285016366,0.807644658507879,-2.057459101865731,-5.51095594286082,-9.414926180195671
3.057845438456138,1.1172872690730284,0.7870700674892217,-2.151608363667688,-5.701456288364916,-9.659317126426147
3.069018311146868,1.0602727061893793,0.7655539838525448,-2.2482015349319493,-5.900753632790792,-9.901823100945025
3.079621038208762,1.0012651698614714,0.7430719685032253,-2.3472197659413996,-6.106576695995556,-10.13988116632988
3.0896336899073766,0.9401994029015158,0.7195997708438113,-2.4486185776046985,-6.31603286039128,-10.370154372838183
3.0990356839363917,0.8770390742976031,0.6951135850677643,-2.5523201213330804,-6.5255026206002755,-10.588411356665315
3.1078060746793676,0.8117840480916003,0.6695903838544335,-2.6582042348997335,-6.730530452584051,-10.789402942083925
3.1159239151602836,0.7444787435657598,0.6430083415054362,-2.766098264320573,-6.925718319748548,-10.966743296053291
3.123368702595941,0.6752215603682743,0.6153473588622305,-2.8757656972811056,-7.10463108560492,-11.11280679189685
3.1301209181996237,0.6041752495122251,0.5865897018894194,-2.986893765200074,-7.259726820147122,-11.218656121731458
3.136162670694746,0.531577981310754,0.5567207642374187,-3.099080326417389,-7.382329213748391,-11.27402216369534
3.1414784505078535,0.45775468917327006,0.5257299609732448,-3.2118205480543423,-7.462663664089416,-11.26736119580705
3.146055997399586,0.3831280525323759,0.4936117554927013,-3.3244941600124127,-7.489982371323968,-11.186019403943808
3.14988727792491,0.30822822881913625,0.46036681389257716,-3.4363543540518506,-7.452805851191816,-11.016536923744253
3.1529695602131014,0.23370017030721807,0.42600327035205865,-3.5465197232892933,-7.339307110472248,-10.745122040441805
3.1553065619161735,0.16030709920249558,0.3905380731191657,-3.6539709436937113,-7.137858449319668,-10.358318415827778
3.1569096329081985,0.0889285147092989,0.3539983636822286,-3.7575541278519893,-6.837747568603886,-9.843872081086605
3.1577989180552914,0.02055103902326004,0.31642282240370867,-3.855992848662855,-6.430048052726987,-9.191778904568698
3.158004428445524,-0.043749441504009834,0.27786289391708013,-3.9479106377085422,-5.908599507404164,-8.395457556612154
3.1575669340304837,-0.10283543657805147,0.2383837875399947,-4.0318652132746635,-5.271017251155046,-7.452950853815012
3.156538579664703,-0.15554560908960194,0.19806513540724807,-4.106394721812814,-4.519616299373558,-6.368016830304245
3.1549831235738073,-0.20074177208333752,0.15700118818911993,-4.170074890115856,-3.662108418528535,-5.150940759829019
3.152975705852974,-0.23736285626862286,0.11530043928796137,-4.221584297714147,-2.711924961386814,-3.818893396473325
3.1506020772902876,-0.264482105882491,0.0730845963108199,-4.25977323167888,-1.688041356294848,-2.395689872894656
3.1479572562314626,-0.2813625194454395,0.030486863994031103,-4.283730130407826,-0.6142353336615625,-0.9108721723875681
3.145143631037008,-0.2875048727820551,-0.01235043731004716,-4.292838852131702,0.4822051496407938,0.6018610551619203
3.1422685823091876,-0.28268282128564715,-0.05527882583136418,-4.286820241580083,1.572212470343061,2.1067395129254707
3.1394417540963313,-0.26696069658221655,-0.09814702824716501,-4.265752846450828,2.626911676450323,3.568283595876701
3.1367721471305092,-0.24069157981771333,-0.1408045567116733,-4.230070010492061,3.6195871938825803,4.953648602799171
3.1343652313323322,-0.20449570787888752,-0.1831052568165939,-4.180533524464069,4.5273950652021995,6.2346564784770315
3.1323202742535434,-0.15922175722686552,-0.2249105920612346,-4.118186959679298,5.332620689461601,7.3892811064839155
3.1307280566812747,-0.10589555033224951,-0.2660924616580276,-4.044294148614459,6.023367363996244,8.40245572838008
3.129669101177952,-0.045661876692287065,-0.30653540314417216,-3.9602695913306585,6.593659656851008,9.26618801816882
3.1292124824110292,0.02027471987622302,-0.3461380990574787,-3.8676077111489704,7.043033651485011,9.979071306937849
3.1294152296097915,0.09070505639107314,-0.3848141761689684,-3.7678169980795917,7.37574600442793,10.545349431368576
3.130322280173702,0.16446251643535242,-0.42249234614976433,-3.662363503765906,7.599758781203066,10.973720397800886
3.1319669053380554,0.2404601042473831,-0.45911598118742336,-3.5526262997878972,7.725650502625748,11.276054999202062
3.1343715063805293,0.3177166092736406,-0.49464224418530234,-3.4398657497958767,7.765575472885249,11.466172450464768
3.1375486724732657,0.3953723640024931,-0.5290409016832611,-3.325204025291229,7.7323548989450845,11.558769702759127
3.1415023961132906,0.4726959129919439,-0.5622929419361734,-3.2096163282636376,7.638744523734802,11.56855590051295
3.14622935524321,0.549083358229292,-0.5943891052188098,-3.0939307692585083,7.496891022749264,11.509605883580267
3.151720188825503,0.6240522684567846,-0.625328412911395,-2.9788347104227055,7.317966182327323,11.394919928357611
3.1579607115100705,0.6972319302800578,-0.655116760015622,-2.8648855111391294,7.111954012406284,11.236161071480936
3.164933030812871,0.7683514704041207,-0.6837656151270133,-2.75252390042432,6.887559903528392,11.043534503324182
3.172616545516912,0.8372270694394046,-0.7112908541312565,-2.6420885553910782,6.652210518562783,10.82577308588616
3.1809888162113062,0.9037491746250325,-0.7377117396851672,-2.5338308245322168,6.4121161534570845,10.590196550113232
3.1900263079575564,0.9678703361596033,-0.7630500479304894,-2.4279288590310846,6.172372049168835,10.342817350917898
3.1997050113191525,1.0295940566512916,-0.7873293365208002,-2.3245006855219055,5.937080343840762,10.088472090829255
3.2100009518856654,1.0889648600896993,-0.8105743433760192,-2.223615964613613,5.709479252763661,9.830962998931007
3.2208906004865625,1.1460596526173359,-0.8328105030221553,-2.125306334624303,5.49207026000879,9.573198728650459
3.232351197012736,1.2009803552174239,-0.8540635663683983,-2.0295743473377983,5.286737463689147,9.317327564901811
3.24436100056491,1.2538477298543154,-0.8743593098417763,-1.9364010716887803,5.094855757274983,9.06485903286743
3.256899477863453,1.304796287427065,-0.8937233205586641,-1.845752481360106,4.917386354176677,8.816771992872763
3.269947440737724,1.3539701509688318,-0.9121808453722652,-1.7575847614313784,4.754959404717864,8.573608738082186
3.283487142247412,1.4015197450160104,-0.9297566929865789,-1.6718486740505565,4.607944247235723,8.335555534387728
3.297502339697572,1.4475991874883676,-0.9464751797270845,-1.5884931187066793,4.47650829718377,8.10251058844515
3.3119783315724556,1.4923642704602054,-0.9623601109141513,-1.5074680128222278,4.360665807709191,7.874140710439627
3.3269019742770576,1.5359709285372973,-0.9774347910423736,-1.4287266057178314,4.260317808637726,7.649928038823455
3.3422616835624304,1.5785741066236747,-0.991722057099552,-1.3522273253295969,4.175284505172097,7.42920817928035
3.358047424628667,1.6203269516753958,-1.005244330352848,-1.2779352435367934,4.10533133386948,7.21120102586116
3.3742506941454207,1.6613802650140905,-1.0180236827882159,-1.2058232332781817,4.050189759953516,6.995035410777598
3.3908644967955617,1.7018821626136258,-1.0300819151209977,-1.1358728791704058,4.009573775567275,6.779768592227223
3.407883318421698,1.7419779003692986,-1.0414406439127017,-1.0680751932481336,3.983192935100641,6.564401450561515
3.425303097425391,1.7818098297203049,-1.0521213958451832,-1.0024311787425184,3.970762648278849,6.347890130304619
3.443121195722594,1.8215174562030934,-1.0621457076326084,-0.9389522774394722,3.972012348017315,6.129154743419531
3.461336370284625,1.8612375796832665,-1.0715352304070032,-0.8776607300052769,3.9866920596970443,5.9070856397409
3.4799487460814578,1.901104500280237,-1.080311837707056,-0.8185898736078678,4.014577821696798,5.680547654000841
3.49895979108426,1.941250278497205,-1.0884977364431347,-0.7617843970678594,4.055476343131473,5.448382654764711
3.518372293869232,1.9818050419285198,-1.0961155804138134,-0.7073005705202122,4.10922923276033,5.20941064774333
3.538190344288517,2.022897334256123,-1.1031885861190156,-0.6552064640427789,4.175717091726086,4.962429623000846
3.558419317631078,2.064654505173384,-1.1097406507594434,-0.6055821678127705,4.2548637309061945,4.706214281137064
3.579065862682812,2.107203142482446,-1.115796472437571,-0.5585200250013999,4.346640749976204,4.43951372628752
3.600137894107636,2.150669549982208,-1.1213816726875852,-0.5141248877385247,4.451072698638657,4.161048172642153
3.6216445896074583,2.1951802769685944,-1.1265229215649704,-0.4725144060121032,4.568243029745763,3.869504675307569
3.643596392377144,2.240862707266052,-1.1312480656250914,-0.43381935925902754,4.698301048124782,3.563531865286877
3.6660050194498046,2.2878457177472997,-1.1355862592176817,-0.39818404060615875,4.8414700565960205,3.24173364221307
3.688883476627278,2.33626041831326,-1.1395680996237434,-0.36576670418402807,4.998056900515443,2.9026617580697227
3.7122460808104103,2.386240987318414,-1.1432257666655836,-0.3367400866033308,5.168463112290575,2.544807212340076
3.7361084906835944,2.43792561844132,-1.146593167531617,-0.31129201447993005,5.353197855049648,2.166590377244567
3.760487746868008,2.4914575969918165,-1.1497060876764162,-0.2896261107074844,5.552892856066261,1.7663497866167106
3.785402322837926,2.5469865255524793,-1.152602348783491,-0.2719626128413173,5.768319499722132,1.342329562552119
3.810872188093451,2.6046697205497007,-1.1553219749119044,-0.2585393172157961,6.000408207648338,0.8926655343195669
3.8369188852989478,2.6646738026261843,-1.1579073680840624,-0.24961266187260042,6.250270156253462,0.41537024583319365
3.8635656233252096,2.727176504188719,-1.1604034947027884,-0.24545895941426848,6.519221247602301,-0.09168271554607495
3.8908373883670966,2.792368716664742,-1.162858084296931,-0.24637578656972922,6.80880802537773,-0.6307742543183799
3.918761075533744,2.8604567969185193,-1.1653218421626281,-0.25268352911291303,7.120834862330523,-1.2043537473907706
3.947365643502929,2.9316651455418246,-1.1678486774537573,-0.2647270665868207,7.4573911605126115,-1.8150491066521717
3.9766822949583474,3.0062390571469506,-1.1704959481196255,-0.28287755765334244,7.82087637971738,-2.465669097237389
4.006744685529817,3.0844478209441246,-1.173324723696159,-0.3075342486257163,8.214019257284352,-3.159191831634292
4.037589163739258,3.166588013516968,-1.176400066182416,-0.3391261669420592,8.639885319913033,-3.8987299044424724
4.069255043874428,3.2529868667160984,-1.1797913278518366,-0.37811346598648393,9.101863283786882,-4.687457355182111
4.101784912541588,3.344005499553967,-1.1835724625117015,-0.42498803953830505,9.603615542984299,-5.528475620514873
4.135224967537128,3.44004165498381,-1.1878223429070844,-0.4802727957434538,10.148969693102964,-6.424583499168644
4.169625384086966,3.54153135191484,-1.192625070864519,-0.5445186307351402,10.741715530648223,-7.377897947005138
4.2050406976061145,3.648948507221322,-1.1980702571718704,-0.6182976102051916,11.385253270391557,-8.389245561448037
4.241530182678328,3.762801039925238,-1.2042532332739224,-0.7021900658196719,12.082011340217548,-9.457205509168352
4.27915819307758,3.883621153327413,-1.211275133932119,-0.7967621209113555,12.832513327627792,-10.576629819494872
4.317994404610855,4.011946286603691,-1.2192427551412326,-0.9025284191063042,13.633921756439378,-11.73639450069034
4.358113867476892,4.148285504168085,-1.2282680393322956,-1.0198923641132076,14.477824049887836,-12.916049555346762
4.399596722518573,4.293063744666963,-1.2384669629734277,-1.1490528596666751,15.346968320999776,-14.080960539046252
4.442527359965243,4.446533427876961,-1.2499574915700944,-1.2898624650571378,16.210647590781814,-15.175533777933849
4.486992694244012,4.60863990378478,-1.2628561162206657,-1.4416178028364763,17.01857429158427,-16.114342266001273
4.53307909328186,4.778825646700622,-1.2772722942490304,-1.6027612254964891,17.693589822162707,-16.7717180773205
4.580867349748867,4.955761544922249,-1.2932999065039954,-1.770478406269694,18.124757636852788,-16.972137182352295
4.630424965198089,5.137009121290777,-1.3110046905666923,-1.940199778093217,18.16467414854038,-16.487032196889615
4.681795056410997,5.318655862776181,-1.3304066883476244,-2.1050701000621133,17.638138447868396,-15.048422249529914
4.734981615038759,5.4950372472548645,-1.3514573893482456,-2.2555543225574124,16.371936759324115,-12.393466111671563
4.7899319875113076,5.658756614848106,-1.3740129325738197,-2.379488983674128,14.25250008347853,-8.349649230909444
4.846519553659789,5.801281615682892,-1.397807822410561,-2.462985475983223,11.302556340704044,-2.947721116423267
4.904532369816618,5.914307179089932,-1.4224376771703933,-2.4924626871474556,7.73990677021693,3.490916795381144
4.963675441607517,5.991706246792101,-1.4473623040418677,-2.457553519193644,3.96374214316347,10.371525924214458
5.023592504075438,6.031343668223736,-1.471937839233804,-2.3538382599514995,0.4436412823713978,16.985053042185157
5.083905940757676,6.03578008104745,-1.495476221833319,-2.183987729529648,-2.4387786942705953,22.738343488294298
5.1442637415681505,6.011392294104744,-1.5173160991286156,-1.9566042946467048,-4.499188579864423,27.31689743916306
5.204377664509198,5.966400408306099,-1.5368821420750827,-1.6834353202550743,-5.756103958449022,30.69923410434449
5.264041668592259,5.908839368721609,-1.5537164952776334,-1.3764429792116293,-6.359781092609332,33.05902923694341
5.323130062279475,5.845241557795516,-1.5674809250697497,-1.0458526868421951,-6.5072378992925,34.644087480277314
5.38158247785743,5.780169178802591,-1.5779394519381715,-0.6994118120394219,-6.384083116028377,35.69139832855748
5.4393841696454555,5.716328347642308,-1.5849335700585658,-0.3424978287538471,-6.139316671230603,36.388642367995104
5.496547453121878,5.654935180930002,-1.5883585483461042,0.021388594926103954,-5.88204484923631,36.86740695128685
5.553096804931179,5.596114732437639,-1.5881446623968432,0.3900626644389725,-5.68794353010579,37.21114005291828
5.609057952255555,5.539235297136581,-1.5842440357524534,0.7621740649681553,-5.607925374173235,37.46707880244032
5.6644503052269215,5.483156043394849,-1.576622295102772,1.1368448529925586,-5.6756999593880835,37.657287349967774
5.71928186566087,5.426399043800968,-1.5652538465728463,1.5134177264922364,-5.913327135560457,37.78736510021341
5.773545856098879,5.367265772445363,-1.550119669307924,1.8912913774943705,-6.3348917237740014,37.85287783421934
5.827218513823333,5.303916855207623,-1.5312067555329802,2.269820155836564,-6.948732123490913,37.84402118292227
5.880257682375409,5.234429533972714,-1.5085085539746146,2.6482603676657863,-7.758664008928274,37.74904657847476
5.932601977715136,5.1568428938834305,-1.4820259502979567,3.025750833450534,-8.764560720887486,37.5568614893033
5.984170406653971,5.069197286674556,-1.4517684419634513,3.4013194483435667,-9.962565734925915,37.25908020954051
6.034862379520717,4.969571629325297,-1.4177552474800157,3.7739102504389717,-11.345143302844315,36.85168872924082
6.08455809581397,4.856120196296854,-1.380016144975626,4.14242713773138,-12.901122189548579,36.33640503132336
6.133119297776938,4.727108974401368,-1.3385918735983122,4.505791188044613,-14.615848755489642,35.72176193177378
6.180390387520951,4.580950486846471,-1.293533961717866,4.863008807362351,-16.47153311538413,35.023908488488374
6.226199892389416,4.41623515569263,-1.2449038736442426,5.213247892247235,-18.447840584603544,34.26711330448125
6.270362243946343,4.2317567498465944,-1.1927713947217702,5.555919025292048,-20.52274648551999,33.4839539931922
6.312679811444808,4.026529284991395,-1.1372122044688497,5.89075856522397,-22.673633170290017,32.71518594220573
6.352945104294722,3.799792953288495,-1.07830461881661,6.217910424646027,-24.878561611329022,32.00929218912989
6.390943033827607,3.5510073371752044,-1.0161255145701498,6.538003346537326,-27.117592428315007,31.421712131173305
6.426453107199359,3.2798314128920545,-0.9507454811047765,6.852220467849059,-29.37395451123883,31.01370955346653
6.45925142132828,2.986091867779666,-0.882223276426286,7.162357563383725,-31.634745233185775,30.850735911002747
6.489112340006076,2.6697444154478083,-0.8105997007924487,7.470864922493752,-33.89065711254775,30.999913789373846
6.515809784160554,2.330837844322331,-0.7358910515675112,7.780864060387491,-36.13388946368848,31.525803588878585
6.539118162603778,1.969498949685446,-0.6580824109636363,8.096122096276277,-38.35278971002769,32.482740581181346
6.558813152100632,1.5859710525851691,-0.5771211900008735,8.42094950208809,-40.520662359805456,33.90043505436113
6.574672862626484,1.1807644289871146,-0.49291169497999254,8.759953852631702,-42.57429018374475,35.75678353718935
6.586480506916355,0.7550215271496672,-0.4053121564536755,9.117521688003595,-44.37485128301415,37.92762071906177
6.594030722187852,0.31127301431952564,-0.3141369395736396,9.496797895194213,-45.64091222431421,40.09841542715283
6.597143452331047,-0.14513610792361642,-0.21916896062169744,9.897782049465741,-45.844843724245024,41.623995184094206
6.595692091251811,-0.6035845451660666,-0.12019114012704002,10.314022001306682,-44.08661041925199,41.35129369253727
6.589656245800151,-1.0444506493585866,-0.01705092011397319,10.727534938232054,-39.03972512305923,37.528298697315044
6.579211739306564,-1.4348479005891788,0.09022442926834735,11.102817925205205,-29.235387386326014,28.156162848781342
6.5648632603006725,-1.727201774452439,0.2012526085203994,11.384379553693018,-14.055907164538455,12.291152828325227
6.547591242556148,-1.8677608460978237,0.3150964040573296,11.50729108197627,4.7847071242999695,-7.99242043893177
6.52891363409517,-1.819913774854824,0.4301693148770923,11.427366877586952,23.021239024543192,-27.3250428785724
6.510714496346622,-1.5897013846093921,0.5444429836529618,11.154116448801227,36.38821615888573,-40.43952377940244
6.494817482500528,-1.225819223020535,0.6559841481409742,10.749721211007204,43.49938080734634,-45.89847832232385
6.482559290270323,-0.7908254149470715,0.7634813602510462,10.290736427783965,45.68699754713926,-45.719035555052905
6.474651036120852,-0.33395543947567885,0.8663887245288858,9.833546072233437,45.00491066254515,-42.67505191152851
