th1 (rad),w1 (rad/s),th2 (rad),w2 (rad/s),a1 (rad/s^2),a2 (rad/s^2)
0.40028555685935996,-0.8888698298163121,4.761432250061168,-1.4430120632160421,-3.1727367098929173,9.438442016905654
0.3913968585611968,-0.9205971969152413,4.747002129429008,-1.3486276430469857,-2.919670083202443,9.56852728771251
0.3821908865920444,-0.9497938977472657,4.733515852998538,-1.2529423701698605,-2.6765847519914416,9.69619814327784
0.3726929476145718,-0.9765597452671801,4.72098642929684,-1.155980388737082,-2.444227922789521,9.820390256513866
0.3629273501619,-1.0010020244950752,4.709426625409469,-1.0577764861719434,-2.223337126934986,9.940169033688885
0.35291732991694924,-1.0232353957644251,4.698848860547749,-0.9583747958350546,-2.014632464194243,10.054729821897494
0.34268497595930497,-1.0433817204063676,4.689265112589399,-0.8578274976160797,-1.8188099239274569,10.163398001769398
0.3322511587552413,-1.0615698196456422,4.680686837613238,-0.7561935175983857,-1.6365357091775115,10.265628960270055
0.3216354605587849,-1.0779351767374175,4.673124902437254,-0.6535372279956851,-1.4684415019618318,10.361007945545438
0.31085610879141073,-1.0926195917570358,4.666589530157298,-0.5499271485402307,-1.3151206233874235,10.449249808120905
0.29992991287384035,-1.1057707979909102,4.661090258671895,-0.44543465045902164,-1.177125058929662,10.530198632585593
0.28887220489393123,-1.1175420485802068,4.656635912167305,-0.3401326641331657,-1.0549633361730424,10.603827263256141
0.27769678440812917,-1.128091681941937,4.653234585525973,-0.23409439150060427,-0.9490992584074915,10.670236728040958
0.2664158675887098,-1.137582674526012,4.650893641610967,-0.1273920242201947,-0.8599515117523423,10.729655568293042
0.25504004084344967,-1.1461821896435354,4.649619721368765,-0.020095468537264266,-0.7878941752157066,10.782439089906939
0.2435782189470143,-1.1540611313956923,4.649418766683392,0.08772892236180513,-0.7332581718436451,10.829068562902751
0.2320376076330574,-1.1613937131141288,4.650296055907011,0.19601960799083265,-0.6963337047287994,10.870150413431103
0.2204236705019161,-1.1683570501614167,4.652256251986919,0.3047211121251437,-0.6773737242866837,10.906415473313904
0.20874010000030194,-1.1751307874042836,4.6553034631081704,0.41378526685828276,-0.6765984732865344,10.938718377357485
0.1969887921262591,-1.181896772137149,4.659441315776753,0.5231724506318576,-0.6942011542626064,10.968037226928411
0.1851698244048876,-1.188838783679775,4.664673040283072,0.6328528229011416,-0.7303547608743979,10.995473668680416
0.17328143656808986,-1.1961423312885189,4.671001568512083,0.7428075595879458,-0.7852201112956168,11.022253568762176
0.16132001325520468,-1.2039945324014751,4.678429644107963,0.8530300952755675,-0.8589551184621284,11.049728494148917
0.14928006793118992,-1.2125840835860964,4.6869599450607184,0.9635273802170566,-0.9517253294338573,11.07937824267561
0.13715422709532896,-1.222101336880435,4.696595218862889,1.0743211626438127,-1.06371576425463,11.112814690501068
0.1249332137265246,-1.2327384945229813,4.707338430489327,1.1854493095488234,-1.1951440829374793,11.151787248363034
0.1126058287812948,-1.2446899353523562,4.719192923584815,1.2969671820324538,-1.3462751060548137,11.198190233698377
0.10015892942777124,-1.2581526864129042,4.73216259540514,1.4089490843694374,-1.517436707033585,11.254072470910316
0.0875774025636422,-1.2733270534832402,4.746252086248834,1.5214898090785407,-1.7090370778461488,11.32164942113234
0.0748441320288098,-1.2904174242617017,4.761466984339619,1.634706303289864,-1.9215833366398476,11.403318106766822
0.06193995778619278,-1.3096332576281002,4.777814047372518,1.7487394843575323,-2.1557013838810866,11.501675020456734
0.04884362520991178,-1.331190271466911,4.795301442216093,1.8637562345620997,-2.412156804068899,11.619537070001996
0.03553172249524267,-1.3553118395076,4.813939004561714,1.9799516052621198,-2.691876424067211,11.75996537360418
0.021978604100166665,-1.3822306037482721,4.833738520614335,2.0975512589981617,-2.9959698319456867,11.926291326151231
0.008156298062683944,-1.4121903020677289,4.854714033204317,2.216814172259674,-3.3257496628482524,12.122143716442157
-0.0059656049579933455,-1.4454477986962113,4.876882174926914,2.3380356094240957,-3.6827486638680935,12.351474645023313
-0.02042008294495546,-1.4822752853348922,4.900262531021155,2.461550355874329,-4.068730292260771,12.618580349536497
-0.03524283579830438,-1.5229625882575,4.924878034579898,2.587736159369694,-4.485687622909687,12.928110439692198
-0.05047246168087938,-1.5678194644865968,4.950755396173594,2.717017263766616,-4.935822241860844,13.285054930870592
-0.06615065632574535,-1.6171776869052052,4.97792556881126,2.849867813075322,-5.421489963916066,13.694691992921936
-0.0823224331947974,-1.671392586544366,5.0064242469420135,2.9868147330045414,-5.945092681183303,14.162469181943655
-0.09903635906024105,-1.730843513356199,5.036292394272059,3.128439424823978,-6.508883977088473,14.693775082625056
-0.11634479419380304,-1.7959323531270837,5.067576788520299,3.2753771756502283,-7.114638166589173,15.293533735120793
-0.1343041177250739,-1.8670787347929754,5.1003305602768005,3.4283125130014365,-7.763105042089992,15.965516576548133
-0.15297490507300365,-1.9447097852138753,5.134613685406815,3.5879676787669177,-8.453131638917851,16.71120994905786
-0.1724220029251424,-2.029241101603054,5.170493362194484,3.755079778257496,-9.180272911991821,17.527993455380933
-0.19271441394117295,-2.121043830722972,5.208044159977058,3.9303597128113053,-9.934631655261368,18.406269911193
-0.21392485224840266,-2.2203901472755856,5.247347757105172,4.114422411923235,-10.697567584423567,19.32504492708584
-0.23612875372115852,-2.327365823119821,5.2884919812244044,4.307672861194094,-11.436821268966082,20.245316373117124
-0.25940241195235675,-2.441734035809482,5.331568709836345,4.510126024925265,-12.099590650767366,21.10060995985196
-0.2838197523104516,-2.5627299423171555,5.376669970085597,4.721132124523785,-12.603376942887802,21.784362700394976
-0.30944705173362314,-2.6887637117460335,5.423881291330835,4.938975751527734,-12.825406153678575,22.13519701294358
-0.3363346888510835,-2.817017773282819,5.4732710488461125,5.16032772165717,-12.593854604643397,21.92445033209848
-0.3645048665839117,-2.942956319329253,5.524874326062684,5.379572224978155,-11.688746632256949,20.85673230720806
-0.3939344297772042,-3.0598437856518226,5.578670048312466,5.588139548050235,-9.866805537826183,18.603186872378284
-0.42453286763372244,-3.1585118410300845,5.634551443792968,5.774171416774018,-6.927795064463605,14.891733324516766
-0.4561179860440233,-3.2277897916747205,5.692293157960708,5.923088750019185,-2.827108781830679,9.660987238077897
-0.4883958839607705,-3.2560608794930275,5.7515240454609,6.0196986223999644,2.203342220742209,3.2255399035580683
-0.5209564927557008,-3.2340274572856056,5.8117210316848995,6.051954021435545,7.61960243614328,-3.6766220775065506
-0.5532967673285568,-3.157831432924173,5.872240571899255,6.015187800660479,12.702462157192393,-10.073847387341065
-0.5848750816577986,-3.030806811352249,5.932392449905859,5.914449326787069,16.826272593563548,-15.130330942340729
-0.615183149771321,-2.8625440854166135,5.99153694317373,5.7631460173636615,19.67987427420808,-18.446113400297605
-0.6438085906254872,-2.6657453426745326,6.049168403347367,5.578684883360685,21.296263484172968,-20.09176320550565
-0.6704660440522325,-2.452782707832803,6.104955252180973,5.377767251305628,21.924004275524464,-20.42694295326455
-0.6949938711305605,-2.2335426650775583,6.158732924694029,5.173497821772982,21.871057327455,-19.884726730849696
-0.7173292977813361,-2.0148320918030085,6.210467902911759,4.9746505544644855,21.406389696303233,-18.838166715648594
-0.7374776186993662,-1.800768194839976,6.260214408456404,4.786268887307999,20.72637439254533,-17.556757103233103
-0.755485300647766,-1.5935044509145229,6.308077097329484,4.6107013162756685,19.958738650753208,-16.21404517681946
-0.7714203451569112,-1.3939170644069907,6.35418411049224,4.448560864507474,19.179396521970908,-14.912129088412973
-0.7853595158009811,-1.2021230991872816,6.398669719137315,4.299439573623344,18.429472894741334,-13.7057334439326
-0.7973807467928539,-1.0178283702398683,6.441664114873548,4.1623822391840175,17.72837395433739,-12.620414556957131
-0.8075590304952526,-0.8405446306964943,6.483287937265389,4.0361780936144465,17.082661671909356,-11.66476312462793
-0.8159644768022175,-0.6697180139774007,6.523649718201533,3.9195304623681673,16.49168614550018,-10.838041182924352
-0.8226616569419916,-0.504801152522399,6.562845022825214,3.8111500505389238,15.951013172251539,-10.13474759749055
-0.8277096684672155,-0.3452910207998836,6.600956523330603,3.7098025745640184,15.454448034389264,-9.547246345208109
-0.8311625786752144,-0.19074654045599096,6.6380545490762435,3.6143301111119372,14.995199125723737,-9.067219200215474
-0.8330700440797743,-0.04079454919875358,6.674197850187363,3.5236579191097825,14.56652759818978,-8.686423799575762
-0.8334779895717618,0.10487072678314421,6.709434429378461,3.436793681114025,14.162095792735144,-8.397050644514831
-0.8324292823039303,0.24649168471049565,6.743802366189601,3.3528231746688766,13.776142399803089,-8.19185457311911
-0.8299643654568254,0.3842531087085266,6.77733059793629,3.2709046289376853,13.403560090199425,-8.064164250241804
-0.8261218343697401,0.5182887096105209,6.810039644225666,3.1902629864352674,13.039919804234858,-8.00783010010739
-0.8209389472736348,0.6486879076528694,6.841942274090019,3.1101846854341937,12.681467022666961,-8.017145560786542
-0.8144520681971061,0.775502577879539,6.8730441209443605,3.0300132298263285,12.325104153236394,-8.086761512294393
-0.8066970424183108,0.898753619411903,6.903344253242624,2.9491456147033848,11.968366583988152,-8.21160493510686
-0.7977095062241917,1.0184372852517845,6.932835709389658,2.867029565352316,11.609396130181665,-8.386807727705813
-0.7875251333716738,1.134531246553601,6.961506005043181,2.783161488075258,11.246913428779477,-8.607648627421757
-0.7761798209061378,1.2470003808413959,6.989337619923933,2.6970850018010406,10.88018965218662,-8.869509439209873
-0.7637098170977238,1.355802277363262,7.016308469941944,2.608389907408942,10.5090173254853,-9.167845753858282
-0.7501517943240912,1.4608924506181151,7.042392369016033,2.516711449870359,10.13367980091851,-9.498171722285324
-0.7355428698179101,1.5622292486273002,7.067559483514737,2.421729732647506,9.75491892546088,-9.856058068186938
-0.7199205773316371,1.659778437881909,7.0917767808412115,2.3231691519656366,9.373900543303279,-10.237142266595257
-0.703322792952818,1.7535174433149416,7.115008472360868,2.220797729299684,8.99217764960692,-10.637149635567226
-0.6857876185196685,1.8434392198110108,7.137216449653865,2.1144262329440116,8.61165121968658,-11.051923953449878
-0.6673532263215584,1.9295557320078767,7.158360711983305,2.0039069934095126,8.23452895585143,-11.477466111513985
-0.6480576690014795,2.011901021566391,7.178399781917401,1.8891323322943727,7.863282407000427,-11.909979236471116
-0.6279386587858157,2.0905338456363953,7.197291105240344,1.7700325399296615,7.500603112912513,-12.345918669582812
-0.6070333203294517,2.1655398767655205,7.214991430639641,1.6465733532338334,7.149358597952912,-12.782045171361185
-0.5853779215617965,2.2370334627450497,7.231457164171979,1.5187529015202215,6.812549181161457,-13.215479736951337
-0.5630075869343459,2.3051589545566644,7.246644693187181,1.386598104150708,6.493266675661008,-13.64375846083443
-0.5399559973887793,2.3700916213132746,7.260510674228688,1.2501605195423637,6.19465611447302,-14.064885982989837
-0.5162550811756466,2.4320381824580046,7.273012279424112,1.1095116597124655,5.9198816563879975,-14.477386182092074
-0.4919346993510665,2.4912369990218846,7.284107396021237,0.9647377978915447,5.672097788161377,-14.880348950476451
-0.46702232936084764,2.5479579769034983,7.293754774000152,0.8159343083867802,5.454426840499159,-15.273472079896765
-0.44154274959181267,2.60250224530849,7.30191411708402,0.6631995875878125,5.269943665399137,-15.657097486792258
-0.41551772713872775,2.655201681962481,7.308546112959898,0.5066286127198899,5.121668067640665,-16.0322411783792
-0.38896571031910293,2.7064183626388876,7.313612399087097,0.3463062009360979,5.012565222219005,-16.400616456096973
-0.361901526692714,2.7565440148610776,7.317075461096458,0.18230003637512815,4.945553807575645,-16.764649795327497
-0.33433608654410324,2.805999552936834,7.3188984614602095,0.014653538421853185,4.923520884093931,-17.127488517918096
-0.3062760910147349,2.855234761777773,7.319044996844428,-0.15662134675732778,4.94934155343325,-17.49299862036317
-0.27772374339695716,2.9047281773121054,7.317478783376855,-0.3315513329609595,5.025899991113569,-17.865749685513453
-0.2486764616238361,2.954987177223241,7.314163270047246,-0.5102088298160941,5.15610630020055,-18.250981309466784
-0.2191265898516037,3.0065482402252464,7.309061181749085,-0.6927186429107619,5.342900384504298,-18.654541334577466
-0.18906110744935123,3.0599772440702893,7.302133995319977,-0.8792640562565366,5.58922904672108,-19.082779493216602
-0.15846133500864834,3.1158695345375,7.293341354757412,-1.0700918511887025,5.897974780774395,-19.54236944219519
-0.12730263966327335,3.174849282345244,7.282640436245525,-1.2655155456106544,6.271802705287746,-20.040015465983682
-0.09555414683982091,3.2375673093981217,7.2699852807894185,-1.4659157002704912,6.712873443114419,-20.58197411762621
-0.0631784737458397,3.304696043829266,7.2553261237867135,-1.6717354414467533,7.222341076930345,-21.173281021628203
-0.030131513307547035,3.3769194545985695,7.238608769372246,-1.8834682516630354,7.799511901132732,-21.816512462318986
0.0036376812384386614,3.454914573609897,7.219774086855615,-2.1016333762862254,8.440475815618615,-22.509822269788724
0.03818682697453763,3.539319331766083,7.198757753092753,-2.3267315989841126,9.135932887550219,-23.243869984308706
0.07358002029219846,3.630678660641585,7.175490437102912,-2.5591702988272,9.867824453646579,-23.99709862433507
0.1098868068986143,3.729356905178051,7.14989873411464,-2.7991412850705504,10.604264868617195,-24.728662806622957
0.1471803759503948,3.8353995538642227,7.121907321263934,-3.04642791313678,11.292238565173383,-25.368265120812822
0.185534371489037,3.9483219395159566,7.091443042132566,-3.3001105643449082,11.847790860954277,-25.80252918602878
0.22501759088419657,4.066799848125499,7.058441936489117,-3.558135856205196,12.144463926451875,-25.858971280724333
0.26568558936545156,4.188244487390018,7.022860577927065,-3.8167255690124393,12.003329336389564,-25.29227375490982
0.30756803423935175,4.308277780753913,6.98469332223694,-4.069648306561538,11.19308877303827,-23.784731414567815
0.35065081204689086,4.420208668484296,6.943996839171325,-4.307495620707216,9.4559969447436,-20.98292628735143
0.3948528987317338,4.514768637931732,6.900921882964252,-4.51732488358073,6.579375698965768,-16.59825291025161
0.4400005851110511,4.58056239492139,6.855748634128445,-4.683307412683246,2.518461456116173,-10.579124348830884
0.485806209060265,4.605747009482552,6.808915560001613,-4.7890986561715545,-2.4721235219223745,-3.2946052200460527
0.5318636791550905,4.581025774263328,6.761024573439897,-4.822044708372015,-7.804240888962953,4.419405652395983
0.5776739368977237,4.502983365373698,6.712804126356177,-4.7778506518480555,-12.714998247499368,11.485093149024358
0.6227037705514608,4.375833382898704,6.665025619837697,-4.662999720357812,-16.56490840608586,17.002523932138565
0.6664621043804478,4.210184298837845,6.618395622634119,-4.492974481036426,-19.06814722718986,20.57250248367642
0.7085639473688263,4.0195028265659465,6.573465877823755,-4.287249456199662,-20.304248623994926,22.31141192347098
0.7487589756344858,3.8164603403259973,6.530593383261758,-4.064135336964952,-20.564675648210063,22.63419734256548
0.7869235790377458,3.6108135838438966,6.489952029892108,-3.8377933635392973,-20.18397835339788,22.016335180313508
0.8230317148761848,3.408973800309918,6.451574096256715,-3.6176300117361624,-19.44187424717971,20.855954031750116
0.857121452879284,3.214555057838121,6.415397796139354,-3.4090704714186613,-18.53543999482329,19.434690038583984
0.8892670034576652,3.029200657889888,6.3813070914251675,-3.2147235710328212,-17.588462072365193,17.93082292320409
0.919559010036564,2.853316037166236,6.34915985571484,-3.0354153418007805,-16.67160687437289,16.44763604205702
0.9480921704082264,2.686599968422507,6.318805702296832,-2.87093898138021,-15.821045171393767,15.039616864484469
0.9749581700924514,2.528389516708569,6.29009631248303,-2.7205428127353657,-15.052098877399805,13.73167162190676
1.0002420652595372,2.377868527934571,6.262890884355676,-2.583226096516298,-14.368198079698287,12.53175403846504
1.024020750538883,2.2341865471375884,6.237058623390514,-2.4579085561316476,-13.76639856978965,11.438660387527689
1.0463626160102588,2.096522561439692,6.212479537829197,-2.3435219522563706,-13.240638256096302,10.446643473072987
1.0673278416246557,1.964116178878729,6.1890443183066335,-2.2390555175256406,-12.783591682921534,9.54805115504312
1.086969003413443,1.8362802620495136,6.166653763131377,-2.1435750059752094,-12.387685758393342,8.734780081209047
1.105331806033938,1.71240340446558,6.1452180130716245,-2.056227205163119,-12.045626104008644,7.999035733494758
1.122455840078594,1.5919471434254935,6.1246557410199935,-1.9762368478281716,-11.750644212113865,7.333694636487707
1.138375311512849,1.4744407013043548,6.104893372541712,-1.9028999014632946,-11.496589402020572,6.732443609469074
1.1531197185258926,1.3594748072841492,6.0858643735270785,-1.8355754653686038,-11.277937666578794,6.189798040363462
1.1667144665987341,1.2466954306183613,6.067508618873393,-1.7736774849649692,-11.0897587526559,5.701057910662762
1.1791814209049178,1.1357978430918023,6.049771844023743,-1.7166669058583417,-10.927664788538971,5.262234893296637
1.190539399335836,1.0265211952064126,6.03260517496516,-1.6640445569253752,-10.787753283488374,4.869969029428431
1.2008046112879,0.9186436623715288,6.015964729395906,-1.615344866631091,-10.666551275671196,4.521444914560023
1.2099910479116154,0.8119781496148168,5.9998112807295945,-1.5701304174854909,-10.560963955227626,4.2143124095456415
1.2181108294077636,0.7063685100625405,5.984109976554739,-1.5279872933900345,-10.46822915587283,3.9466141175708946
1.225174514508389,0.6016862185038122,5.968830103620839,-1.4885211522143256,-10.385878054831018,3.716720339875314
1.231191376693427,0.497827437955502,5.953944892098695,-1.4513539488155724,-10.311701873764815,3.5232714160516294
1.236169651072982,0.3947104192178539,5.93943135261054,-1.4161212346550562,-10.243724114055569,3.3651269612610317
1.2401167552651606,0.2922731780772982,5.925270140263989,-1.382469965042446,-10.180177760551915,3.241321352479864
1.2430394870459336,0.19047140047177902,5.911445440613565,-1.3500567515176474,-10.119486874439483,3.15102478394929
1.2449442010506513,0.08927653172738419,5.897944873098388,-1.3185465036781545,-10.060252025362127,3.0935092476398722
1.2458369663679252,-0.011325988526237077,5.884759408061607,-1.2876114112017558,-10.001239061018879,3.0681188631479674
1.2457237064826627,-0.11133837913642587,5.871883293949589,-1.256930222570276,-9.941370765710248,3.0742440636903097
1.2446103226912986,-0.21075208679352836,5.8593139917238855,-1.226187781933373,-9.879721010602955,3.1112992303576683
1.2425028018233633,-0.3095492968995579,5.847052113904552,-1.1950747896297964,-9.815511044403976,3.178703450261049
1.2394073088543678,-0.4077044073435977,5.835101366008254,-1.1632877551271859,-9.7481076123886,3.2758641532664723
1.2353302647809319,-0.5051854834674837,5.823468488456982,-1.130529113594521,-9.677022624234116,3.4021634558225107
1.2302784099462571,-0.6019557097098249,5.812163197321037,-1.0965074790362959,-9.601914117487302,3.556947108840949
1.224258852849159,-0.6979748508846979,5.801198122530674,-1.0609380079478863,-9.522588284764504,3.7395160098751195
1.217279104340312,-0.793200733732343,5.790588742451195,-1.023542847849135,-9.439002350230325,3.9491202981358837
