th1 (rad),w1 (rad/s),th2 (rad),w2 (rad/s),a1 (rad/s^2),a2 (rad/s^2)
4.579905877268054,1.0789563941161948,1.236638223392409,2.833244696605953,11.284644410573547,1.5648107819862123
4.590695441209216,1.1918028382219303,1.2649706703584684,2.848892804425815,11.12515887919926,1.3317620009040052
4.602613469591435,1.3030544270139228,1.2934595984027266,2.862210424434855,10.970440056557967,1.108088833987808
4.615644013861574,1.4127588275795024,1.3220817026470753,2.8732913127747333,10.822485880847292,0.8971562140788071
4.629771602137369,1.5209836863879753,1.3508146157748226,2.8822628749155212,10.682856438960009,0.7016144579432084
4.644981439001249,1.6278122507775754,1.379637244523978,2.8892790194949534,10.552652245162589,0.5233843944101424
4.661259561509025,1.7333387732292014,1.4085300347189276,2.8945128634390547,10.432508928648081,0.36366330348350034
4.678592949241318,1.8376638625156823,1.437475163353318,2.8981494964738896,10.322605506390119,0.22294733275620238
4.696969587866475,1.9408899175795835,1.466456658318057,2.9003789698014515,10.222683124311976,0.10106588291476455
4.71637848704227,2.0431167488227033,1.4954604480160714,2.901389628630599,10.132071159726983,-0.0027763267636213363
4.736809654530497,2.144437460419973,1.5244743443023774,2.9013618653629627,10.049717825879155,-0.0899532905334894
4.758254029134697,2.2449346386787647,1.553487962956007,2.9004623324576277,9.974222831977928,-0.16237092473175554
4.780703375521485,2.344676866998544,1.5824925862805832,2.89883862321031,9.903870159239915,-0.2224217407295851
4.80415014419147,2.443715568590943,1.6114809725126864,2.8966144058030143,9.836659555360486,-0.27294246468534433
4.82858729987738,2.542082164144548,1.6404471165707166,2.8938849811561607,9.770335880829633,-0.3171753222033945
4.854008121518825,2.6397855229528444,1.6693859663822783,2.8907132279341266,9.702415929622243,-0.3587330182565051
4.880405976748353,2.736809682249067,1.6982930986616196,2.8871258977515617,9.630212776458016,-0.40156684906823925
4.9077740735708435,2.8331118100136474,1.7271643576391351,2.8831102292608795,9.550858066302812,-0.44993688713767205
4.93610519167098,2.9286203906766755,1.755995459931744,2.878610860389503,9.461322960198059,-0.508382778332286
4.965391395577747,3.0232336202786563,1.784781568535639,2.87352703260618,9.358438690964675,-0.5816933712972248
4.995623731780533,3.116818007188303,1.8135168388617007,2.867710098893208,9.238917871406798,-0.6748731533610999
5.026791911852416,3.209207185902371,1.8421939398506328,2.860961367359597,9.099377845341355,-0.793103284151947
5.05888398371144,3.3002009643557844,1.870803553524229,2.8530303345180776,8.936367485920995,-0.941694892338813
5.091885993354998,3.3895646392149943,1.8993338568694096,2.8436133855946895,8.74639893163235,-1.1260322315790592
5.125781639747148,3.477028628531318,1.9277699907253565,2.832353063278899,8.52598580971953,-1.3515032848007262
5.16055192603246,3.562288486628513,1.9560935213581454,2.8188380304308915,8.27168952645382,-1.6234154752659369
5.1961748108987456,3.6450053818930512,1.9842819016624542,2.802603875678232,7.980175194336678,-1.9468943116459752
5.232624864717676,3.724807133836418,2.0123079404192366,2.7831349325617722,7.648278701010975,-2.326763096458889
5.26987293605604,3.801289920846528,2.0401392897448543,2.7598673015971835,7.273086277112468,-2.767402308321255
5.307885835264505,3.874020783617653,2.067737962760826,2.732193278513971,6.852027653549731,-3.272587986312657
5.346626043100682,3.9425410601531503,2.0950598955459654,2.6994673986508446,6.382983464342092,-3.8453094679518056
5.386051453702214,4.0063708947965715,2.122054569532474,2.6610143039713265,5.864406890169418,-4.487568236072096
5.42611516265018,4.065014963698266,2.148664712572187,2.6161386216106055,5.295458584272235,-5.200161487321957
5.466765312287162,4.117969549540988,2.174826098788293,2.564137006737386,4.676152611480514,-5.982456401631645
5.507945007782572,4.164731075655793,2.200467468855667,2.5043124427210692,4.007509413301753,-6.8321639821827755
5.54959231853913,4.204806169788811,2.225510593282878,2.4359908028992416,3.291709674029165,-7.745124689815349
5.591640380237018,4.237723266529103,2.2498705013118703,2.3585395560010882,2.532240456856014,-8.71512174102464
5.6340176129023085,4.263045671097663,2.273455896871881,2.271388338590842,1.7340222562911953,-9.733741544716118
5.676648069613285,4.280385893660575,2.2961697802577894,2.174050923143681,0.9035029573833927,-10.790303798699496
5.719451928549891,4.289420923234409,2.3179102894892263,2.0661478851566857,0.04870254103718475,-11.871885531388026
5.7623461377822345,4.289907948644781,2.338571768340793,1.9474290298428054,-0.8208086855412325,-12.963462974444477
5.805245217268682,4.2816998617893685,2.3580460586392213,1.8177944000983606,-1.6940148386832146,-14.04819165232096
5.848062215886576,4.264759713402536,2.376224002640205,1.677312483575151,-2.558655529844957,-15.107837679705344
5.890709813020601,4.239173158104086,2.3929971274759567,1.5262341067780976,-3.4015305016754884,-16.123361585033667
5.933101544601642,4.205157853087331,2.4082594685437377,1.3650004909277609,-4.208905955552483,-17.07564036330875
5.9751531231325155,4.1630687935318065,2.4219094734530153,1.1942440872946734,-4.967009098390893,-17.946295214521342
6.0167838110678336,4.113398702547897,2.4338519143259623,1.01478113514946,-5.662584630129226,-18.71857391531406
6.057917798093312,4.056772856246605,2.443999725677457,0.8275953959963194,-6.283474852061311,-19.378221230765977
6.098485526655778,3.9939381077259917,2.4522756796374203,0.6338131836886596,-6.8191761864004325,-19.914261740462265
6.138424907733038,3.9257463458619872,2.458613811474307,0.4346705662840369,-7.261321448214893,-20.31961993795952
6.177682371191658,3.8531331313798383,2.4629605171371476,0.23147436690444168,-7.6040407590850885,-20.59151401077347
6.216213702505456,3.7770927237889875,2.465275260806192,0.02555922679670697,-7.844164796796419,-20.7315816833387
6.253984629743346,3.698651075821023,2.465530853074159,-0.18175659003668004,-7.981250823179983,-20.745725901889507
6.290971140501557,3.6188385675892234,2.463713287173792,-0.3892138490555751,-8.01743190259867,-20.64370008890727
6.327159526177449,3.538664248563237,2.459821148683236,-0.5956508499446478,-7.957109399298405,-20.438481585746977
6.362546168663082,3.459093154570253,2.45386464018379,-0.8000356658021176,-7.806524784503239,-20.14550278475839
6.397137100208784,3.3810279067252202,2.4458642835257685,-1.0014906936497014,-7.57325648662353,-19.781819248756282
6.430947379276036,3.3052953418589848,2.4358493765892715,-1.1993088861372643,-7.265689951318724,-19.365292248716255
6.464000332694626,3.2326384423457974,2.4238562877278986,-1.3929618086244269,-6.892504777695618,-18.91385142197592
6.496326717118084,3.163713394568841,2.409926669641654,-1.5821003228441861,-6.462213513670931,-18.44488509526777
6.527963851063772,3.099091259432132,2.3941056664132123,-1.766549173796864,-5.982774786096445,-17.974785240189934
6.558954763658093,3.0392635115711673,2.3764401746752437,-1.9462970261987633,-5.4612912387620565,-17.518654635309456
6.589347398773805,2.9846505991835466,2.356977204413256,-2.121483572551858,-4.903792076452139,-17.09016813642169
6.61919390476564,2.9356126784190253,2.3357623686877376,-2.2923852539160747,-4.3150919545397715,-16.701569244376632
6.6485500315498305,2.8924617588736274,2.312838516148577,-2.459400946359841,-3.6987128764337323,-16.363777476779347
6.677474649138567,2.85547463010929,2.2882445066849786,-2.6230387211276347,-3.056853479117234,-16.086580628155836
6.70602939543966,2.8249060953181178,2.2620141194737022,-2.783904527409193,-2.390390101654574,-15.878887623802646
6.734278456392841,2.801002194301572,2.2341750741996105,-2.9426934036472194,-1.6988957667542786,-15.749020980446002
6.762288478335856,2.7840132366340296,2.2047481401631384,-3.1001836134516796,-0.9806661986241947,-15.705031574741021
6.7901286107021965,2.7742065746477875,2.1737463040286213,-3.25723392919909,-0.2327460493511968,-15.755021263179366
6.817870676448674,2.7718791141542756,2.1411739647366304,-3.4147841418308835,0.5490462005581814,-15.907459636265001
6.845589467590217,2.7773695761598574,2.1070261233183216,-3.5738587381935334,1.3700889224748714,-16.1714782651937
6.873363163351815,2.791070465384606,2.0712875359363863,-3.7355735208454703,2.2369070298670826,-16.55711687924014
6.901273868005661,2.8134395356832766,2.0339318007279314,-3.9011446896378716,3.157066882165264,-17.075477125523705
6.929408263362494,2.8450102045049293,1.9949203538315528,-4.071899460893109,4.138954000829954,-17.738704235397382
6.957858365407543,2.886399744513229,1.9542013592226217,-4.249286503247083,5.191322680167129,-18.559653503678884
6.986722362852675,2.9383129713149,1.911708494190151,-4.434883038283871,6.322423768807695,-19.550987254686316
7.016105492565824,3.001537209002977,1.8673596638073122,-4.630392910830735,7.538376209556923,-20.723256188190188
7.046120864655854,3.0769209710985463,1.8210557346990048,-4.837625472712637,8.840212696244402,-22.081195246954405
7.0768900743668395,3.1653230980609903,1.7726794799718784,-5.0584374251821815,10.218649485859533,-23.61693653470745
7.10854330534745,3.267509592919586,1.7220951057200566,-5.294606790529256,11.645055700785061,-25.298037811576428
7.141218401276645,3.3839601499274363,1.669149037814764,-5.547587168645021,13.05635068040652,-27.04716721618987
7.17505800277592,3.5145236567315017,1.6136731661283137,-5.81805884080692,14.330961173691312,-28.709405007120278
7.210203239343235,3.6578332684684147,1.5554925777202444,-6.105152890878123,15.253749607809372,-30.004101306750567
7.246781572027919,3.8103707645465086,1.4944410488114632,-6.405193903945628,15.473361887892349,-30.465740236312985
7.284885279673384,3.965104383425432,1.430389109772007,-6.709851306308758,14.472664341661858,-29.401938548034103
7.324536323507639,4.109831026842051,1.3632905967089193,-7.0038706917891,11.609196423771612,-25.946865989545735
7.365634633776059,4.225922991079767,1.2932518897910283,-7.263339351684557,6.323514061043524,-19.345279525745827
7.407893863686857,4.289158131690202,1.2206184962741828,-7.456792146942016,-1.4275181018244896,-9.546036945173364
7.450785445003759,4.274882950671957,1.1460505748047627,-7.552252516393749,-10.718902905290445,2.180987202114608
7.493534274510479,4.167693921619053,1.0705280496408252,-7.530442644372603,-19.74211780572676,13.371143567428552
7.53521121372667,3.9702727435617855,0.9952236231970991,-7.396731208698317,-26.706783070576822,21.61360474289565
7.574913941162287,3.7032049128560174,0.921256311110116,-7.180595161269361,-30.8226991952949,25.892362733471643
7.611945990290847,3.3949779209030684,0.8494503594974223,-6.921671533934644,-32.41565948263657,26.719207342567636
7.6458957694998775,3.0708213260767026,0.7802336441580758,-6.654479460508967,-32.32870372058315,25.291378414319787
7.6766039827606445,2.747534288870871,0.7136888495529862,-6.401565676365769,-31.36142236199497,22.72090827627121
7.704079325649353,2.4339200652509216,0.6496731927893284,-6.174356593603057,-30.05872591280787,19.75471248725099
7.728418526301862,2.133332806122843,0.5879296268532979,-5.976809468730547,-28.72715807472145,16.80684680397569
7.74975185436309,1.8460612253756283,0.5281615321659924,-5.80874100069079,-27.51418270114368,14.073182918524724
7.768212466616847,1.5709193983641916,0.47007412215908445,-5.668009171505543,-26.476754132043176,11.628062786089965
7.783921660600488,1.3061518570437598,0.413394030444029,-5.551728543644643,-25.625208185709738,9.485282833334617
7.796983179170926,1.0498997751866623,0.3578767450075826,-5.456875715311297,-24.94787686278944,7.631856373848428
7.807482176922793,0.8004210065587679,0.3033079878544696,-5.380557151572813,-24.423881367613106,6.045298673784132
7.815486386988381,0.5561821928826368,0.24950241633874148,-5.320104164834971,-24.02939490452255,4.7019039516216266
7.821048208917207,0.3158882438374113,0.19630137469039177,-5.2730851253187545,-23.740499367806724,3.5803636745608207
7.824207091355581,0.07848325015934407,0.14357052343720422,-5.237281488573147,-23.53433996118385,2.663066394935616
7.824991923857175,-0.15686014945249444,0.09119770855147274,-5.210650824623791,-23.389471219911382,1.936285700496683
7.8234233223626495,-0.3907548616516082,0.03909120030523484,-5.191287967618824,-23.28585235912067,1.38986024829685
7.819515773746134,-0.623613385242815,-0.012821679370953402,-5.177389365135856,-23.204722472020617,1.016659576452773
7.813279639893706,-0.8556606099630211,-0.06459557302231196,-5.167222769371328,-23.128468923598504,0.8119732512659769
7.804723033794075,-1.086945299199006,-0.11626780071602524,-5.159103036858668,-23.040542040335094,0.7728844744118727
7.793853580802085,-1.317350719602357,-0.16785883108461191,-5.15137419211455,-22.9254378621931,0.8976536938826896
7.780680073606061,-1.546605098224288,-0.2193725730057574,-5.1423976551757224,-22.76875383233494,1.185122977692289
7.765214022623818,-1.7742926365476375,-0.27079654955751464,-5.1305464253988,-22.557312515564757,1.63414753098416
7.747471096258342,-1.9998657617032851,-0.32210201381150266,-5.114204950088958,-22.279342166813645,2.243061272548897
7.727472438641309,-2.2226591833714218,-0.37324406331239224,-5.091774337363469,-21.924698605412747,3.0091858113467334
7.705245846807594,-2.441906169425549,-0.42416180668602693,-5.061682479250002,-21.48510982318108,3.9283947182202996
7.6808267851133385,-2.65675726765736,-0.47477863147852695,-5.022398532067799,-20.954423017337284,4.994746616177408
7.654259212436765,-2.866301497830733,-0.5250026167992049,-4.972451065906024,-20.328833441214748,6.200200727969579
7.625596197458457,-3.0695898322428805,-0.5747271274582652,-4.9104490586263285,-19.607075733060707,7.534426928878422
7.594900299136029,-3.2656605895734874,-0.6238316180445285,-4.835104789337544,-18.79056117575368,8.984719228915678
7.562243693240294,-3.453566201331024,-0.6721826659379039,-4.745257597048387,-17.883448378058063,10.536017447770503
7.527708031226984,-3.632400685111605,-0.7196352419083878,-4.639897422570682,-16.892639636428076,12.171037365649402
7.4913840243758685,-3.8013270814758857,-0.7660342161340946,-4.5181870489141875,-15.827700071760352,13.87050560871332
7.45337075356111,-3.959604082193489,-0.8112160866232365,-4.3794819928270545,-14.70070087518909,15.613492584743838
7.413774712739175,-4.10661109094538,-0.855010906551507,-4.223347066979616,-13.525991156668399,17.37783520052869
7.372708601829721,-4.241871002512064,-0.8972443772213032,-4.049568714974329,-12.319904816479818,19.140640669607087
7.3302898918046,-4.365070050676862,-0.9377400643710465,-3.8581623082782586,-11.100409805036143,20.87886278616062
7.286639191297832,-4.476074148727223,-0.9763216874538291,-3.6493736804166526,-9.886707714904432,22.56994161214459
7.241878449810559,-4.574941225876268,-1.0128154242579956,-3.4236742642952067,-8.698792670286235,24.19249560035641
7.196129037551796,-4.66192915257913,-1.0470521669009476,-3.181749308291643,-7.556980687769051,25.727051117373566
7.149509746026005,-4.737498959456821,-1.078869659983864,-2.9244787971179074,-6.481424473363889,27.156788202778444
7.102134756431436,-4.80231320419046,-1.108114447955043,-2.652910915090123,-5.491633821565783,28.468274164042075
7.054111624389532,-4.857229542406118,-1.1346435571059443,-2.3682281734497024,-4.60602758106512,29.6521500495611
7.005539328965471,-4.903289818216769,-1.1583258388404414,-2.0717066729540914,-3.8415482292836085,30.70373143400139
6.956506430783303,-4.941705300509605,-1.1790429055699823,-1.7646693586140776,-3.2133729471355545,31.623486451870857
6.907089377778207,-4.973839029980961,-1.196689599156123,-1.448434494095369,-2.7347544441542224,32.4173620100155
6.857350987478397,-5.001186574422503,-1.2111739440970768,-1.124260873995214,-2.4170200441981087,33.096943646366924
6.807339121734172,-5.025356774864484,-1.222416552837029,-0.7932914375315447,-2.2697489832679225,33.67945404345588
6.757085553985527,-5.048054264697163,-1.2303494672123445,-0.456496897096986,-2.3011366014008807,34.187616763934464
6.706605011338556,-5.071065630711172,-1.2349144361833144,-0.11462072945764135,-2.518541663424889,34.64943135884568
6.655894355031444,-5.096251047345421,-1.236060643477891,0.2318735841308155,-2.929200653018511,35.09791909340842
6.60493184455799,-5.125543053875606,-1.2337419076365828,0.5828527750648997,-3.541080472390051,35.57090019767071
6.553676414019234,-5.160953858599506,-1.2279133798859339,0.9385617770416068,-4.363825769613655,36.11084753359292
6.502066875433239,-5.204592116295643,-1.2185277621155177,1.299670252377536,-5.409731497420525,36.76481766034823
6.450020954270283,-5.258689431269849,-1.2055310595917423,1.6673184289810183,-6.694618977027391,37.584368473362915
6.397434059957584,-5.325635621040123,-1.188857875301932,2.0431621137146476,-8.238382055763841,38.625191487382686
6.344177703747183,-5.408019441597761,-1.1684262541647856,2.4294140285884747,-10.064734495662227,39.94583098207326
6.290097509331206,-5.508666786554383,-1.144132113878901,2.8288723384092074,-12.199203896819927,41.60415870567707
6.235010841465662,-5.630658825522582,-1.1158433904948089,3.244913925465978,-14.663436002083085,43.64888186371719
6.178704253210436,-5.777293185543413,-1.083394251240149,3.68140274410315,-17.461942040577238,46.10065093254821
6.120931321355002,-5.951912605949185,-1.0465802237991175,4.1424092534286325,-20.55379331266696,48.91225923462555
6.06141219529551,-6.157450539075855,-1.0051561312648312,4.631531845774888,-23.79560029324445,51.88881718271115
5.999837689904751,-6.395406542008299,-0.9588408128070823,5.150420017601999,-26.834154537344073,54.53770620210915
5.935883624484668,-6.66374808738174,-0.9073366126310624,5.695797079623091,-28.92679519296791,55.81785141760352
5.869246143610851,-6.953016039311419,-0.8503786418348315,6.253975593799126,-28.713939132649212,53.823297620835575
5.7997159832177365,-7.240155430637911,-0.7878388858968403,6.792208570007482,-24.15991421172486,45.70576701672382
5.727314428911358,-7.481754572755159,-0.7199168001967654,7.24926624017472,-13.279044617430953,28.703735673354565
5.652496883183806,-7.614545018929469,-0.6474241377950182,7.536303596908265,3.7265578959267125,3.1549882648261494
5.576351432994511,-7.577279439970202,-0.5720611018259355,7.567853479556526,22.40705720045023,-24.613076214697628
5.500578638594809,-7.3532088679657,-0.4963825670303702,7.32172271740955,36.23458387949881,-45.358814465943055
5.427046549915152,-6.990863029170711,-0.4231653398562747,6.868134572750119,42.138131990395024,-54.73073852965732
5.357137919623446,-6.569481709266761,-0.3544839941287735,6.3208271874535455,41.81591246563984,-55.114158245006145
5.291443102530778,-6.151322584610362,-0.29127572225423803,5.769685605003484,38.402392464853364,-50.93581882017549
5.2299298766846745,-5.7672986599618286,-0.2335788662042032,5.260327416801728,34.08983738220525,-45.3083930268083
5.172256890085056,-5.426400286139776,-0.1809755920361859,4.807243486533645,29.92027905479436,-39.72812177696268
5.117992887223658,-5.127197495591832,-0.13290315717084944,4.409962268764018,26.260026002310195,-34.73669428905745
5.06672091226774,-4.864597235568731,-0.08880353448320925,4.062595325873444,23.173643796323613,-30.445740118234372
5.018074939912053,-4.6328607976054945,-0.04817758122447482,3.7581379246911,20.614218394436307,-26.80492135011148
4.971746331935997,-4.426718613661132,-0.010596201977563814,3.490088711189985,18.504558828069623,-23.717219183961056
4.927479145799386,-4.241673025380436,0.024304685134336042,3.2529165193503746,16.767921908401227,-21.08320613091908
4.8850624155455815,-4.073993806296424,0.05683385032783979,3.0420844580411837,15.33775258896756,-18.815611077457536
4.844322477482617,-3.9206162804067484,0.08725469490825162,2.853928347266608,14.159343617310297,-16.84231603402988
4.80511631467855,-3.7790228442336455,0.1157939783809177,2.685505186926309,13.188709522191584,-15.105269068180837
4.7673260862362135,-3.6471357490117295,0.1426490302501808,2.5344524962445005,12.39074456831966,-13.558265983413888
4.730854728746096,-3.523228303328533,0.16799355521262582,2.3988698364103618,11.737416755488741,-12.164692705262187
