th1 (rad),w1 (rad/s),th2 (rad),w2 (rad/s)
5.507083060899247,0.9262847194294593,4.687519886767705,0.13141032450289145
5.516345908093542,0.9693213243528556,4.688833990012734,0.20627649239327045
5.52603912133707,1.01128028592126,4.6908967549366665,0.2827729555976862
5.536151924196282,1.0520580523335061,4.693724484492643,0.3609676258650505
5.546672504719617,1.0915479017851788,4.697334160751294,0.4409238220727595
5.557587983737469,1.129639722138936,4.701743398972021,0.5226999545651346
5.568884380958859,1.1662198012014804,4.706970398517672,0.6063492396908612
5.580546578970874,1.2011706338313193,4.713033890914581,0.6919194500224508
5.592558285309187,1.2343707525383893,4.719953085414805,0.7794527064964146
5.604901992834571,1.265694588635833,4.727747612479769,0.8689853194634883
5.617558938720929,1.295012371356284,4.7364374656744035,0.9605476863499074
5.630509062434492,1.3221900726429354,4.746042942537903,1.054164254259767
5.643730963160921,1.3470894055664446,4.756584585080501,1.1498535563402126
5.657201857216585,1.3695678845056962,4.768083120643903,1.2476283310180158
5.670897536061642,1.389478955376327,4.780559403954083,1.3474957332152644
5.684792325615406,1.4066722043218798,4.7940343612862355,1.449457646262562
5.698859047658624,1.4209936534435115,4.808528937748861,1.5535111023272208
5.713068984193059,1.4322861524061101,4.824064048772133,1.6596488176105713
5.72739184571712,1.4403898752271065,4.8406605369482385,1.7678598461562482
5.741795744469392,1.4451429323811784,4.858339135409801,1.878130352617169
5.756247173793203,1.446382109752743,4.877120438935973,1.9904444994581423
5.770710994890731,1.4439437482322222,4.897024883930554,2.104785437445867
5.785150432373053,1.437664781279779,4.918072738305012,2.22113637940855
5.79952708018585,1.4273839531052466,4.940284102099097,2.339481725491532
5.813800919716903,1.4129432479433,4.963678919354012,2.459808192646161
5.827930352196336,1.394189572168871,4.988277001280474,2.582105880744889
5.841872247918025,1.3709767469100793,5.014098060087923,2.706369181031227
5.855582015387126,1.3431678909320017,5.041161751898235,2.8325973976328758
5.869013694296446,1.3106383038583493,5.069487725874564,2.960794907041339
5.8821200773350295,1.273279000718105,5.099095674944977,3.0909706205296845
5.894852867342211,1.2310011032899895,5.130005381150275,3.2231364363857464
5.907162878375111,1.1837413651123716,5.162236745514132,3.3573042677670903
5.919000292026235,1.1314691987692558,5.195809788191803,3.493481102671215
5.930314984013927,1.0741956889529944,5.230744599218515,3.631661390097298
5.941056940903457,1.0119852134704932,5.267061213119488,3.7718158483875786
5.951176793038162,0.944970452342341,5.304779371603364,3.9138755614553546
5.960626497561585,0.8733717276584056,5.3439181272179175,4.057709982548301
5.9693602148381695,0.7975217499249523,5.3844952270434,4.20309724459691
5.977335432337419,0.7178968830691261,5.42652619948937,4.349685066233834
5.98451440116811,0.6351558593519477,5.470023050151708,4.496940700440359
5.99086595976163,0.5501862778447223,5.5149924571561115,4.644089063291639
5.996367822540077,0.4641579063366913,5.561433347789028,4.790039808118248
6.001009401603444,0.3785793827937404,5.60933374587021,4.933307217300797
6.004795195431381,0.2953509752017566,5.658666818043218,5.071931941484637
6.007748705183398,0.2168004425961778,5.709386137458065,5.203421097352712
6.00991670960936,0.14568232465067923,5.761420348431592,5.324732333046711
6.011373532855867,0.0851152529857251,5.814667671762059,5.432335464991272
6.012224685385724,0.03843135741619909,5.8689910264119725,5.5223865409044395
6.012608998959886,0.008922476431243807,5.924214891821017,5.591035689325739
6.012698223724198,-0.0005056562631113211,5.980125248714274,5.634855508083631
6.012693167161567,0.012279715691319002,6.0364738037951104,5.651324254235472
6.01281596431848,0.0482994859944829,6.092987046337465,5.639247836002915
6.0132989591784245,0.1072724971062477,6.149379524697495,5.59898962803426
6.014371684149487,0.18764167013885674,6.205369420977838,5.532421703958712
6.016248100850875,0.2868139535515629,6.2606936380174245,5.442604259191751
6.019116240386391,0.40153991712516673,6.315119680609342,5.3332938155658995
6.023131639557643,0.5283240863855614,6.3684526187650015,5.208424143052057
6.028414880421498,0.6637715780943998,6.420536860195522,5.0716816297558704
6.035052596202442,0.8048215371170997,6.471253676493081,4.926235435662324
6.043100811573614,0.9488639435529579,6.520516030849704,4.774621761891932
6.052589451009143,1.0937649331055335,6.568262248468623,4.618745173008503
6.063527100340198,1.2378344609088439,6.614449700198708,4.459950309893086
6.075905444949287,1.379765908884953,6.65904920329764,4.299124508892489
6.089703104038136,1.5185681481049464,6.7020404483865645,4.136804819007928
6.104888785519186,1.653501776776283,6.743408496576643,3.9732749123359854
6.121423803286948,1.7840248023866578,6.783141245700003,3.8086459145428826
6.139264051310815,1.9097490730603464,6.821227704845432,3.6429202408053167
6.158361542041418,2.0304066954134523,6.857656907253485,3.4760400275118037
6.178665608995552,2.14582481665513,6.8924173075286035,3.3079226819280394
6.200123857162104,2.2559069612730482,6.925496534347884,3.1384861675330935
6.2226829267748345,2.3606192489449103,6.956881396023215,2.967666365584165
6.246289119264284,2.45998008001285,6.986558059679057,2.7954284604729507
6.2708889200644125,2.554052154649977,7.014512344283786,2.621773912601144
6.296429441610912,2.642935945050516,7.040730083409798,2.446744258111842
6.322858801061417,2.7267639499633956,7.065197525990916,2.27042272194649
6.350126440561051,2.8056952255152754,7.087901753210381,2.092934444192569
6.3781833928162035,2.8799098094797597,7.108831097652306,1.9144459881494287
6.406982490911001,2.9496027439031853,7.127975557533801,1.7351647095290046
6.436478518350032,3.01497745958353,7.1453272046290905,1.55533850823558
6.466628292945868,3.076238321562275,7.1608805897114465,1.3752564469740556
6.497390676161491,3.1335821540788666,7.174633154181187,1.195250694807737
6.528726497702279,3.1871885740202184,7.186585661129264,1.0157002282582683
6.560598383442481,3.2372089737399605,7.196742663411847,0.837036684578255
6.59297047317988,3.2837540210134804,7.205113030257629,0.6597526935512726
6.6258080133900155,3.326879605228986,7.2117105571931415,0.48441289024435086
6.659076809442305,3.3665712814335285,7.216554686095585,0.3116675962466139
6.692742522256641,3.4027274825947376,7.219671362058051,0.14226880449270612
6.726769797082588,3.435142127313409,7.221094050102978,-0.022912442913827352
6.761121218355722,3.4634877873918986,7.2208649256738395,-0.18286898863637616
6.795756096229641,3.487301323493852,7.219036235787476,-0.33644358504159977
6.83062910946458,3.5059748277640947,7.21567179993706,-0.4823221093771991
6.865688857742221,3.5187557161371545,7.210848578843288,-0.6190394656293077
6.900876414903593,3.524760624640531,7.204658184186996,-0.7450047608065189
6.936124021149998,3.5230079232495437,7.19720813657893,-0.8585524731864277
6.971354100382493,3.512472542438566,7.188622611847066,-0.9580246157130616
7.006478825806879,3.4921638010297884,7.179042365689935,-1.0418844899474904
7.041400463817177,3.4612218167790703,7.16862352079046,-1.1088552554536413
7.076012681984968,3.4190215662245618,7.1575349682359235,-1.1580672348310226
7.110202897647214,3.3652676582996333,7.145954295887614,-1.189189409166001
7.14385557423021,3.3000602077581873,7.134062401795954,-1.2025169521091938
7.176856176307792,3.223915277430947,7.122037232274862,-1.1989913552007432
7.209095329082102,3.1377325459161787,7.110047318722855,-1.1801431415949992
7.240472654541263,3.0427154607579636,7.098245887306905,-1.147965435665776
7.270899809148843,2.940260388149517,7.086766232950247,-1.1047428788446463
7.300302413030338,2.8318368708670905,7.075718804161801,-1.0528683868936002
7.328620781739009,2.718879591961298,7.065190120292866,-0.9946779455480644
7.355809577658622,2.6027058271136827,7.055243340837385,-0.9323236723145958
7.3818366359297585,2.484463595654017,7.045920104114239,-0.8676928512928724
7.406681271886298,2.3651085473133744,7.03724317560131,-0.8023701454966781
7.430332357359432,2.245403396604605,7.029219474146343,-0.7376339598154432
7.4527863913254775,2.1259323968349877,7.021843134548188,-0.6744759238648328
7.474045715293827,2.007124017535548,7.01509837530954,-0.613633377541634
7.494116955469183,1.889276600091291,7.008962041534123,-0.5556270518321458
7.5130097214700955,1.7725835332368995,7.003405771015801,-0.5007987028717265
7.5307355568024645,1.6571559896913486,6.998397783987084,-0.449345655358488
7.547307116699378,1.54304235551065,6.993904327433499,-0.4013508262954003
7.562737540254485,1.4302441841295817,6.989890819170545,-0.35680785195829334
7.577039982095781,1.3187289028818443,6.986322740650961,-0.31564154874299083
7.590227271124599,1.208439686016148,6.983166325163531,-0.2777242374047683
7.60231166798476,1.0993029644026955,6.9803890827894834,-0.24288856480393406
7.613304697628787,0.9912340258136028,6.977960197141444,-0.2109374514056756
7.623217037886923,0.8841411085398143,6.975850822627387,-0.18165173188255326
7.632058448972321,0.7779283278159875,6.974034305308561,-0.1547959739884277
7.639837732250482,0.6724977114853434,6.972486345568677,-0.13012287629275554
7.646562709365335,0.5677505645579521,6.971185116805749,-0.10737656782832053
7.652240215010914,0.46358833406241007,6.970111351127466,-0.08629506607172188
7.656876098351538,0.3599131061073117,6.969248400466749,-0.06661209473174111
7.6604752294126115,0.25662783563017655,6.968582279519431,-0.0480584188280777
7.663041507768913,0.1536363848230497,6.968101695331151,-0.030362820135820617
7.664577871617143,0.05084342754386689,6.9677980671297925,-0.013252809745427103
7.665086305892582,-0.051845736881264634,6.967665539032338,0.003544845150684345
7.664567848523769,-0.15452542704408018,6.967700987483845,0.02030371726087919
7.663022594253329,-0.25728985333535165,6.967904024656454,0.037297384536714454
7.660449695719976,-0.3602333995717654,6.968276998501821,0.054799117006985205
7.656847361724258,-0.46345089107152054,6.968824989671891,0.07308153933570753
7.652212852813542,-0.5670378269665045,6.969555805065248,0.0924162220696984
7.646542474543877,-0.6710905512155348,6.970479967285945,0.11307314987209846
7.639831569031722,-0.7757063308473771,6.971610698784666,0.13532000668053318
7.632074505723248,-0.8809833010410488,6.9729638988514715,0.15942120516099517
7.623264672712838,-0.987020224194533,6.974558110903081,0.18563657028461014
7.613394470470893,-1.0939159934091638,6.976414476605927,0.2142195633191438
7.602455310536802,-1.2017687889164694,6.978556672239119,0.24541490175120376
7.590437622647637,-1.3106747678450708,6.981010821256631,0.27945539121312973
7.577330874969187,-1.4207261322632037,6.983805375168762,0.31655773592195047
7.563123613646555,-1.532008376677079,6.986970952527981,0.35691703325267776
7.5478035298797845,-1.6445964636774852,6.990540122860508,0.4006995854992218
7.53135756524301,-1.758549615967147,6.9945471187155,0.44803357908617997
7.5137720690833385,-1.873904347681047,6.999027454506362,0.49899709345719706
7.495033025606528,-1.9906652950512542,7.004017425440934,0.5536028197582854
7.475126372656015,-2.1087933604247264,7.009553453638517,0.6117788147186772
7.454038439051768,-2.2281906798254116,7.015671241785704,0.6733446253028211
7.431756532253514,-2.3486820042290253,7.022404688038732,0.737982255568701
7.408269712211224,-2.469992311539871,7.029784510594419,0.8052018003227549
7.383569789095826,-2.591720927389077,7.037836528597646,0.8743022669486222
7.357652579821935,-2.7133132350648315,7.046579551267132,0.9443293004822518
7.3305194474712865,-2.8340323008299677,7.056022844271954,1.0140333637187955
7.302179124462987,-2.952934473110635,7.066163177909142,1.081834461606696
7.272649779731881,-3.06885511239666,7.076981522525209,1.1458025590366363
7.241961228607915,-3.180412644783741,7.088439548115575,1.203665799663184
7.210157102160077,-3.286040232155388,7.100476206112207,1.252860224824226
7.177296699838523,-3.384053202858546,7.113004808360449,1.2906330166974043
7.143456167809938,-3.472755595519582,7.125911138527423,1.3142043318401637
7.108728611854742,-3.550580131854344,7.139053181845824,1.3209796629281219
7.0732228105361985,-3.616244019696732,7.152262978475106,1.3087873098624676
7.037060370339232,-3.668892210331464,7.165350851573731,1.2760997127667066
7.000371448235917,-3.708195749541224,7.1781118487013975,1.2221912506522707
6.963289490740505,-3.734379881106396,7.190333761207921,1.1471947893489494
6.92594569192944,-3.7481738344243682,7.20180570910141,1.0520438543683874
6.888463953585196,-3.750695189187183,7.2123261476450935,0.9383175291647083
6.850957001693325,-3.743297403435879,7.22170932293674,0.8080282050318548
6.813524027658966,-3.727413621127539,7.229789604987059,0.6633995294002334
6.776249891447691,-3.704423509423604,7.236423600281062,0.5066734526849297
6.739205656353454,-3.6755576809432866,7.241490334807911,0.33996821813963496
6.702450079544022,-3.641842178852926,7.244890016989308,0.16519192756317774
6.666031657755493,-3.604077261753624,7.246541936264939,-0.01599565900093744
6.629990885137957,-3.5628411111782206,7.24638197967493,-0.2021859090032368
6.594362474026175,-3.518508990019664,7.244360120584898,-0.39220195504953326
6.559177384125978,-3.4712801605220105,7.240438101034402,-0.585068150184004
6.524464582520758,-3.4212071939596984,7.234587419532562,-0.7799761391666976
6.490252510581161,-3.3682244040444647,7.2267876581408945,-0.9762524137875923
6.456570266540717,-3.312173716205404,7.217025134003019,-1.1733299702495832
6.423448529378662,-3.25282732845073,7.205291834300523,-1.370725161922241
6.390920256094155,-3.1899071303129585,7.1915845826813,-1.5680199101453707
6.359021184791025,-3.1231011538051003,7.175904383579846,-1.7648489265792544
6.327790173252974,-3.052077446541555,7.1582558943140535,-1.9608913608285203
6.2972693987875585,-2.9764957649961596,7.138646980705769,-2.1558662040009113
6.267504441137597,-2.8960174407306507,7.117088318665759,-2.3495307773552288
6.23854426673029,-2.8103137090562718,7.093593010892207,-2.5416816689611057
6.210441129639728,-2.719072728767714,7.0681761942025965,-2.732157523627534
6.1832504023520505,-2.6220054755463766,7.040854618966321,-2.9208431275080775
6.157030347596587,-2.5188506679239486,7.01164618769124,-3.107674250370108
6.131841840917347,-2.409378888851742,6.980569445187539,-3.292642709527593
6.107748052028829,-2.29339610328767,6.947643018092263,-3.475801093399446
6.084814090995953,-2.1707468494113575,6.912885007158269,-3.657266520319016
6.063106622501839,-2.041317507297168,6.876312341955079,-3.8372226955216124
6.042693447428867,-1.905040237183117,6.837940114999863,-4.015919345268796
6.023643045057036,-1.7618984481093334,6.797780921547175,-4.193667822079704
6.0060240605759425,-1.6119350309750664,6.755844243326378,-4.37083124891001
5.989904710266192,-1.4552650978335726,6.712135930837278,-4.547806952636101
5.975352059287856,-1.2920956425391619,6.6666578613109175,-4.724998073313806
5.962431102862465,-1.1227553956361995,6.619407880577779,-4.902770082494271
5.951203548906102,-0.9477391635830271,6.570380179752837,-5.081386512816923
5.941726157270272,-0.7677719817949104,6.519566314624668,-5.260916649572156
5.934048437452323,-0.5838990910983788,6.466957148128946,-5.44110674650112
5.928209446541339,-0.39760721323621867,6.412546080663935,-5.621206629404827
5.924233374408977,-0.21097918958624226,6.356334014369887,-5.799747583846452
5.922123582513114,-0.026874953959493214,6.298336538531422,-5.974279030169582
5.921854832973519,0.15088678943381306,6.238593748229726,-6.141096008437981
5.923363700867857,0.31740305758038134,6.1771827881453465,-6.295031511129081
5.926537731443661,0.46671530169906095,6.114232473034056,-6.429444035032708
5.9312048844606515,0.5921233340884035,6.049938032683729,-6.536577253514968
5.937126117801536,0.6868981226087171,5.984572260148579,-6.608448561098336
5.943995099027623,0.7453860219979898,5.918487774537596,-6.63826331963274
5.951448959247602,0.7642649531066565,5.852105141341268,-6.622041065977154
5.959091608778669,0.7434874844347941,5.785884730681497,-6.559837192791892
5.966526483623017,0.6864462856917921,5.720286358753578,-6.455945457843535
5.9733909464799355,0.5992313653203806,5.655726904175142,-6.3179159624841965
5.979383260133139,0.489309826554773,5.5925477445503,-6.154837743324048
5.984276358398687,0.36418565001559544,5.53099936711706,-5.975627231535803
5.987918214898843,0.23045918303239507,5.471243094801702,-5.7878668856528925
5.990222806729167,0.09339938826576488,5.413364425945173,-5.597324380615445
5.991156800611825,-0.04308546494487553,5.357391182139018,-5.407984986141994
5.990725945962376,-0.1762603898772807,5.303311332277598,-5.2223495529683035
5.988963342063603,-0.30430523407608306,5.2510878367479155,-5.04180608506432
5.985920289722842,-0.42606800285649205,5.200669775897272,-4.866969998170495
5.981659609694278,-0.5408633410653604,5.152000075915567,-4.697954218258121
5.976250976283624,-0.6483215437263444,5.105020533732986,-4.534566376797339
5.96976776084636,-0.7482813846355579,5.059674869965013,-4.376444982341795
5.962284947000005,-0.8407167899772967,5.015910420141595,-4.223149584594008
5.953877779100232,-0.9256880112635112,4.973678924295655,-4.074218278853886
5.944620898987597,-1.0033098260057478,4.932936741507116,-3.9292028907141905
5.934587800727539,-1.073731245576734,4.893644712599974,-3.7876892974707683
5.923850488271771,-1.137122830851681,4.8557678196252665,-3.649308043272048
5.912479259963255,-1.1936689372425047,4.819274739192546,-3.51373872371076
5.900542570590829,-1.2435630839552918,4.784137351955438,-3.380710444205692
5.888106939751276,-1.2870052486050174,4.750330247513381,-3.249999863924579
5.875236887265226,-1.3242003020465742,4.717830248874136,-3.1214278104806787
5.86199488424476,-1.3553570776570536,4.686615970769329,-2.994855104997687
5.848441313468189,-1.3806877566749682,4.656667419719351,-2.8701780119314835
5.83463443590144,-1.4004073761580467,4.627965639600037,-2.747323581896001
5.820630362139859,-1.414733348888805,4.600492403781076,-2.6262450609779986
5.8064830286509705,-1.4238849388042243,4.574229953171296,-2.5069174783833064
5.792244179262928,-1.428082670448301,4.5491607783874635,-2.3893334838252724
5.777963352558445,-1.4275476727368268,4.525267443549211,-2.2734994791491676
5.763687875831077,-1.4225009701747582,4.502532448757719,-2.159432070359484
5.749462866129329,-1.4131627414404793,4.480938128054125,-2.0471548533636263
5.735331238714925,-1.3997515679245234,4.460466579520489,-1.9366955374190693
5.72133372303568,-1.382483694764239,4.441099624146298,-1.828083403275585
5.707508886088037,-1.361572325127273,4.422818790113542,-1.7213470876180077
5.693893162836765,-1.33722696566257,4.405605319237362,-1.6165126812104682
5.680520893180139,-1.3096528376570722,4.3894401924252575,-1.5136021248692884
5.667424364803568,-1.2790503648657705,4.374304171176565,-1.4126318848995711
5.6546338611549105,-1.2456147454726627,4.36017785232757,-1.313611887825281
5.642177713700184,-1.209535612361438,4.347041733449317,-1.216544693055423
5.630082357576569,-1.1709967829373091,4.334876286518763,-1.121424881500273
5.618372389747196,-1.1301760972088342,4.32366203770376,-1.0282386380227868
5.607070628775108,-1.0872453407387324,4.313379651323532,-0.9369635059199
5.596198175367721,-1.0423702474068628,4.304010016264333,-0.8475682923117719
5.585774472893652,-0.9957105756785479,4.295534333341215,-0.7600131043073587
5.5758173671368665,-0.9474202512055874,4.287934202298142,-0.674249497045119
5.5663431646248105,-0.8976475680651939,4.28119170732769,-0.590220716113163
5.557366688944159,-0.8465354407184302,4.275289500166559,-0.5078620183726323
5.548901334536974,-0.7942216987974436,4.270210879982832,-0.4271010567858692
5.540959117549,-0.7408394170632782,4.265939869414973,-0.34785831643787624
5.533550723378367,-0.6865172732688948,4.262461286250595,-0.2700475904938172
5.526685550645678,-0.631379927174137,4.259760810345656,-0.19357648632243663
5.520371751373936,-0.575548414553715,4.257825045482432,-0.11834695340822973
