th1 (rad),w1 (rad/s),th2 (rad),w2 (rad/s)
3.4645178832196626,0.8219551342317534,2.9814532513951018,-1.4644611913192034
3.47273743456198,0.8740188275724448,2.9668086394819095,-1.5230560196542846
3.4814776228377045,0.9259693889912439,2.9515780792853668,-1.581838158644099
3.490737316727617,0.9776840619522406,2.9357596976989258,-1.6406363471692467
3.500514157347139,1.0290360889412822,2.919353334227233,-1.6992738676160104
3.510804518236552,1.0798975530428014,2.902360595551073,-1.7575724240427437
3.52160349376698,1.130142336048947,2.8847848713106456,-1.8153561732426875
3.5329049171274693,1.179649066679909,2.866631309578219,-1.8724557326991096
3.5447014077942685,1.228303928605646,2.847906752251228,-1.9287119843050844
3.556984447080325,1.2760032046609728,2.828619632408177,-1.9839795022908384
3.569744479126935,1.3226554505342962,2.8087798373852686,-2.0381294574520545
3.582971033632278,1.3681832165736147,2.788398542810748,-2.09105188506986
3.596652865798014,1.4125242674285865,2.7674880239600492,-2.142657246970044
3.6107781084723,1.4556322826640367,2.7460614514903487,-2.1928772642679806
3.62533443129894,1.49747705379504,2.7241326788476687,-2.2416650416866255
3.6403092018368906,1.538044221400715,2.7017160284308024,-2.288994542743983
3.6556896440508977,1.5773346178893792,2.6788260830033623,-2.334859504567461
3.6714629902297915,1.6153632959493005,2.655477487957688,-2.3792719000169646
3.6876166231892844,1.6521583295883657,2.6316847689575185,-2.422260063020701
3.704138206485168,1.687759474667531,2.6074621683273116,-2.4638665915735
3.7210158012318435,1.7222167702940052,2.5828235024115767,-2.5041461335647797
3.7382379689347838,1.7555891529959833,2.557782041075929,-2.5431631457486934
3.7557938604647436,1.7879431439266915,2.532350409618442,-2.580989698033372
3.7736732919040104,1.8193516569523271,2.506540512638108,-2.617703375890891
3.7918668084735336,1.8498929635865722,2.480363478879199,-2.6533853146932715
3.8103657381093994,1.8796498402225064,2.4538296257322663,-2.688118382290537
3.8291622365116242,1.9087089145259204,2.426948441909361,-2.721985510816869
3.8482493256568833,1.9371602214494854,2.399728586801192,-2.7550681657862492
3.867620927871378,1.9650969751388248,2.37217790514333,-2.787444929956133
3.8872718976227665,1.9926155609058471,2.3443034558437685,-2.819190170927576
3.907198053231825,2.0198157512176853,2.3161115541344928,-2.8503727546356203
3.9273962107440017,2.0468011510063246,2.2876078265881366,-2.881054761365675
3.947864222254065,2.0736798802176017,2.25879727897448,-2.9112901563660505
3.968601021056241,2.100565505014985,2.2296843774108193,-2.9411233632976317
3.9896066761063906,2.127578232980994,2.200273143777843,-2.970587685661965
4.010882458436201,2.1548463914223768,2.1705672669212235,-2.999703519284419
4.032430922350424,2.1825082106427582,2.1405702317283795,-3.0284762986631626
4.054256004456851,2.2107139345540956,2.110285468741748,-3.056894122959579
4.076363143802392,2.2396282773844844,2.079716527512152,-3.0849250160057844
4.098759426576237,2.2694332346960358,2.048867277352094,-3.112513792743416
4.121453758923197,2.300331235298767,2.01774213942466,-3.139578537758639
4.144457071276185,2.3325485819351828,1.9863463540470736,-3.166006758498828
4.167782557095537,2.366339064434954,1.9546862864620853,-3.191651368268074
4.191445947739886,2.401987528231294,1.9227697727794046,-3.2163267982111123
4.2154658230222,2.4398130298262095,1.8906065047972935,-3.239805753258857
4.239863953320461,2.4801709937549536,1.858208447264705,-3.2618174367675934
4.264665663258011,2.5234534900730403,1.825590272897029,-3.282048491696462
4.289900198158741,2.5700863754933354,1.7927697879800644,-3.300148447301745
4.315601061913674,2.620521609638996,1.7597683035070468,-3.315742087492099
4.341806278010064,2.6752226466743982,1.7266108826321258,-3.3284517658223125
4.368558504476808,2.7346405736031083,1.6933263649739028,-3.337933057121012
4.395904910212839,2.7991789001990197,1.6599470344026925,-3.3439268617090785
4.423896699214829,2.8691460058863676,1.6265077657856017,-3.3463295897695677
4.4525881592736924,2.9446966681151836,1.593044469887906,-3.345279697457071
4.4820351259548445,3.0257681114335475,1.5595916729133354,-3.341253204441672
4.51229280706918,3.1120213221659068,1.5261791408689187,-3.3351532861351916
4.543413020290839,3.2028036092404255,1.4928276080075669,-3.328371491154348
4.5754410563832435,3.2971509612830245,1.4595438930960234,-3.3227942538930964
4.6084125659960735,3.393845505307607,1.4263159505570924,-3.3207326750756034
4.64235102104915,3.4915324501992795,1.3931086238063364,-3.324768820768396
4.677266345551143,3.588883998552841,1.3598609355986524,-3.337535830409154
4.713155185536671,3.6847809100150193,1.326485577294561,-3.361473435947692
4.750002994636821,3.7784737688728445,1.2928708429350841,-3.398613553869576
4.787787732325549,3.8696907309962345,1.2588847073963885,-3.4504447732255867
4.826484639635511,3.958675081137126,1.2243802596641327,-3.5178816349379947
4.866071390446883,4.04615677360805,1.1892014433147526,-3.6013351363387107
4.9065329581829635,4.1332784747543805,1.1531880919513655,-3.700857521727205
4.9478657429305075,4.221503441018126,1.1161795167340935,-3.8163246437688016
4.9900807773406886,4.312530217921783,1.0780162702964056,-3.9476228371230038
5.033206079519906,4.408231545561111,1.0385400419251756,-4.094818981012565
5.077288394975517,4.510626445016641,0.99759185211505,-4.258305995569146
5.122394659425684,4.621888195496991,0.9550087921593585,-4.4389272436283145
5.168613541380654,4.744387859564161,0.9106195197230754,-4.638090788445064
5.216057419976296,4.880772935841389,0.8642386118386248,-4.8578887653211655
5.264865149334709,5.034082858391047,0.8156597241854132,-5.101239681520247
5.31520597791862,5.207906650412778,0.7646473273702108,-5.372073657064549
5.367285044422747,5.406592376701735,0.7109265907995653,-5.675583255442716
5.421350968189764,5.63552204995025,0.6541707582451382,-6.018565147250939
5.477706188689266,5.901466483362041,0.5939851067726287,-6.409876908089324
5.536720853522887,6.213023799774271,0.5298863376917354,-6.861017200498555
5.59885109152063,6.58109826725965,0.4612761656867499,-7.38677221390308
5.6646620741932265,7.019222447372482,0.3874084435477191,-8.0056585244361
5.734854298666951,7.543068436005937,0.3073518583033581,-8.739257648656578
5.81028498302701,8.1672092231464,0.2199592818167923,-9.607746912768999
5.891957075258475,8.8938900216977,0.12388181268910231,-10.614314888643376
5.980895975475452,9.68202657361834,0.017738663802668544,-11.701968183456458
6.077716241211635,10.383341637294913,-0.09928101803189604,-12.66431816207857
6.1815496575845845,10.693800828875116,-0.22592419965268176,-13.07758539923182
6.288487665873336,10.344581317809011,-0.35670005364499996,-12.567339553930898
6.391933479051426,9.503306225232631,-0.4823734491843089,-11.367393249154588
6.486966541303752,8.589933633681115,-0.5960473816758548,-10.060237928334793
6.572865877640563,7.815591304770492,-0.6966497609592027,-8.936411270344012
6.651021790688268,7.203524231149084,-0.7860138736626429,-8.026378591573875
6.723057032999758,6.724364445604766,-0.8662776595783817,-7.28854136251365
6.790300677455806,6.346497045658107,-0.9391630732035181,-6.67860624939929
6.853765647912388,6.0455596769573505,-1.005949135697511,-6.162476844291785
6.914221244681961,5.804031372948583,-1.0675739041404289,-5.715601943260408
6.972261558411447,5.609389791551631,-1.124729923573033,-5.320440884709842
7.028355456326963,5.452542638224152,-1.1779343324201315,-4.964363984207514
7.082880882709205,5.326705306576463,-1.2275779722622067,-4.638210434857554
7.13614793577497,5.226621142227833,-1.2739600766107821,-4.335355895649922
7.188414147197248,5.1480108678778045,-1.3173136355672814,-4.05113030036546
7.239894255876026,5.0871708641983515,-1.357824938570936,-3.782468083635646
7.290765964518009,5.0406716479385425,-1.3956496194072925,-3.527707154131073
7.341172680997395,5.005132459094371,-1.4309266909486031,-3.2864721688829097
7.391224005588338,4.9770666137460084,-1.4637914126374323,-3.0595853919104785
7.440994671725798,4.952805895460802,-1.494387266556537,-2.8489503738291786
7.490522730680406,4.928519389286098,-1.5228767702948287,-2.657356863161123
7.539807924573267,4.900339834281802,-1.54945033892644,-2.4881675035284285
7.588811322916086,4.864596132464247,-1.5743320139617243,-2.3448741624809686
7.637457284240728,4.818124940694466,-1.597780755586534,-2.2305544392158456
7.685638533647673,4.758604415724408,-1.6200862999786925,-2.147307253653619
7.733224577804917,4.68483220234138,-1.6415593725152287,-2.0957811676585067
7.780072899828331,4.5968710625965725,-1.6625171841918138,-2.0749097242646877
7.826041610454296,4.4960144173553775,-1.6832662814344608,-2.0819260251622396
7.87100175462785,4.384572228934889,-1.7040855416860832,-2.1126561400966755
7.914847476917198,4.265526240321957,-1.72521210308705,-2.162016601891525
7.957502739320418,4.142133427282143,-1.7468322691059652,-2.224595109712993
7.99892407359324,4.017558387876712,-1.7690782202030952,-2.295190432910998
8.039099657472006,3.894593365605669,-1.7920301245322052,-2.3692213861728235
8.078045591128063,3.7754915043356783,-1.8157223383939334,-2.442965767230803
8.11580050617142,3.6619083823196417,-1.8401519960662414,-2.513637103525089
8.152419589994617,3.554927287027261,-1.8652883671014922,-2.5793369009252456
8.187968862864889,3.4551367480441852,-1.8910817361107446,-2.638930366551958
8.22252023034533,3.3627314737078757,-1.9174710397762642,-2.6918891987011135
8.256147545082408,3.277615351410151,-1.9443899317632753,-2.7381333294341035
8.28892369859651,3.19949360187289,-1.9717712650576165,-2.7778905835465304
8.320918634615238,3.127948200389641,-1.9995501708930818,-2.8115825898176783
8.352198116619133,3.0624954837798444,-2.0276659967912587,-2.8397381091780565
8.382823071456931,3.002627589010356,-2.056063377883039,-2.8629309552199125
8.412849347347034,2.947840553343653,-2.084692687435238,-2.881738021069503
8.442327752880471,2.8976521237259085,-2.113510067645933,-2.896712698685025
8.471304274117731,2.8516120335399293,-2.142477194632783,-2.908369484025942
8.499820394453131,2.809307012727377,-2.1715608894730427,-2.9171763474266013
8.527913464580404,2.7703622774993626,-2.2007326529473086,-2.923552255735865
8.555617087355397,2.734440782980457,-2.229968175504667,-2.927867940530022
8.582961495185202,2.7012411462256374,-2.2592468549099674,-2.930448575095731
8.60997390664746,2.67049485934839,-2.288551340660925,-2.9315774539281505
8.636678855240943,2.641963201470109,-2.3178671152002064,-2.931500082088497
8.663098487255644,2.6154341084814834,-2.3471821160210915,-2.9304283025662627
8.689252828340459,2.5907191563729572,-2.376486399046754,-2.9285442409459814
8.71516001990419,2.5676507446172696,-2.405771841456214,-2.9260039474588466
8.740836527350362,2.5460795209395113,-2.4350318809308025,-2.9229406818863692
8.766297322559758,2.525872060429902,-2.4642612877496664,-2.91946782791918
8.791556043164057,2.506908795019439,-2.493455966028858,-2.9156814484972844
8.816625131114252,2.489082180102732,-2.522612780513831,-2.911662508041186
8.84151595291528,2.472295080981394,-2.551729405594243,-2.907478795265678
8.866238903725094,2.4564593610871888,-2.5808041935469,-2.9031865841534725
8.890803497335966,2.4414946554947727,-2.6098360593884347,-2.898832072492211
8.915218443890915,2.427327316324145,-2.638824380113357,-2.894452638378972
8.939491717054157,2.413889520799352,-2.6677689064971464,-2.890077956071191
8.96363061226215,2.4011185376522985,-2.6966696860578585,-2.8857310139750885
8.987641797638673,2.3889561529550893,-2.725526996197609,-2.8814290795707205
9.011531359168224,2.377348261976924,-2.7543412869933164,-2.8771846585029626
9.035304841787992,2.3662446387511067,-2.783113133578346,-2.873006497334503
9.058967288175504,2.3555988988514733,-2.8118431985516907,-2.868900680442595
9.082523277164018,2.3453686721338305,-2.8405322053561166,-2.8648718694671222
9.105976963885356,2.3355159991166197,-2.869180924050788,-2.860924726068504
9.129332123876521,2.3260079550318786,-2.897790171311473,-2.8570655423691114
9.15259220342684,2.3168174869973956,-2.926360826735164,-2.8533040749432415
9.175760378296815,2.3079244203833156,-2.9548938674845964,-2.849655534913402
9.198839622500648,2.2993165500598525,-2.9833904228337302,-2.8461426282396896
9.221832788001246,2.290990683793862,-3.0118518491161272,-2.8427974707659014
9.244742694839184,2.2829534563345786,-3.0402798238237865,-2.839663132794856
9.26757222940253,2.275221696905938,-3.068676455151735,-2.8367945164126582
9.29032444637159,2.2678221273295622,-3.0970444003158617,-2.8342582599061776
9.313002667644886,2.2607902101095205,-3.1253869829149235,-2.832131421657118
9.335610569745981,2.2541680652128937,-3.1537082971314945,-2.8304988344527664
9.35815225039811,2.2480015247676652,-3.1820132854760224,-2.8294492314825623
9.380632265645787,2.2423365694643476,-3.210307777790848,-2.8290704894281213
9.40305563134043,2.2372155446242408,-3.2385984826851293,-2.8294445495261296
9.425427786786674,2.232673639117508,-3.2668929281803907,-2.8306426960941984
9.44775452317785,2.2287360932008182,-3.2951993551413326,-2.8327218469743936
9.470041884109857,2.225416479661154,-3.3235265736110766,-2.835722338691736
9.49229604890647,2.2227162086201804,-3.3518837969979938,-2.8396674162788242
9.514523210992671,2.2206251944931408,-3.380280471160782,-2.8445643403650034
9.536729462937602,2.2191234492240177,-3.408726114564432,-2.850406779927961
9.558920697429842,2.2181832654545994,-3.4372301823637113,-2.8571780190278764
9.581102530084388,2.2177716353054144,-3.46580196255399,-2.864854481666116
9.603280246437443,2.2178525992960245,-3.4944505073706513,-2.8734091483825277
9.625458772430402,2.218389307153196,-3.5231845988544768,-2.882814561183562
9.647642665501934,2.219345668872989,-3.5520127444663125,-2.8930452491258083
9.669836122190663,2.220687559103561,-3.5809431969575707,-2.904079525477951
9.692042997781698,2.2223835997532078,-3.6099839922123502,-2.915900693578826
9.71426683377923,2.2244055827014684,-3.6391429991481385,-2.9284977496029496
9.736510889606246,2.226728610267805,-3.668427976644168,-2.94186569167699
9.758778175708924,2.2293310317328237,-3.697846633560938,-2.956005544717603
9.781071486026253,2.232194245827006,-3.7274066890081143,-2.970924197571331
9.803393428484522,2.2353024266445822,-3.7571159309838276,-2.9866341304318036
9.825746452750968,2.238642217308734,-3.7869822722881454,-3.003153090793226
9.848132874924055,2.242202423911169,-3.817013803196078,-3.020503758081082
9.870554899163166,2.245973732723546,-3.847218840776889,-3.038713421783612
9.8930146364904,2.2499484666984766,-3.877605974994725,-3.05781368560549
9.915514121157386,2.2541203927380042,-3.9081841118507796,-3.077840200527742
9.938055325084767,2.2584845888463088,-3.938962513856057,-3.0988324220642802
9.96064017097323,2.263037379822554,-3.9699508380767,-3.120833380741283
9.983270544771456,2.267776351372796,-4.001159171884113,-3.143889449173111
10.005948308285184,2.27270045531203,-4.032598066375844,-3.1680500833761154
10.028675312838304,2.2778102228937565,-4.0642785672096045,-3.1933675094792595
10.051453415067241,2.2831081093761316,-4.096212242304397,-3.219896319084455
10.074284496161003,2.2885990009698722,-4.128411205495242,-3.2476929264915935
10.097170486170702,2.2942909256982507,-4.160888134760158,-3.276814828060609
10.120113395427685,2.3001960229345597,-4.193656283040764,-3.30731958728029
10.14311535565703,2.3063318430593123,-4.226729478913567,-3.3392634477212
10.166178674087623,2.312723069422359,-4.260122113390779,-3.372699449021678
10.189305904781847,2.3194037801385274,-4.293849107880996,-3.4076748875769654
10.212499942583232,2.3264203973981483,-4.327925856756766,-3.444227923296407
10.235764146557214,2.3338355063892604,-4.362368135989731,-3.4823830873015535
10.259102501621106,2.341732762556929,-4.397191966862746,-3.52214539542844
10.282519829246676,2.3502231399710394,-4.4324134208170305,-3.563492725275367
10.306022060646386,2.3594527955189752,-4.468048348069784,-3.6063660831704443
10.329616588601576,2.3696128162763315,-4.5041120089014886,-3.6506573952717245
10.35331271676434,2.380951051722336,-4.540618582854206,-3.6961945438533808
10.377122227281562,2.3937860626175196,-4.5775805282927395,-3.742723598913775
10.401060087907737,2.408522877103039,-4.615007764281877,-3.789888659900647
10.425145316678767,2.4256696427539115,-4.652906650880884,-3.837210547261317
10.449402013106306,2.4458533012149277,-4.691278756353498,-3.8840669098125415
10.473860546118456,2.4698310164699167,-4.7301194254516234,-3.929678248923635
10.498558856283156,2.4984922940761067,-4.76941620794086,-3.973106865159698
10.523543779223917,2.5328448234824203,-4.809147276592457,-4.013278424058382
10.548872227458741,2.573975785549281,-4.84928006083304,-4.049037723277449
10.574611985314235,2.6229809970154396,-4.889770438065815,-4.079249524358132
10.600841795284389,2.680858547801479,-4.930562933309396,-4.102949572151549
10.627650380762404,2.748372922292468,-4.9715924290309115,-4.119538177715833
10.655134109985328,2.825909494097831,-5.01278781080807,-4.128989567808042
10.683393204926306,2.913353653922882,-5.05407770648615,-4.132030163327915
10.712526741465535,3.010035844346582,-5.095398008119429,-4.130228831527653
10.742627099909,3.1147753028023906,-5.1367002964347055,-4.12595332541866
10.773774852937025,3.226029426645793,-5.177959829688892,-4.12218253427221
10.806035147203483,3.342121329365689,-5.219181655031615,-4.1222117674722885
10.83945636049714,3.4614920052502844,-5.260403772706337,-4.129325200135344
10.874071280549643,3.5829190887424582,-5.301697024707691,-4.146516919228863
10.909900471437068,3.7056622931169643,-5.343162193899979,-4.176318166015604
10.946957094368237,3.82952472071812,-5.384925375560135,-4.220748933143816
10.985252341575418,3.9548447562233293,-5.427132864891573,-4.281377181268341
11.02480078913765,4.08244662437272,-5.469946636704257,-4.35945071059546
11.065625255381377,4.213578792356162,-5.513541143810211,-4.456065740563977
11.107761043304938,4.349863159113306,-5.558101801215851,-4.5723460487430465
11.151259674896071,4.493269890513031,-5.603825261703281,-4.709619747276703
11.196192373801201,4.6461263846275545,-5.650921459176048,-4.8695927088923066
11.242653637647477,4.8111655334368475,-5.699617386264971,-5.054526655787215
11.290765292981845,4.991618122550479,-5.750162652822843,-5.267436360875396
11.34068147420735,5.191356218262518,-5.802837016431598,-5.51232537999796
11.392595036389976,5.415097816339306,-5.857960270231577,-5.794484040336638
11.44674601455337,5.6686863256025415,-5.915905110634943,-6.12087645309282
11.503432877809395,5.959457809937274,-5.9771138751658714,-6.5006407417876
11.563027455908768,6.296693458453157,-6.042120282583747,-6.945703901400388
11.6259943904933,6.692093307293039,-6.111577321597751,-7.471426549885823
11.69291532356623,7.160011222869601,-6.186291587096609,-8.096919832787979
11.764515435794927,7.716614614055165,-6.267260785424489,-8.843872995698167
11.841681581935479,8.375534333555633,-6.355699515381471,-9.730497184793107
11.925436925271034,9.13360266646481,-6.453004487229403,-10.751632978597673
12.016772951935682,9.933352621668451,-6.560520817015379,-11.826336819444787
12.116106478152366,10.593799284307687,-6.678784185209827,-12.700962603150364
12.222044470995442,10.790170903066016,-6.8057938112413305,-12.920595014870111
12.329946180026102,10.323612167453712,-6.934999761390031,-12.206043054911673
12.43318230170064,9.460876263039227,-7.057060191939148,-10.92713738988874
12.527791064331032,8.597742226155537,-7.1663315658380355,-9.631650383756318
12.613768486592587,7.890016974606905,-7.262648069675599,-8.533256815139836
12.692668656338656,7.341500969096595,-7.347980637826997,-7.635356000254114
12.76608366602962,6.920877092419411,-7.4243341978295385,-6.8931467858506945
12.835292436953814,6.598436027909179,-7.493265665688045,-6.26418588018242
12.901276797232907,6.351914633636489,-7.55590752448987,-5.716334758961511
12.964795943569271,6.165454278641275,-7.613070872079485,-5.226327796539977
13.026450486355683,6.027767202269884,-7.665334150044885,-4.777333724315133
