th1 (rad),w1 (rad/s),th2 (rad),w2 (rad/s),a1 (rad/s^2),a2 (rad/s^2)
1.013555788545772,-1.4979090948595462,0.5947481421614744,-1.7157822254252157,-11.712289539330008,6.121568895498366
0.9985766975971765,-1.6150319902528463,0.5775903199072223,-1.654566536470232,-11.727193186873595,6.418304207435003
0.982426377694648,-1.7323039221215821,0.56104465454252,-1.590383494395882,-11.737028287954722,6.723455702722774
0.9651033384734322,-1.8496742050011294,0.5451408195985611,-1.5231489373686542,-11.741028396497516,7.034056843960224
0.9466065964234209,-1.9670844889661045,0.5299093302248745,-1.4528083689290519,-11.738058569182114,7.346300298867363
0.9269357515337598,-2.084465074657926,0.515381246535584,-1.3793453659403783,-11.726537246227192,7.655427316784314
0.9060911007871806,-2.2017304471201977,0.5015877928761803,-1.302791092772535,-11.704335909913016,7.955591414730052
0.8840737963159786,-2.318773806219328,0.4885598819484549,-1.2232351786252345,-11.668656038770502,8.239696928725063
0.8608860582537853,-2.435460366607033,0.47632753016220253,-1.1408382093379839,-11.615884790081006,8.499215913108923
0.8365314545877149,-2.551619214507843,0.4649191480688227,-1.0558460502068947,-11.541434092533594,8.723991755492992
0.8110152624426366,-2.667033555433179,0.45436068756675374,-0.9686061326519648,-11.439572958812098,8.902045490826463
0.7843449268883047,-2.7814292850213,0.44467462624023407,-0.8795856777437002,-11.30327041096878,9.019411946012156
0.7565306340380917,-2.894461989130988,0.4358787694627971,-0.7893915582835787,-11.124076887838742,9.06004810057871
0.7275860141467818,-3.0057027580093756,0.42798485387996127,-0.6987910772777916,-10.892085329664404,9.005875250115771
0.697528986566688,-3.1146236113060195,0.42099694310718333,-0.6087323247766339,-10.596028200659205,8.83703796556854
0.6663827504536278,-3.2205838933126114,0.414909619859417,-0.5203619451209485,-10.223580503443065,8.532481923271062
0.6341769115205017,-3.322819698347042,0.4097060004082075,-0.43503712588823784,-9.76194551745367,8.070960798738826
0.6009487145370312,-3.4204391535215786,0.4053556291493251,-0.3543275179008496,-9.198790368282765,7.432566124783637
0.5667443230018154,-3.5124270572044063,0.4018123539703166,-0.28000185665301325,-8.523560980830592,6.6008164422635645
0.5316200524297714,-3.5976626670127123,0.3990123354037865,-0.21399369223037762,-7.729130163560526,5.565228424462688
0.49564342575964426,-3.6749539686483175,0.3968723984814827,-0.15834140798575075,-6.8136170878454685,4.324121270189945
0.45889388607316106,-3.743090139526772,0.3952889844016252,-0.11510019528385129,-5.782079038591728,2.8872029366552185
0.42146298467789334,-3.800910929912689,0.3941379824487867,-0.08622816591729911,-4.647661526768307,1.2773180517698117
0.38345387537876646,-3.8473875451803723,0.39327570078961366,-0.07345498539960099,-3.43176677348205,-0.4693006491174691
0.3449799999269627,-3.8817052129151928,0.39254115093561764,-0.07814799189077568,-2.1629243858121683,-2.304753103669973
0.3061629477978108,-3.9033344567733144,0.3917596710167099,-0.10119552292747541,-0.8743343357734902,-4.173218701195908
0.2671296032300776,-3.9120778001310494,0.3907477157874351,-0.1429277099394345,0.39957003884356485,-6.016224122671322
0.22800882522876711,-3.908082099742614,0.3893184386880408,-0.2030899511661477,1.6268674188820522,-7.778443048039519
0.18892800423134098,-3.8918134255537935,0.3872875391763793,-0.2808743816465429,2.7814107639229415,-9.412849466111219
0.15000986997580304,-3.863999317914564,0.38447879535991386,-0.37500287630765505,3.8449633613951675,-10.884250355838422
0.1113698767966574,-3.8255496843006127,0.3807287665968373,-0.48384537986603926,4.807915861094241,-12.170728592039746
0.07311437995365128,-3.77747052568967,0.3758903127981769,-0.6055526657864367,5.66868637922239,-13.263106671220797
0.03533967469675457,-3.720783661897446,0.36983478614031257,-0.7381837324986447,6.432191637952614,-14.162971210209339
-0.0018681619222198909,-3.65646174551792,0.36245294881532614,-0.8798134446007381,7.107880962638729,-14.879966139428296
-0.03843277937739909,-3.585382935891533,0.3536548143693188,-1.028613105995021,7.707767386396735,-15.42899366694251
-0.07428660873631443,-3.5083052620275654,0.3433686833093686,-1.182903042664446,8.24474499812195,-15.82776039024042
-0.10936966135659008,-3.425857812046346,0.33153965288272413,-1.3411806465668503,8.731324719981862,-16.094880774839112
-0.14362823947705355,-3.338544564846527,0.3181278464170556,-1.5021294543152415,9.178799036281408,-16.248571558792953
-0.17701368512551882,-3.246756574483713,0.3031065518739032,-1.664615169903171,9.596774476528953,-16.305862052203594
-0.20948125087035596,-3.1507888297184237,0.28646040017487145,-1.827673790425207,9.992982181468465,-16.28219904857802
-0.2409891391675402,-3.050859007903739,0.2681836622706194,-1.9904957809109871,10.373276814431145,-16.191320853141526
-0.27149772924657756,-2.9471262397594273,0.24827870446150954,-2.1524089894424026,10.74174822019124,-16.045292649226962
-0.30096899164417185,-2.839708757557515,0.2267546145670855,-2.312861915934672,11.100888595566477,-15.85462056719846
-0.329366079219747,-2.72869987160185,0.2036259954077388,-2.4714081216066566,11.451774973585323,-15.628386071341845
-0.3566530779357655,-2.614182121865997,0.17891191419167224,-2.627691982320075,11.7942402587541,-15.374361985070532
-0.3827948991544255,-2.496239719278456,0.1526349943684715,-2.7814356021707805,12.127015541337862,-15.099085807411434
-0.40775729634721003,-2.3749695638650774,0.1248206383467637,-2.9324264602448946,12.447832549016486,-14.807875515925371
-0.4315069919858608,-2.2504912383749125,0.09549637374431474,-3.0805052154041483,12.753478781653179,-14.504778930773234
-0.4540119043696099,-2.1229564505583807,0.06469132159027326,-3.2255530047118808,13.039800090897272,-14.192451193038295
-0.47524146887519375,-1.992558449649408,0.03243579154315445,-3.3674775166422637,13.301647168912355,-13.87195726813066
-0.4951670533716878,-1.8595419779602844,-0.0012389836232681861,-3.50619708932357,13.53276459583775,-13.542498982672683
-0.5137624731512906,-1.724214332001907,-0.036300954516503885,-3.641622079150297,13.725624911316826,-13.201070535524954
-0.5310046164713097,-1.5869580828887386,-0.07271717530800685,-3.7736327845055464,13.871217048029852,-12.842054701624365
-0.546874197300197,-1.4482459124084401,-0.11045350315306232,-3.90205333152179,13.958810177518727,-12.456786621602523
-0.5613566564242815,-1.308657810633253,-0.14947403646828022,-4.026621197737815,13.975732620329143,-12.033136135616905
-0.574443234530614,-1.1689004844299615,-0.18974024844565837,-4.146952559093984,13.907232808151699,-11.555195906782268
-0.5861322393749135,-1.0298281563484446,-0.2312097740365982,-4.262504518161807,13.736525798397833,-11.003212154907306
-0.596430520938398,-0.8924628983644662,-0.2738348192182163,-4.37253663971088,13.445171234887379,-10.353953805438794
-0.6053551499220426,-0.7580111860155925,-0.31756018561532506,-4.476076177765268,13.013966187621321,-9.581770317850973
-0.6129352617821986,-0.6278715241393793,-0.36232094739297777,-4.571893880943778,12.424546458440293,-8.66060826247953
-0.6192139770235924,-0.5036260595549764,-0.40803988620241555,-4.658499963568573,11.66183622406489,-7.567192223363701
-0.6242502376191421,-0.3870076973143275,-0.4546248858381013,-4.73417188580221,10.71732413985606,-6.28536569362552
-0.6281203145922853,-0.2798344559157669,-0.5019666046961234,-4.797025542738465,9.592845580388758,-4.811190839502018
-0.630918659151443,-0.1839060001118793,-0.5499368601235081,-4.8451374511334855,8.304145854473024,-3.157859833504141
-0.6327577191525617,-0.10086454156714905,-0.5983882346348429,-4.876716049468527,6.883124158681001,-1.3589561352776784
-0.6337663645682332,-0.03203329998033903,-0.6471553951295281,-4.890305610821304,5.3775557405053505,0.5315502785877986
-0.6340866975680366,0.021742257424714473,-0.6960584512377411,-4.884990108035426,3.847504713721403,2.443651041439114
-0.6338692749937894,0.0602173045619285,-0.7449083523180954,-4.860553597621035,2.358610369181224,4.2997804605865895
-0.6332671019481702,0.08380340825374075,-0.7935138882943057,-4.817555793015169,0.9736213305873643,6.02563010625213
-0.6324290678656328,0.09353962155961439,-0.8416894462244574,-4.757299491952647,-0.2556490856967711,7.5604327338270325
-0.6314936716500367,0.09098313070264667,-0.8892624411439839,-4.681695164614377,-1.2938643839242738,8.863978485711158
-0.6305838403430102,0.07804448686340393,-0.9360793927901276,-4.593055379757265,-2.1240863280198026,9.918916693396069
-0.6298033954743761,0.0568036235832059,-0.9820099465877002,-4.4938662128233045,-2.7462550142738302,10.728615687810596
-0.6292353592385441,0.029341073440467595,-1.0269486087159332,-4.386580055945198,-3.173372517440023,11.312117382736776
-0.6289419485041394,-0.0023926517339326325,-1.070814409275385,-4.27345888211783,-3.426834834895214,11.698092505183764
-0.6289658750214787,-0.036661000082884775,-1.1135489980965634,-4.156477957065992,-3.5320855130455926,11.919317083146879
-0.6293324850223075,-0.0719818552133407,-1.1551137776672233,-4.037284786234523,-3.515243348827473,12.008488156859043
-0.630052303574441,-0.10713428870161543,-1.1954866255295686,-3.917199904665933,-3.400875145790134,11.995561435048156
-0.6311236464614571,-0.14114304015951676,-1.2346586245762279,-3.7972442903154513,-3.2107790463733097,11.906400979022804
-0.6325350768630523,-0.17325083062324986,-1.2726310674793824,-3.6781802805252233,-2.96351749411004,11.762377976603958
-0.6342675851692848,-0.20288600556435027,-1.3094128702846346,-3.5605565007591835,-2.6744328914652638,11.580559926430382
-0.6362964452249283,-0.2296303344790029,-1.3450184352922265,-3.4447509014948796,-2.355930361827309,11.374207581355302
-0.6385927485697184,-0.253189638097276,-1.3794659443071753,-3.3310088256813266,-2.0178772730408916,11.15338749256642
-0.6411246449506911,-0.2733684108276849,-1.4127760325639886,-3.2194749507556626,-1.6680264815405037,10.92558511077747
-0.643858329058968,-0.29004867564308995,-1.4449707820715452,-3.110219099647888,-1.3124125343736275,10.696258947172716
-0.646758815815399,-0.3031728009868262,-1.476072973068024,-3.003256510176161,-0.9556978302882202,10.46931185585757
-0.6497905438252672,-0.3127297792897084,-1.5061055381697857,-2.8985633916175852,-0.6014622626310641,10.247475974558876
-0.6529178416181644,-0.31874440191601905,-1.5350911720859615,-2.7960886318719966,-0.2524387035880139,10.032618261364785
-0.6561052856373245,-0.3212687889518992,-1.5630520584046814,-2.695762449258349,0.08929927110745783,9.825977837670996
-0.6593179735268435,-0.32037579624082463,-1.590009682897265,-2.597502670881639,0.4221897388907832,9.628347209792967
-0.6625217314892518,-0.3161538988519168,-1.6159847096060813,-2.5012191987837094,0.7450673602197818,9.440208605542306
-0.6656832704777709,-0.308703225249719,-1.6409969015939183,-2.4068171127282865,1.0570742051217725,9.261835127249148
-0.668770302730268,-0.2981324831985013,-1.665065072721201,-2.314198761455795,1.3575908531273544,9.09336472992074
-0.671751627562253,-0.2845565746672277,-1.688207060335759,-2.223265114156588,1.646183190132595,8.934853446690706
-0.6745971933089253,-0.2680947427659018,-1.7104397114773249,-2.133916579689681,1.9225612626872526,8.786312911224996
-0.6772781407365843,-0.24886913013902925,-1.7317788772742218,-2.046053450577431,2.1865473416614067,8.64773609345044
-0.6797668320379746,-0.22700365672241518,-1.752239411779996,-1.9595760896429266,2.438050992231619,8.519114256316653
-0.6820368686051987,-0.202623146800099,-1.7718351726764252,-1.87438494707976,2.6770494603799513,8.400447426788638
-0.6840631000731997,-0.17585265219629947,-1.7905790221472229,-1.7903804728118735,2.903572087817099,8.291750119727627
-0.6858216265951627,-0.14681693131812848,-1.8084828268753417,-1.7074629716145973,3.1176877779506516,8.193053626728684
-0.6872897959083439,-0.11564005353862196,-1.8255574565914876,-1.6255324353473104,3.3194947737523526,8.104405855759168
-0.6884461964437302,-0.08244510580109843,-1.8418127809449607,-1.5444883767897186,3.5091121898583073,8.025869458938043
-0.6892706475017412,-0.047353983902515356,-1.8572576647128578,-1.4642296822003382,3.686672878819956,7.957518796974988
-0.6897441873407664,-0.010487255114315794,-1.8718999615348613,-1.3846544942305883,3.852317315374912,7.899436145568498
-0.6898490598919095,0.02803591803943333,-1.8857465064771672,-1.3056601327749033,4.006188260988656,7.851707440597251
-0.6895687007115151,0.06809780064931989,-1.8988031078049163,-1.227143058368931,4.148426029994613,7.8144177769521885
-0.6888877227050219,0.10958206094926601,-1.9110745383886056,-1.148998880599409,4.27916422325833,7.787646814073209
-0.6877919020955292,0.1523737031818493,-1.9225645271945997,-1.071122412458677,4.398525829108901,7.77146419493731
-0.6862681650637107,0.19635896147293833,-1.9332757513191865,-0.9934077705093038,4.506619617135601,7.765925050829537
-0.6843045754489813,0.24142515764429434,-1.9432098290242796,-0.9157485200010085,4.603536770478755,7.7710656390375
-0.6818903238725383,0.2874605253490819,-1.9523673142242897,-0.8380378636106335,4.689347718066805,7.786899142636521
-0.6790157186190475,0.33435400252974995,-1.960747692860396,-0.7601688721842683,4.764099141080468,7.813411649272748
-0.6756721785937501,0.38199499394055464,-1.9683493815822386,-0.6820347556915408,4.8278111386650995,7.850558318180447
-0.6718522286543445,0.43027310532720564,-1.9751697291391541,-0.6035291725097364,4.880474547232138,7.898259740745572
-0.6675494976010724,0.479077850799527,-1.9812050208642515,-0.5245465751022806,4.922048416073975,7.95639849912013
-0.6627587190930772,0.5282983349602668,-1.9864504866152743,-0.4449825901110793,4.952457649804589,8.024815929225516
-0.6574757357434745,0.5778229114583127,-1.990900312516385,-0.3647344308188242,4.971590835557941,8.103309098595238
-0.6516975066288914,0.627538819813892,-1.9945476568245732,-0.2837013398328718,4.979298280061827,8.19162801561373
-0.6454221184307525,0.6773318026145103,-1.997384670222902,-0.20178505967673452,4.9753902887141885,8.289473094574175
-0.6386488004046074,0.7270857055016522,-1.9994025208196693,-0.11889032873099277,4.95963572561143,8.396492910397399
-0.6313779433495909,0.7766820627577665,-2.0005914241069793,-0.03492539962701878,4.931760900043088,8.512282287626938
-0.6236111227220131,0.8259996717581974,-2.0009406781032495,0.0501974232492506,4.891448831145226,8.636380780233166
-0.6153511260044312,0.8749141600696497,-2.000438703870757,0.13656123105158224,4.838338948010609,8.768271611588077
-0.6066019844037347,0.9232975495497558,-1.9990730915602413,0.22424394716746301,4.772027287345394,8.907381157439985
-0.5973690089082372,0.9710178224232098,-1.9968306520885666,0.31331775874186285,4.692067254441115,9.053079068502013
-0.587658830684005,1.017938494967621,-1.993697474501148,0.403848549426883,4.59797101544233,9.20467914298865
-0.5774794457343289,1.0639182051220442,-1.9896589890068792,0.49589534085676945,4.489211589223855,9.361441072644334
-0.5668402636831085,1.1088103210142828,-1.9847000355983115,0.5895097515832128,4.36522570518509,9.522573197990509
-0.5557521604729656,1.1524625780661337,-1.9788049380824795,0.684735483563118,4.225417488414833,9.68723641908845
-0.5442275346923042,1.194716752950282,-1.9719575832468483,0.7816078477540025,4.069163025435362,9.854549416427636
-0.5322803671628014,1.2354083832046356,-1.9641415047693083,0.8801533419182789,3.8958158515375767,10.023595341905647
-0.519926283330755,1.2743665417200114,-1.9553399713501254,0.9803892953373353,3.7047133840088473,10.193430141537988
-0.5071826179135549,1.3114136755600998,-1.9455360783967521,1.0823235967527152,3.495184303801932,10.363092668792781
-0.4940684811579539,1.3463655185981191,-1.934712842429225,1.185954523440643,3.266556860932376,10.531616739589156
-0.4806048259719727,1.379031087207443,-1.9228532971948187,1.2912706908365346,3.018168045768646,10.69804526641125
-0.46681451509989824,1.4092127676651294,-1.9099405902864532,1.398251143500647,2.7493735292012444,10.861446589192013
-0.45272238742324694,1.4367065029571418,-1.8959580788514467,1.5068656093925672,2.4595582294731426,11.020933094330998
-0.43835532239367553,1.4613020852518732,-1.880889422757521,1.6170749403358773,2.1481473125416652,11.175682180420717
-0.4237423015411568,1.48278355837729,-1.8647186733541623,1.7288317621400844,1.814617376899668,11.324959590301791
-0.4089144659573839,1.5009297321462867,-1.8474303557327614,1.8420813580431024,1.4585075139256705,11.468145084699394
-0.393905168635921,1.5155148072855433,-1.8290095421523302,1.9567628088900964,1.0794298726851368,11.604760384132762
-0.37875002056306556,1.5263091060123948,-1.8094419140634292,2.0728104127314237,0.6770792958821391,11.734499254757296
-0.3634869295029416,1.5330798989712162,-1.788713809936115,2.190155405278997,0.25124153423577794,11.857259562501294
-0.3481561305132294,1.535592314313574,-1.766812255883325,2.3087280009040096,-0.19820050646426607,11.973177070901885
-0.3328002073700937,1.5336103092489313,-1.743724975874285,2.4284597716130287,-0.6712630735629475,12.082660714238914
-0.31746410427760435,1.5268976785133017,-1.7194403781581546,2.549286378755418,-1.1678610449686044,12.186429041582661
-0.30219512749247135,1.5152190680636157,-1.6939475143706004,2.6711506691712446,-1.68781119317419,12.285547501171477
-0.2870429368118352,1.498340956131874,-1.667236007678888,2.7940061441829593,-2.2308398261764175,12.381466218478826
-0.27205952725051646,1.4760325578701097,-1.6392959462370582,2.9178208063677475,-2.7965953282550813,12.47605791282142
-0.25729920167181536,1.4480666045875588,-1.6101177381733807,3.0425813854959616,-3.384666003213714,12.571655588821203
-0.24281853562593977,1.4142199445554215,-1.579691924318421,3.1682979413841736,-3.9946034319627857,12.67108961484945
-0.22867633618038555,1.3742739102357937,-1.5480089449045793,3.2950088375326683,-4.625951270485085,12.777723732512289
-0.21493359707802762,1.3280143975309429,-1.5150588565292527,3.422786074857791,-5.278278996425498,12.89548938143811
-0.20165345310271818,1.2752316075666879,-1.4808309957806747,3.551740968672172,-5.951219506349286,13.028917393914979
-0.1889011370270513,1.215719412503195,-1.445313586093953,3.6820301426113216,-6.644508582982705,13.183165489123962
-0.17674394290201936,1.1492743266733678,-1.4084932846678397,3.813861797502561,-7.358022953515147,13.364038878580688
-0.16525119963528567,1.0756940971382163,-1.3703546666928141,3.947502186288368,-8.091811726336628,13.577999370650815
-0.1544942586639035,0.99477597987485,-1.3308796448299305,4.083282179994876,-8.84611307634089,13.832155141885357
-0.144546498865155,0.9063148491114411,-1.2900468230299817,4.22160373141373,-9.621343599098157,14.134218056393168
-0.13548335037404058,0.8101014131204596,-1.2478307857158444,4.362945911977661,-10.41804091074878,14.492406856519112
-0.127382336242836,0.7059210040129718,-1.2042013265960678,4.507869980542853,-11.23672949560946,14.915260843929538
-0.12032312620270627,0.5935537090568772,-1.1591226267906394,4.657022588982148,-12.07766344971843,15.41130693634702
-0.1143875891121375,0.47277707455969287,-1.1125524009008179,4.811135658345618,-12.940374579285306,15.988488880370388
-0.10965981836654058,0.3433733287668398,-1.0644410443173618,4.9710205471493225,-13.822915919567905,16.653214638368414
-0.10622608507887218,0.20514416957116074,-1.0147308388458685,5.1375526935330065,-14.720633394228631,17.408798095019584
-0.10417464338316057,0.05793783562887442,-0.9633553119105384,5.311640674483202,-15.624215776728317,18.252954600808767
-0.10359526502687183,-0.09830432213840876,-0.9102389051657064,5.49417022049129,-16.516662156286646,19.17385023037583
-0.10457830824825592,-0.2634709437012752,-0.8552972029607935,5.685908722795048,-17.368677119162953,20.144013043463016
-0.10721301768526868,-0.4371577148929048,-0.798438115732843,5.887348853229678,-18.13190692217063,21.11125494167366
-0.11158459483419773,-0.618476784114611,-0.7395646272005462,6.098461402646415,-18.729512434000675,21.985820659365757
-0.11776936267534384,-0.8057719084546178,-0.678580013174082,6.318319609240072,-19.044188941111287,22.623753608985144
