th1 (rad),w1 (rad/s),th2 (rad),w2 (rad/s),a1 (rad/s^2),a2 (rad/s^2)
6.187486978952449,-2.9969567064289375,0.7262499035638165,1.065955573648453,7.558996585456472,-18.23291540608992
6.1575174118881595,-2.921366740574373,0.736909459300301,0.8836264195875537,7.324578605155709,-17.832179646952987
6.128303744482416,-2.8481209545228157,0.7457457234961766,0.7053046231180239,7.1193935820649195,-17.428828353527866
6.0998225349371875,-2.7769270187021666,0.7527987697273568,0.5310163395827452,6.9487681486611965,-17.029750590149384
6.072053264750166,-2.7074393372155545,0.7581089331231843,0.36071883368125135,6.815465253680868,-16.638483720687425
6.044978871378011,-2.6392846846787457,0.7617161214599968,0.1943339964743771,6.720513495559296,-16.25640437358363
6.018586024531223,-2.572079549723153,0.7636594614247405,0.031769952738540774,6.663781076371799,-15.883564251496097
5.992865229033992,-2.505441738959435,0.7639771609521259,-0.1270656897764202,6.644366895529177,-15.519268995327641
5.967810811644398,-2.438998070004143,0.7627065040543617,-0.2822583797296966,6.660864034151549,-15.16247497620971
5.943420830944357,-2.372389429662628,0.7598839202570647,-0.4338831294917937,6.71153597609812,-14.812058623958514
5.91969693664773,-2.3052740699016465,0.7555450889621468,-0.5820037157313789,6.794434264331447,-14.466997048150686
5.8966441959487135,-2.237329727258332,0.749725051804833,-0.7266736862128857,6.9074776551544605,-14.126486986341542
5.87427089867613,-2.1682549507067876,0.7424583149427041,-0.8679385560763011,7.048506617982627,-13.79002073826181
5.8525883491690625,-2.0977698845269614,0.7337789293819411,-1.0058387634589192,7.215322631493389,-13.457431894805017
5.8316106503237926,-2.0256166582120274,0.7237205417473519,-1.1404130824069694,7.40571864412482,-13.128919652550866
5.811354483741672,-1.9515594717707792,0.7123164109232822,-1.2717022789324781,7.617504912885104,-12.805057782877755
5.791838889023964,-1.875384422641928,0.6995993881339575,-1.3997528567612556,7.848532929098074,-12.486792504990948
5.773085044797544,-1.7968990933509472,0.6856018595663449,-1.524620781811165,8.096719084942197,-12.17543231136369
5.755116053864035,-1.7159319025015252,0.6703556517482332,-1.6463751049248019,8.36006899265728,-11.872632011586187
5.7379567348390195,-1.6323312125749523,0.6538919006989852,-1.7651014250406638,8.63670284389373,-11.580372754778788
5.72163342271327,-1.545964184136015,0.6362408864485786,-1.8809051525884517,8.92488182374076,-11.300939460862947
5.70617378087191,-1.4567153658986074,0.617431834922694,-1.9939145471970812,9.223035325462375,-11.036896864161486
5.6916066272129235,-1.3644850126439836,0.5974926894507232,-2.104283515838696,9.529788512559804,-10.79106519407692
5.677961777086484,-1.2691871275183855,0.5764498542923362,-2.212194167779465,9.843989615180082,-10.566496342565078
5.6652699058113,-1.1707472313665845,0.5543279126145415,-2.317859131205116,10.164736200201249,-10.366451156713836
5.653562433497634,-1.0690998693645721,0.5311493213024904,-2.421523642772254,10.49139948769857,-10.194378205365812
5.642871434803989,-0.9641858744875864,0.5069340848747679,-2.5234674248259124,10.82364556249401,-10.05389395185841
5.633229576059113,-0.8559494188626463,0.48169941062650873,-2.6240063643444964,11.1614519963914,-9.948763655080526
5.6246700818704864,-0.7443348988987323,0.4554593469830638,-2.7234940008953017,11.505117881905633,-9.882881425788577
5.617226732881499,-0.6292837200796759,0.4282244069741108,-2.8223228151531874,11.85526447767318,-9.860246549853985
5.610933895680702,-0.5107310753029441,0.4000011788225789,-2.920925280651727,12.212822428420603,-9.884931255917238
5.605826584927673,-0.38860285101873815,0.37079192601606165,-3.0197745932108995,12.578999629169346,-9.961032257202866
5.601940556417485,-0.2628128547270447,0.34059418008395265,-3.1193849157829283,12.955220936715792,-10.092594201955404
5.599312427870215,-0.13326064535988677,0.30940033092612335,-3.2203108578024824,13.343026635636543,-10.283486992177625
5.597979821416616,0.0001696209964786588,0.2771972223480985,-3.323145727724259,13.743910199174074,-10.53720987472336
5.597981517626581,0.1376087229882194,0.24396576507085593,-3.4285178264714924,14.159066572582626,-10.856582029373493
5.599357604856463,0.2791993887140457,0.20968058680614102,-3.537083646765227,14.589008825700406,-11.243260459002792
5.602149598743604,0.42508947697104976,0.17430975033848875,-3.649516251355255,15.032992298449482,-11.69699945250577
5.6064004935133145,0.5754193999555446,0.1378145878249362,-3.7664862458803126,15.488160256473526,-12.214530117798741
5.61215468751287,0.7303010025202799,0.10014972536613306,-3.8886315470583,15.948293836705508,-12.7878935362756
5.619457697538073,0.8897839408873349,0.06126340989555006,-4.016510482421056,16.40201574564073,-13.402012172006584
5.6283555369469465,1.0538040983437422,0.0210983050713395,-4.150530604141122,16.830274967198513,-14.031249016555714
5.638893577930384,1.2221068480157273,-0.02040700097007172,-4.290843094306679,17.202961273959513,-14.634727215711798
5.651114646410541,1.3941364607553224,-0.06331543191313851,-4.437190366463796,17.474633027246853,-15.150360544319478
5.665056011018094,1.568882791027791,-0.10768733557777649,-4.5886939719069915,17.579718243677867,-15.488056220967454
5.680744838928372,1.7446799734645695,-0.15357427529684642,-4.743574534116666,17.428364559275366,-15.523673211981276
5.698191638663018,1.9189636190573232,-0.2010100206380131,-4.898811266236479,16.90557010618134,-15.097338909515512
5.717381274853591,2.0880193201191366,-0.2499981333003779,-5.049784655331634,15.878255425782514,-14.022563045635541
5.738261468054782,2.2468018743769615,-0.30049597985369425,-5.19001028578799,14.216546073799876,-12.114882387225386
5.760729486798552,2.3889673351149603,-0.35239608271157413,-5.3111591096602435,11.833964065019552,-9.24669584881923
5.784619160149702,2.5073069757651556,-0.40550767380817654,-5.403626068148435,8.742309076334772,-5.422702943587237
5.809692229907354,2.5947300665285034,-0.4595439344896609,-5.457853097584308,5.09971001601707,-0.8464390251490664
5.835639530572639,2.645727166688674,-0.514122465465504,-5.4663174878357985,1.2153908357886543,4.0723411560747484
5.862096802239526,2.6578810750465602,-0.568785640343862,-5.425594076275051,-2.5151093514285776,8.805689520250708
5.888675612989991,2.6327299815322744,-0.6230415811066126,-5.337537181072545,-5.7260726260917565,12.865836360803582
5.915002912805314,2.575469255271357,-0.676416952917338,-5.208878817464509,-8.186607282290186,15.947917852746064
5.940757605358028,2.4936031824484552,-0.7285057410919832,-5.049399638937048,-9.83798767876454,17.9797054896728
5.965693637182513,2.3952233056608097,-0.7789997374813536,-4.8696025840403205,-10.759383764977802,19.073646371731016
5.989645870239121,2.2876294680110316,-0.8276957633217569,-4.67886612032301,-11.101286230829501,19.435654252117804
6.012522164919232,2.1766166057027365,-0.874484424524987,-4.484509577801832,-11.026883204724433,19.285713622510634
6.034288330976259,2.066347773655492,-0.9193295203030053,-4.291652441576726,-10.678184570277226,18.81276596311449
6.054951808712814,1.9595659279527198,-0.9622460447187726,-4.103524781945581,-10.164213101318145,18.159706281672246
6.074547467992341,1.8579237969395384,-1.0032812925382284,-3.921927719128859,-9.562060012609424,17.42565393024302
6.093126705961736,1.7623031968134442,-1.0425005697295169,-3.747671179826429,-8.92306044563933,16.67488127384156
6.11074973792987,1.6730725923570509,-1.0799772815277813,-3.580922367088013,-8.279719678514258,15.94650518386328
6.127480463853441,1.5902753955719082,-1.1157865051986615,-3.42145731524938,-7.651591091216263,15.262578428274702
6.14338321780916,1.5137594846597455,-1.1500010783511554,-3.268831530966633,-7.049686807113306,14.634084786240445
6.158520812655757,1.4432626165886124,-1.1826893936608218,-3.1224906831042283,-6.479570781948878,14.065092848935759
6.172953438821644,1.3784669087691237,-1.213914300491864,-2.9818397546148705,-5.943439872508926,13.55551504256537
6.186738107909335,1.3190325100440345,-1.2437326980380128,-2.8462846041892167,-5.441485648691241,13.102886818832422
6.1999284330097755,1.264617653557122,-1.2721955440799049,-2.7152557360008927,-4.972767059925832,12.703486974726161
6.212574609545347,1.2148899829578637,-1.2993481014399137,-2.5882208662536312,-4.5357592817038865,12.353027008082789
6.224723509374925,1.1695323901408248,-1.32523031010245,-2.464690596172803,-4.128691919766701,12.047063926121451
6.236418833276334,1.1282454709431577,-1.349877216064178,-2.3442199569115885,-3.7497519065260025,11.78123825849261
6.247701287985765,1.0907479518778977,-1.373319415633294,-2.2264075743266623,-3.3972003887905977,11.551403157599484
6.258608767504544,1.0567759479899919,-1.3955834913765606,-2.1108935427506674,-3.0694355231570145,11.353686740874796
6.269176526984444,1.0260815927584217,-1.4166924268040673,-1.9973566753419194,-2.765021691248968,11.184514403609866
6.279437342912028,0.998431375845932,-1.4366659935574864,-1.8855115313058208,-2.4826982422083597,11.040607909186482
6.289421656670488,0.9736043934238484,-1.4555211088705446,-1.775105452213956,-2.221376091532217,10.918971726447923
6.299157700604726,0.9513906325085263,-1.4732721633926842,-1.6659157349494769,-1.9801274338094563,10.81687305688443
6.308671606929812,0.9315893581704318,-1.489931320742179,-1.5577470043806325,-1.758171858043667,10.731819446809547
6.317987500511516,0.9140076395899951,-1.5055087907859852,-1.450428809912537,-1.5548608956190113,10.661536276414886
6.327127576907416,0.898459030633805,-1.5200130788851105,-1.3438134471483882,-1.369662229135677,10.603945415450541
6.336112167213754,0.8847624083424481,-1.5334512133565943,-1.237773992993883,-1.2021442820731596,10.557145715110183
6.344959791297178,0.8727409655217165,-1.545828953286533,-1.1322025358427812,-1.0519615894813943,10.519395627665237
6.353687200952395,0.8622213496269026,-1.5571509786449609,-1.0270085795661288,-0.9188411510295889,10.48909802031843
6.3623094144486645,0.8530329381166066,-1.5674210644406221,-0.9221175993629445,-0.8025698462053399,10.464787120786706
6.370839743829831,0.8450072396545533,-1.5766422404342515,-0.8174697281550773,-0.7029829191894242,10.445117463061433
6.379289816226376,0.8379774104626591,-1.5848169377158023,-0.713018553524463,-0.6199534998600682,10.428854669587032
6.387669590331003,0.8317778754640583,-1.591947123251047,-0.6087300068285927,-0.5533831058850215,10.414867896122564
6.395987369085643,0.8262440444052082,-1.5980344233193329,-0.5045813278673671,-0.5031930615036949,10.402123768554924
6.404249809529695,0.8212121137901712,-1.6030802365980066,-0.4005600901818178,-0.4693167666626814,10.389681651100334
6.412461930667597,0.8165189461235444,-1.6070858374998247,-0.29666327367081446,-0.45169275268961034,10.37669009902894
6.420627120128832,0.8120020185966482,-1.6100524702365329,-0.19289637268052506,-0.4502584658641327,10.362384364027351
6.428747140314798,0.8074994339380069,-1.611981433963338,-0.08927252904025156,-0.46494472700716516,10.346084835200346
6.436822134654179,0.8028499866679353,-1.6128741592537406,0.014188319311751907,-0.4956708229726864,10.327196312678453
6.444850634520858,0.7978932784382085,-1.612732276060623,0.11746028243853644,-0.5423401944063604,10.305208023360384
6.45282956730524,0.7924698764941448,-1.6115576732362378,0.2205123626721403,-0.6048366932225113,10.279694299215889
6.460754266070181,0.7864215095619197,-1.6093525496095165,0.32330930566429916,-0.6830213929365159,10.250315847692445
6.4686184811658,0.7795912956325546,-1.6061194565528734,0.42581246414122365,-0.776729945296148,10.216821551106543
6.476414394122125,0.7718239961795931,-1.6018613319114612,0.5279806796522891,-0.8857704876019897,10.179050737552776
6.484132634083921,0.7629662913035732,-1.5965815251149382,0.6297711870278169,-1.009922116671164,10.136935870023038
6.491762296996957,0.7528670701368615,-1.59028381324466,0.7311405457280472,-1.148933957500335,10.090505603389552
6.499290967698326,0.7413777305618582,-1.5829724077873795,0.8320456017619428,-1.3025248671675493,10.039888161077371
6.506704745003945,0.7283524818901826,-1.5746519517697601,0.9324444833727165,-1.4703838271443923,9.985314985166074
6.513988269822847,0.7136486436187387,-1.565327506936033,1.0322976332243772,-1.652171089661628,9.927124615974536
6.521124756259034,0.6971269327221224,-1.5550045306037892,1.1315688793841225,-1.8475201557126941,9.865766760680168
6.5280960255862555,0.6786517311649956,-1.543688841809948,1.2302265469909242,-2.0560406732797247,9.8018065161019
6.534882542897906,0.6580913244321983,-1.5313865763400387,1.3282446121519431,-2.277322354009957,9.735928719423104
6.541463456142228,0.6353181008920987,-1.5181041302185192,1.4256038993461742,-2.5109400144705396,9.668942413395397
6.547816637151149,0.6102087007473933,-1.5038480912250574,1.5222933234801281,-2.7564598539624003,9.601785430512102
6.553918724158622,0.5826441022077693,-1.488625157990256,1.6183111777852492,-3.013447084497605,9.535529124800878
6.5597451651807,0.5525096313627933,-1.4724420462124035,1.713666469033258,-3.281475029934956,9.471383311193168
6.5652702614943275,0.5196948810634437,-1.455305381522071,1.8083803021451896,-3.5601358106256846,9.410701511656296
6.570467210304962,0.4840935229571869,-1.437221578500619,1.9024873172617527,-3.8490527276751716,9.35498665496334
6.5753081455345335,0.44560299568043515,-1.4181967053280016,1.9960371838113862,-4.147894457720343,9.305897433355076
6.579764175491338,0.40412405110323174,-1.3982363334898877,2.0890961581449368,-4.456391165759855,9.265255584243665
6.58380541600237,0.3595601394456332,-1.3773453719084383,2.1817487139873735,-4.774352640896993,9.235054437818782
6.587401017396827,0.31181661303666325,-1.3555278847685646,2.2740992583655615,-5.101688558536126,9.217469150535315
6.590519183527194,0.260799727451302,-1.3327868921849089,2.3662739498709144,-5.438430972772126,9.214869127578726
6.593127180801707,0.2064154177235807,-1.3091241526861996,2.4584226411467016,-5.784759143541508,9.229833220615603
6.595191334978943,0.14856782628816564,-1.2845399262747326,2.5507209733528575,-6.141026801805072,9.265168364210876
6.596677013241825,0.08715755827011493,-1.259032716541204,2.6433726569949663,-6.507791946693196,9.32393237525523
6.597548588824527,0.022079638803182963,-1.2325989899712544,2.7366119807475187,-6.8858492401135525,9.409461668516801
6.597769385212558,-0.04677885359795256,-1.2052328701637791,2.8307065974326866,-7.276264997463347,9.525404611893748
6.597301596676579,-0.11954150357258603,-1.1769258041894521,2.925960643551624,-7.680414635202518,9.675761114454033
6.596106181640853,-0.1963456499246112,-1.147666197753936,3.0227182546961644,-8.100022173252093,9.864928739052376
6.594142725141607,-0.27734587165713215,-1.1174390152069744,3.121367542086688,-8.53720091438099,10.0977550446008
6.591369266425035,-0.362717880800942,-1.0862253397861075,3.2223450925326964,-8.994493590566771,10.379594802762686
6.587742087617026,-0.45266281670660974,-1.0540018888607805,3.3261410405603233,-9.474908844813008,10.716368890876474
6.58321545944996,-0.5474119051547398,-1.0207404784551772,3.433304729469088,-9.981948527521212,11.114618529677715
6.577741340398412,-0.6472313904299519,-0.9864074311604863,3.544450914765865,-10.519616313733092,11.581543277462583
6.571269026494113,-0.7524275535672829,-0.9509629220128277,3.660266347540491,-11.09239159076646,12.12500244521282
6.56374475095844,-0.8633514694749475,-0.9143602585374229,3.7815163719926193,-11.705141801775321,12.753445126237507
6.5551112362636905,-0.9804028874927007,-0.8765450948174967,3.9090508232549945,-12.3629288413789,13.475710211272423
6.545307207388763,-1.1040321759064897,-0.8374545865849468,4.043807925367719,-13.070636511008068,14.300598764117531
6.534266885629698,-1.2347385410165703,-0.7970165073312696,4.186813913008894,-13.832299947250272,15.236057825148995
6.521919500219532,-1.3730615404890731,-0.7551483682011807,4.339174491260384,-14.649944606676586,16.287713313469546
6.508188884814642,-1.519560986555839,-0.7117566232885768,4.502051624395079,-15.52162842843629,17.456331018777746
6.492993274949083,-1.674777270840202,-0.666736107044626,4.676614934582857,-16.438210991568315,18.733546386474867
6.4762455022406815,-1.8391593807558853,-0.6199699576987975,4.863950398447606,-17.378140171412042,20.094872967999247
6.457853908433123,-2.0129407824700056,-0.5713304537143215,5.064899128127598,-18.29927972410389,21.488613299064486
6.4377245006084225,-2.1959335797110446,-0.5206814624330455,5.279785261118243,-19.12664658587913,22.81905121116852
6.415765164811312,-2.387200045569836,-0.46788360982186306,5.507975773229928,-19.735326221730734,23.922806392636897
6.391893164355613,-2.5845533077871434,-0.41280385208956377,5.747203837156297,-19.9298508197753,24.539950406335215
6.366047631277742,-2.7838518159848964,-0.3553318137180008,5.992603341219649,-19.42697424152317,24.289227342410094
6.338209113117893,-2.978121558400128,-0.29540578030580433,6.2354956146437495,-17.860430104442177,22.672834173055147
6.308427897533892,-3.15672585944455,-0.23305082415936684,6.462223956374301,-14.842312344244249,19.158581341306846
6.276860638939446,-3.3051489828869927,-0.16842858459562382,6.65380976978737,-10.119151549521325,13.39237505470199
6.243809149110576,-3.406340498382206,-0.10189048689775013,6.78773352033439,-3.810250846833122,5.524499019095396
6.209745744126754,-3.444443006850537,-0.03401315169440622,6.842978510525344,3.412808624486713,-3.5445330087724067
6.175301314058249,-3.41031492060567,0.03441663341084722,6.80753318043762,10.439341123005061,-12.320451990836434
6.1411981648521925,-3.3059215093756196,0.10249196521522341,6.684328660529255,16.18011838209294,-19.34704580953712
6.108138949758437,-3.1441203255546903,0.16933525182051595,6.490858202433884,20.04845982438684,-23.860355948598162
6.07669774650289,-2.943635727310822,0.2342438338448548,6.252254642947903,22.07731523776966,-25.93875311357782
6.0472613892297815,-2.7228625749331252,0.29676638027433383,5.992867111812124,22.682654071050113,-26.170853331748333
6.02003276348045,-2.496036034222624,0.35669505139245505,5.731158578494641,22.363651089668867,-25.244420414767003
5.995072403138224,-2.2723995233259355,0.4140066371774015,5.478714374346971,21.530446292110167,-23.715283423788733
5.972348407904964,-2.057095060404834,0.4687937809208712,5.241561540109084,20.461339408434107,-21.954214058720463
5.951777457300916,-1.8524816663204928,0.5212093963219621,5.022019399521879,19.323292654412064,-20.178795021050185
5.933252640637711,-1.6592487397763722,0.5714295903171809,4.820231449311377,18.206880852269308,-18.503181957408277
5.916660153239947,-1.477179931253679,0.6196319048102946,4.635199629737294,17.155751278591495,-16.97908815791455
5.9018883539274105,-1.305622418467764,0.6659839011076676,4.465408748158149,16.186715799749013,-15.623295438787194
5.888832129742733,-1.1437552604702739,0.7106379885892491,4.309175793770277,15.302137632324168,-14.434352149665418
5.8773945771380305,-0.9907338841470321,0.7537297465269519,4.164832272273623,14.497140455974277,-13.402114954109893
5.86748723829656,-0.8457624795872893,0.7953780692496881,4.030811122732524,13.763642379346434,-12.512960211334404
5.859029613500687,-0.7081260557938249,0.8356861804770134,3.9056815206191797,13.092535438583356,-11.752501544677415
5.851948352942749,-0.5772007014079914,0.8747429956832051,3.7881565051724055,12.474813678263981,-11.106917056265173
5.846176345928669,-0.4524525646253516,0.9126245607349291,3.677087334609754,11.902118174388242,-10.563522346307144
5.841651820282415,-0.3334313828814692,0.9493954340810267,3.5714521111466824,11.366965789348912,-10.11094726525049
5.8383175064536,-0.21976172498798005,0.9851099551924934,3.4703426384941776,10.862811284644772,-9.739114336481546
5.8361198892037205,-0.11113361214153232,1.0198133815774353,3.372951495129362,10.384025581038118,-9.439126527394528
5.8350085530823055,-0.007293356331151135,1.053542896528729,3.2785602298554166,9.925835238553669,-9.203121717010001
5.834935619518994,0.09196499605438556,1.0863284988272832,3.1865290126853165,9.484247109539826,-9.024123396506244
