th1 (rad),w1 (rad/s),th2 (rad),w2 (rad/s)
5.539670196380335,2.4002725664929216,4.546287280094023,-0.5251861921263706
5.5636729220452645,2.4303831686412574,4.5410354181727595,-0.3966984156238862
5.587976753731677,2.460023607307165,4.53706843401652,-0.2651664098887989
5.612576989804749,2.489059879334371,4.534416769917632,-0.1305720874115928
5.637467588598093,2.5173332154122905,4.533111049043516,0.00709526120677087
5.6626409207522155,2.544660549796134,4.533182001655583,0.14783543262910878
5.688087526250177,2.570834869475929,4.534660355981875,0.29163408136332925
5.713795874944936,2.5956255091644778,4.537576696795508,0.4384598018947384
5.739752130036581,2.618778459283908,4.541961294814455,0.5882615405055178
5.76593991462942,2.6400167537959387,4.547843910219511,0.7409663672324382
5.792340082167379,2.6590410032884026,4.555253573891835,0.8964776504382497
5.818930492200263,2.6755301360678803,4.564218350396217,1.0546736875163585
5.845685793560942,2.6891424058628046,4.5747650872713805,1.2154068546939745
5.87257721761957,2.6995167187897646,4.58691915581832,1.3785033461710932
5.899572384807468,2.706274324129189,4.600704189280031,1.5437635773933949
5.926635128048759,2.709020902863945,4.616141825053965,1.710963328615875
5.953725337077398,2.707349074584398,4.6332514583401245,1.8798557026528602
5.980798827823242,2.7008413270869536,4.652050015366653,2.050173964519667
6.0078072410941115,2.6890733537646714,4.67255175501185,2.221635320393834
6.034697974631758,2.6716177618661563,4.694768108215788,2.3939456789997173
6.0614141522504195,2.648048090259999,4.7187075650057855,2.5668054204314075
6.087894633153019,2.6179430491124314,4.7443756192101,2.7399161761362234
6.114074063644144,2.580890866760304,4.771774780971462,2.9129886001459697
6.139882972311747,2.536493602211795,4.800904666972922,3.08575108682719
6.165247908333865,2.4843712565780627,4.8317621778411945,3.2579593658517356
6.190091620899645,2.4241654950327063,4.864341771499712,3.42940688237666
6.214333275849972,2.3555427745532134,4.898635840323478,3.5999358512189126
6.237888703595504,2.2781966638921056,4.934635198835667,3.7694488595740965
6.2606706702344255,2.1918491433949083,4.972329687431408,3.937920884472063
6.2825891616683744,2.096250686264324,5.0117088962761285,4.105411588524674
6.303551668531018,1.991178953210072,5.052763012161376,4.272077758583692
6.323463458063118,1.8764359840042886,5.095483789747212,4.438185751624724
6.3422278179031615,1.7518438496703248,5.139865647263459,4.604123800558434
6.359746256399864,1.6172388498136194,5.185906885269043,4.770413991995805
6.375918644898,1.4724645209566423,5.233611025189001,4.9377236279876415
6.390643290107567,1.3173639975476528,5.282988261468877,5.10687547385361
6.403816930083043,1.1517726949062905,5.334057016207414,5.2788559907230885
6.415334657032107,0.9755129589888426,5.386845576114645,5.454819916451282
6.425089786621995,0.788393411068044,5.441393775279158,5.636088266151103
6.432973720732675,0.5902174660855011,5.497754657940669,5.824134607032728
6.43887589539353,0.38080833307613104,5.555996004010996,6.020550739118846
6.4426839787242915,0.16006233563883543,5.616201511402185,6.2269767963033384
6.44428460208068,-0.07195052752665432,5.678471279365218,6.444971029280044
6.443565096805414,-0.3148092968230045,5.7429209896580184,6.675779723700732
6.440417003837184,-0.567444217894711,5.8096787868950255,6.919947181690905
6.434742561658237,-0.8276590105841457,5.878878258711935,7.176682548031874
6.426465971552396,-1.0914082764584276,5.950645084192254,7.4428890682361155
6.415551888787812,-1.3518005110521858,6.025073974874615,7.711804156973659
6.40203388367729,-1.5979402619544747,6.102192016444351,7.971386779567741
6.386054481057745,-1.8140695457776554,6.181905884240028,8.203055721620455
6.367913785599969,-1.9800306196094108,6.263936441456233,8.382150515222632
6.3481134794038745,-2.074447051824502,6.347757946608459,8.48201241038391
6.327369008885629,-2.0811113978729074,6.432578070712298,8.482368333829271
6.3065578949069,-1.9961184319763603,6.51740175405059,8.378711003296223
6.286596710587137,-1.8306289671126896,6.601188864083553,8.185803488469777
6.26829042091601,-1.6064255669101182,6.68304689896825,7.9315920720394475
6.252226165246909,-1.3475953712851676,6.7623628196886445,7.646157444862671
6.238750211534057,-1.074095087825737,6.838824394137271,7.353429444304236
6.2280092606558,-0.7995480934770551,6.912358688580313,7.068638994729015
6.22001377972103,-0.5319839982402913,6.983045078527603,6.799610155944506
6.214693939738627,-0.27553204179076657,7.051041180087048,6.549182224636688
6.211938619320719,-0.03195538657347699,7.116533002333415,6.317308710195384
6.211619065454984,0.1982793914634288,7.179706089435369,6.102476271516219
6.213601859369619,0.41534714216068014,7.240730852150531,5.902548166073872
6.217755330791226,0.6196935363743974,7.29975633381127,5.715225287661407
6.22395226615497,0.8118386665981296,7.356908586687884,5.538280382520033
6.232070652820951,0.9922809269226063,7.412291390513084,5.369666365510796
6.241993462090178,1.1614563821859438,7.465988054168192,5.207558085605505
6.253608025912037,1.3197278048000172,7.518063635024247,5.050360594006527
6.266805303960037,1.4673888801286645,7.568567240964312,4.896701643319537
6.281479192761324,1.6046755596886653,7.617534257397508,4.745417592414882
6.297525948358211,1.7317801692517654,7.664988433321657,4.595537245222168
6.314843750050729,1.8488658891188066,7.710943805773878,4.446265686270438
6.333332408941917,1.95608033382397,7.755406462636582,4.296968906292801
6.352893212280157,2.0535675734532304,7.79837615169951,4.147159390155475
6.373428888014689,2.14147828377332,7.839847745601065,3.996482565896577
6.394843670852422,2.2199779111909486,7.879812571260031,3.844703922982429
6.417043449964332,2.289252858363417,7.918259610489855,3.6916966095982655
6.439935978547966,2.349514772871649,7.9551765765858375,3.5374293630934925
6.463431126276683,2.4010030733015983,7.990550870216772,3.3819546871230655
6.487441157009699,2.4439858835720045,8.024370417088003,3.225397248522181
6.511881015845419,2.478759571713403,8.056624389573225,3.0679425185617966
6.536668611562553,2.5056471054684595,8.087303814758842,2.9098257231595377
6.5617250826172375,2.5249954449573178,8.116402071990438,2.7513211935911417
6.586975037066811,2.537172192861748,8.143915283926349,2.5927322235545223
6.612346758995428,2.542561715822864,8.169842606161895,2.434381541341675
6.637772376153657,2.541560937906463,8.194186421575312,2.276602499197301
6.663187985532721,2.5345749891508578,8.216952446567285,2.119731067789226
6.68853373542423,2.5220128705947453,8.238149757245179,1.9640987042534988
6.713753864130177,2.5042832730623026,8.257790744287714,1.8100261395884043
6.7387966968608,2.4817906616069996,8.275891005683597,1.6578181071428966
6.76361460347687,2.454931712034734,8.292469186755026,1.5077590101956393
6.788163920597217,2.4240921613410906,8.307546776856983,1.3601095044641252
6.812404842210628,2.389644111023914,8.321147871901625,1.2151039518113511
6.836301283320868,2.3519438016889107,8.333298911419739,1.0729486851073258
6.859820721337757,2.3113298595704923,8.344028398270812,0.9338210115374439
6.882934019933462,2.2681220007712586,8.353366608386185,0.7978688727517709
6.9056152399411745,2.2226201672405748,8.361345297113703,0.6652110750206919
6.92784144161358,2.175104059681372,8.367997407863909,0.5359380007306506
6.949592482210394,2.1258330264957523,8.373356787871215,0.41011271371851177
6.970850812475351,2.075046264271427,8.3774579150084,0.2877723746220198
6.991601275118065,2.022963283834909,8.38033563875462,0.1689298880943093
7.011830907956415,1.9697845961885088,8.382024937635563,0.05357571086623002
7.0315287539183,1.915692574336909,8.382560694744226,-0.058320242259003244
7.050685679661669,1.860852449740318,8.381977492321637,-0.16680664878091717
7.069294204159072,1.8054134055784872,8.380309425833827,-0.2719488308121718
7.0873483382148565,1.7495097328852478,8.377589937525705,-0.37382684634892804
7.104843435543709,1.6932620196722785,8.373851669062216,-0.4725336484270314
7.121776055740432,1.6367783472047535,8.369126332577945,-0.5681733336094701
7.13814383921248,1.5801554714658301,8.36344459924185,-0.6608594945015817
7.153945393927138,1.5234799714381846,8.356836004296834,-0.7507136850307361
7.1691801936415205,1.4668293490620128,8.349328867446527,-0.8378640020690642
7.18384848713214,1.4102730685540774,8.340950227425836,-0.9224437825978484
7.197951217817681,1.353873525170898,8.331725789599858,-1.0045904119607723
7.21148995306939,1.297686935470354,8.32167988548025,-1.0844442357627173
7.224466822424094,1.2417641426841313,8.310835443122624,-1.1621475655630338
7.236884463850935,1.1861513319835928,8.299213967466994,-1.2378437666044393
7.248745977170771,1.130890651236062,8.28683552980095,-1.3116764143284922
7.260054883683132,1.0760207333440073,8.273718765657664,-1.3837885052775913
7.270815091016572,1.021577116475837,8.259880880604888,-1.454321707100366
7.28103086218133,0.9675925584753945,8.245337663533883,-1.5234156317001997
7.2907067877660845,0.9140972415209629,8.230103507216882,-1.5912071150449634
7.2998477601812946,0.8611188627391965,8.214191436066432,-1.6578294867526917
7.308458948808687,0.8086826060144899,8.197613141198905,-1.723411812261476
7.316545774868832,0.7568109897258981,8.180379023076291,-1.7880780901793618
7.324113884766091,0.7055235846577872,8.162498242174498,-1.8519463873107966
7.331169120612669,0.6548365959472152,8.14397877830139,-1.9151278939164669
7.337717486572141,0.6047623027506829,8.124827499362226,-1.9777258820624812
7.343765109599648,0.5553083494616677,8.105050240541601,-2.0398345505725515
7.349318193094264,0.5064768829478666,8.084651895035876,-2.101537741281619
7.354382961923743,0.45826353160360417,8.06363651762306,-2.162907513227795
7.358965597239779,0.41065622427591036,8.042007442490782,-2.224002564404292
7.363072159482538,0.36363385062123377,8.019767416846738,-2.2848664950892075
7.366708497988751,0.31716476953331724,7.996918751895846,-2.3455259130157824
7.369880145684084,0.2712051793426684,7.973463492765688,-2.4059883892381264
7.37259219747751,0.22569737293442171,7.9494036088733075,-2.4662402850208753
7.374849171206854,0.1805679131505066,7.924741206023099,-2.5262444849507752
7.376654850338359,0.13572577912633693,7.899478761173591,-2.585938090142285
7.378012108129623,0.09106055265553789,7.873619380272168,-2.645230148056641
7.378922713656178,0.04644073502931626,7.8471670787916015,-2.7039995218182864
7.379387121006471,0.0017123082847204166,7.820127083573419,-2.7620930310769385
7.379404244089319,-0.04330232109181713,7.792506153262649,-2.8193240265788386
7.378971220878401,-0.08880483567060693,7.764312912996861,-2.8754715886310462
7.378083172521695,-0.13502080052097765,7.73555819711055,-2.930280561140652
7.376732964516485,-0.18219855232578344,7.706255391499144,-2.9834626420855357
7.374910978993227,-0.2306070082661843,7.676420765078288,-3.034698741294047
7.3726049089105645,-0.28053224806573124,7.646073777665348,-3.0836427802437525
7.369799586429907,-0.33227277747688033,7.61523734986291,-3.1299270403990196
7.366476858655138,-0.38613346427612366,7.583938079458919,-3.173169063691715
7.3626155240123765,-0.44241824670975577,7.552206388822002,-3.212979973734543
7.358191341545279,-0.5014218419377152,7.520076589084657,-3.2489739290945554
7.353177123125902,-0.5634208147546457,7.487586849793711,-3.28077825832703
7.347542914978355,-0.6286644856627792,7.454779067210441,-3.308043685255566
7.341256270121727,-0.6973662403605609,7.421698630357885,-3.330453960257973
7.334282607718122,-0.7696958296185309,7.388394090755305,-3.347734194583489
7.326585649421936,-0.8457732059453046,7.354916748809471,-3.359657265974607
7.318127917362483,-0.925664329532504,7.321320176149724,-3.3660478256091424
7.308871274067158,-1.0093792026338115,7.287659697893632,-3.3667836709653742
7.29877748204082,-1.0968721831752724,7.253991861183978,-3.3617945229807438
7.287808760209067,-1.1880444169089532,7.220373915954171,-3.351058516082905
7.275928316039978,-1.2827480449279542,7.186863330793342,-3.334596934351017
7.2631008355906985,-1.3807917148699411,7.153517361449832,-3.3124678746705905
7.249292918441999,-1.4819468624780223,7.120392682703126,-3.2847595735783943
7.234473449817219,-1.5859542345614979,7.087545086967342,-3.2515841021389167
7.218613907471604,-1.6925301825559025,7.055029245945953,-3.2130720311199092
7.201688605646045,-1.8013723487249076,7.022898525634754,-3.169368523810928
7.183674882158796,-1.912164473898247,6.9912048403966445,-3.1206311541660066
7.164553237419813,-2.024580158624573,6.959998528854984,-3.067029597134909
7.144307435833568,-2.138285496295227,6.929328232883635,-3.0087472118565226
7.122924580870616,-2.2529405609383244,6.899240760765069,-2.9459844440441376
7.100395175261233,-2.368199773357404,6.869780916324628,-2.878963911152685
7.076713177527659,-2.483711190686996,6.840991277213101,-2.8079369970794685
7.051876065620789,-2.5991147725729817,6.812911907242307,-2.733191763145042
7.025884917895059,-2.714039679841806,6.785579989610857,-2.6550619681773324
6.998744521096641,-2.8281006671009337,6.759029369929083,-2.573936971334423
6.9704635144256315,-2.94089364774124,6.733290000215739,-2.4902722555117114
6.941054577948219,-3.0519905466341744,6.708387277660622,-2.4046002458425355
6.9105346724818775,-3.1609336202025955,6.684341275202196,-2.317540996921798
6.878925336279852,-3.26722952191015,6.661165865232978,-2.2298121760885072
6.84625304106075,-3.370343527119242,6.638867743472093,-2.1422375749142932
6.812549605789558,-3.469694502901211,6.61744536772295,-2.055753141619634
6.777852660760546,-3.564651404923892,6.596887836306753,-1.97140926163507
6.7422061467113075,-3.6545322807031133,6.577173743690403,-1.8903677600563387
6.705660823904276,-3.738606914334926,6.55827006608984,-1.8138919222877294
6.668274754760927,-3.816104301005278,6.540131146866963,-1.7433278195937667
6.630113711750874,-3.8862260136644293,6.522697868671025,-1.6800754973904293
6.591251451614229,-3.9481661419242804,6.50589711369712,-1.6255492478727522
6.551769790194987,-4.0011377930510506,6.489641621218393,-1.5811273159175598
6.511758412264476,-4.044405158361789,6.473830348059217,-1.5480929530091472
6.471314360680858,-4.0773189761560875,6.458349418529126,-1.5275705635956265
6.430541170919297,-4.099352090082148,6.443073712893169,-1.5204624356185168
6.389547650018476,-4.110131021243848,6.427869088536984,-1.5273927379276344
6.348446339806038,-4.109459356710607,6.412595161157708,-1.5486656266071037
6.307351746238932,-4.097329497860486,6.397108504891637,-1.5842431378844732
6.266378451260326,-4.073920867195015,6.381266073512792,-1.6337461160348585
6.225639242588376,-4.039584731695372,6.364928612352444,-1.6964781943177678
6.1852433952714225,-3.9948178663856204,6.347963830409267,-1.771469567526507
6.1452952166075665,-3.9402288405483645,6.330249134734002,-1.8575347504156494
6.105892928202083,-3.8765014184374706,6.311673787229846,-1.9533372453577726
6.067127914017709,-3.8043593613587006,6.292140414776268,-2.0574541715540935
6.029084320404122,-3.7245359959162743,6.2715658730607275,-2.168435166408756
5.99183896044496,-3.6377506206991033,6.24988152139664,-2.2848517514858173
5.955461454237969,-3.544692515105724,6.227033003881782,-2.405335329043243
5.920014529086911,-3.4460122465291048,6.202979650591349,-2.5286036423072296
5.88555440662162,-3.3423192662705365,6.177693614168277,-2.653476693389514
5.852131213958915,-3.2341844413730882,6.151158847234382,-2.778883745564325
5.819789369545184,-3.1221461159653185,6.123370009778738,-2.9038632349084486
5.788567908385531,-3.006718431107822,6.094331377429654,-3.027557320217943
5.758500724074453,-2.8884008614428383,6.064055804227475,-3.149202546836109
5.729616715460025,-2.767688176720972,6.032563778759114,-3.2681177981052763
5.701939833692815,-2.6450802579826345,5.999882600778061,-3.383690430971541
5.675489031112988,-2.5210913642972432,5.9660456964683455,-3.4953612825435747
5.650278117470016,-2.396258543880725,5.93109208364291,-3.602609112663234
5.626315532031208,-2.271148909949728,5.895065992516278,-3.7049350200649673
5.603604042931711,-2.146365459856694,5.858016642315628,-3.801847433643826
5.582140388333144,-2.0225510144478682,5.81999816797919,-3.892848425300934
5.561914878188666,-1.9003897091057678,5.78106968372618,-3.977422296783953
5.542910981097608,-1.7806053055441164,5.741295460758341,-4.055027625419484
5.5251049280421665,-1.6639554565388743,5.700745184504146,-4.125094157558908
5.508465373476778,-1.5512210051159478,5.659494242928557,-4.187026033808898
5.492953163425618,-1.4431895119605587,5.617623982590468,-4.240212713732572
5.478521268306013,-1.340632560621068,5.575221855453142,-4.2840485289753305
5.4651149426998025,-1.2442770486653578,5.532381370163389,-4.317960947554752
5.452672172213149,-1.1547716339606064,5.489201760687841,-4.341446369889958
5.441124455873543,-1.0726506676370864,5.445787296988941,-4.354110723502992
5.430397949197172,-0.9982990842095857,5.402246189753911,-4.3557105689182105
5.420414958355076,-0.9319225084142857,5.358689084064729,-4.34618930426972
5.411095733270933,-0.8735269354096399,5.315227191022032,-4.325702818125429
5.402360463916837,-0.8229115242759149,5.271970162840778,-4.294629893226763
5.394131348674078,-0.7796763448858952,5.22902386390851,-4.253564781555125
5.386334585225219,-0.7432446688972343,5.186488216092958,-4.203292225913976
5.3789021385362465,-0.7128971503968085,5.144455293833818,-4.144748074842629
5.371773167032279,-0.6878135769857677,5.103007813085392,-4.078970773233597
5.364895031262421,-0.6671171695009968,5.062218105353056,-4.007049912359222
5.358223859567411,-0.6499167284041171,5.022147606229463,-3.9300776133380366
5.351724692283369,-0.6353430263042726,4.982846830096083,-3.8491071135948562
5.345371262020326,-0.6225773240143746,4.944355758960135,-3.7651210540396827
5.339145488780183,-0.6108713404893678,4.906704548419738,-3.6790101433385876
5.333036775375289,-0.5995591565076668,4.869914446986352,-3.5915614581008777
5.327041183810213,-0.5880622611004335,4.833998832405343,-3.503454765554691
5.321160561199209,-0.5758892755615345,4.798964284749796,-3.415264896986449
5.315401668443593,-0.5626319063262537,4.764811635779932,-3.3274682280456593
5.309775349380331,-0.5479585013789047,4.731536953499475,-3.2404515830348406
5.304295764366542,-0.5316063179178852,4.699132437669126,-3.1545222423318573
5.298979701187363,-0.5133733255173284,4.667587215245808,-3.0699181025622044
5.2938459679321905,-0.4931101126362275,4.636888034220186,-2.986817365221206
5.288914866805828,-0.4707122548205071,4.6070198605679735,-2.9053473890931834
5.284207744257623,-0.4461133443148552,4.5779663866770415,-2.8255925327876312
5.279746610814475,-0.4192787683179011,4.549710461349165,-2.747600944271809
5.275553823131296,-0.39020024835219924,4.5222344519064475,-2.6713903367153824
5.271651820647774,-0.3588911071235973,4.495520548539294,-2.5969528367779984
5.268062909576538,-0.32538220369427256,4.469551020171514,-2.524259013516725
5.264809087539596,-0.2897184662117233,4.444308430036347,-2.4532612019392905
5.261911902877478,-0.251955948844843,4.419775818016954,-2.383896231213409
5.259392343389029,-0.21215934240503564,4.39593685570482,-2.3160876580924237
5.257270749964979,-0.17039987392431766,4.372775979123896,-2.2497475941811005
5.255566751225736,-0.12675353761440075,4.350278503182085,-2.1847782031034453
5.254299215849592,-0.08129960713402312,4.32843072115105,-2.121072931547463
5.253486219778252,-0.03411938635361634,4.307219991835575,-2.058517527140705
5.253145025914716,0.014704837491414713,4.286634816564169,-1.9969908864189183
5.25329207428963,0.06509066836801672,4.26666490769998,-1.9363657678514483
5.25394298097331,0.11695632858203832,4.247301250021465,-1.8765093979296557
5.255112544259131,0.17022125878578725,4.228536156042169,-1.8172839925973827
5.256814756846989,0.22480660726804613,4.210363316116195,-1.7585472116692664
5.259062822919669,0.28063562163306377,4.192777843999502,-1.7001525602027543
5.261869179136,0.33763395318131806,4.1757763183974745,-1.6419497479291514
5.265245518667814,0.3957298819511477,4.159356820918183,-1.583785015686352
