th1 (rad),w1 (rad/s),th2 (rad),w2 (rad/s)
5.721425105958653,0.9528441507921251,2.774550701815985,-1.7871869753232115
5.730953547466575,1.015927142523218,2.756678832062753,-1.7587072783684272
5.741112818891807,1.0773048258006381,2.7390917592790687,-1.7332648482160615
5.751885867149813,1.1366787035056658,2.721759110796908,-1.711242365452646
5.763252654184869,1.1937499403454501,2.7046466871423815,-1.6930337336027275
5.775190153588324,1.248225524415823,2.687716349806354,-1.67903547261212
5.787672408832482,1.2998253049374564,2.670925995080233,-1.6696368023587453
5.800670661881857,1.3482897192715857,2.6542296270566452,-1.6652086957586665
5.8141535590745725,1.3933879470500516,2.6375775400990586,-1.666092297187455
5.828087438545073,1.434926159597012,2.6209166171271843,-1.6725872093285075
5.842436700141043,1.4727554764764974,2.604190745033899,-1.6849402379434002
5.8571642549058085,1.5067792058952851,2.587341342654465,-1.7033352369037191
5.872232046964761,1.5369589390025429,2.570307990285428,-1.727884703934833
5.887601636354787,1.5633190951806317,2.55302914324608,-1.7586237328672418
5.903234827306593,1.5859495785852438,2.5354429059174075,-1.795506827665185
5.9190943230924455,1.6050063039825024,2.5174878376407555,-1.8384079303018317
5.93514438613227,1.6207094765204884,2.4991037583377373,-1.887123818804961
5.9513514808974755,1.6333396554244481,2.4802325201496878,-1.9413808101604053
5.9676848774517195,1.6432317823251898,2.460818712048084,-2.000844476819183
5.984117195274972,1.6507674958421619,2.440810267279892,-2.065131879144897
6.000624870233393,1.6563661702806434,2.420158948488443,-2.1338256519432557
6.0171885319362,1.6604751955712895,2.3988206919690107,-2.206489179248915
6.033793283891913,1.663560050125551,2.3767558001765217,-2.2826820582503147
6.050428884393169,1.6660947061298466,2.3539289795940186,-2.3619750918544686
6.067089831454467,1.6685528519836563,2.330309228675474,-2.443964151999263
6.083775359974304,1.6714003282762409,2.305869587155481,-2.528282406979286
6.100489363257067,1.6750890644922807,2.2805867630856884,-2.6146105857501825
6.11724025390199,1.6800526873859893,2.2544406572281868,-2.702685139298696
6.13404078077585,1.6867038616194514,2.2274138058351998,-2.7923043347608516
6.150907819392044,1.6954333291975918,2.1994907624875912,-2.8833324676985876
6.16786215268402,1.7066105432749024,2.1706574378106054,-2.9757024933444143
6.184928258116769,1.7205857471383526,2.140900412877161,-3.0694174561893846
6.202134115588152,1.7376933303709794,2.1102062383152673,-3.1645511415998446
6.219511048891862,1.758256298720386,2.0785607268992687,-3.261248389427179
6.237093611879065,1.7825917179618636,2.045948243004997,-3.3597255060911047
6.254919529058684,1.8110170305009585,2.012350987944086,-3.4602711972344586
6.273029699363693,1.8438571922830707,1.9777482759717415,-3.563248426102528
6.291468271286524,1.8814526330910066,1.9421157917107161,-3.669097590346516
6.310282797617434,1.9241681025533703,1.9054248158072509,-3.7783414072801214
6.329524478642968,1.9724025246085595,1.8676414017344496,-3.891591907861942
6.349248503889053,2.0266000418774817,1.8287254826558301,-4.009559963184775
6.369514504307828,2.087262483724125,1.7886298830239824,-4.133067800278135
6.390387129145069,2.154963528706958,1.747299205021201,-4.263064995932384
6.411936764432139,2.2303648356024413,1.7046685550618772,-4.400648444838662
6.434240412788164,2.314234351530735,1.6606620706134905,-4.54708673475308
6.457382756303471,2.4074668015037313,1.6151912032659597,-4.70384913466112
6.481457424318509,2.5111058874166146,1.5681527119193484,-4.872638833767817
6.506568483192675,2.626366721039874,1.51942632358167,-5.055428816231505
6.532832150403074,2.754654999742712,1.468872035419355,-5.254496160440151
6.560378700400501,2.8975754869021673,1.4163270738149534,-5.472445355946987
6.589354455269523,3.056914757940379,1.3616026202554834,-5.712201061729786
6.619923602848926,3.234568748519012,1.3044806096381856,-5.976931189189063
6.652269290334116,3.432358811529781,1.2447112977462949,-6.26982448019197
6.686592878449414,3.6516318343356025,1.182013052944375,-6.593580279307596
6.72310919679277,3.8924595674682094,1.1160772501512992,-6.949356261733937
6.762033792467451,4.152138899268175,1.0465836875339598,-7.334760168860718
6.803555181460133,4.422606335658622,0.9732360858453526,-7.740342321098414
6.847781244816719,4.686571025619769,0.8958326626343684,-8.144297459533362
6.894646955072917,4.913325503388217,0.8143896880390348,-8.506666831696366
6.943780210106799,5.058230956087112,0.7293230197220711,-8.76852785022383
6.99436251966767,5.073376829005229,0.6416377412198329,-8.866512467118694
7.045096287957723,4.932170645719226,0.5529726165486459,-8.766416926013166
7.094417994414915,4.6505740331704715,0.4653084472885143,-8.491958060955673
7.14092373474662,4.279029163880059,0.38038886667895755,-8.113062325023932
7.18371402638542,3.8719107348312614,0.2992582434287182,-7.703717496531326
7.222433133733733,3.4662860904315123,0.22222106846340495,-7.313317214364637
7.257095994638048,3.080139232488715,0.14908789631975858,-6.964895839943226
7.2878973869629355,2.719093234311009,0.07943893792032632,-6.664738086699388
7.315088319306046,2.3826659643484716,0.01279155705333243,-6.41105682073037
7.33891497894953,2.067969044506743,-0.05131901115397128,-6.199021922677227
7.359594669394598,1.771500164531261,-0.11330923038074356,-6.023135198101763
7.37730967103991,1.4899023051144251,-0.1735405823617612,-5.878191541150358
7.392208694091054,1.2202354375786424,-0.23232249777326477,-5.7595854710019765
7.404411048466841,0.9600376312283401,-0.28991835248328457,-5.663342600807274
7.414011424779124,0.7073038610082453,-0.3465517784913573,-5.586049121374931
7.421084463389207,0.4604386231373756,-0.40241226970510663,-5.524753565461737
7.42568884962058,0.21820537061058393,-0.457659805359724,-5.476870572896604
7.427870903326686,-0.020318889958989644,-0.51242851108869,-5.4400970868454515
7.427667714427096,-0.25578178642139215,-0.5668294819571446,-5.412343441703814
7.425109896562882,-0.48858704696433053,-0.6209529163741827,-5.391678777186423
7.420224026093238,-0.7189206405449313,-0.674869704146047,-5.376289274250316
7.413034819687788,-0.9467731854004064,-0.7286325968885501,-5.364447591850703
7.4035670878337845,-1.1719601187131878,-0.7822770728070572,-5.354492037577662
7.391847486646653,-1.394140897302692,-0.8358219931828338,-5.344814197144891
7.377906077673626,-1.6128382244523436,-0.8892701351542827,-5.333853887952413
7.361777695429103,-1.827458000363068,-0.9426086740338068,-5.320100366526406
7.343503115425472,-2.0373103875439997,-0.9958096776990708,-5.302098715777383
7.323130011550032,-2.2416320802309047,-1.0488306648568446,-5.278460288601635
7.300713690747723,-2.4396095842561083,-1.101615267742861,-5.247876019911035
7.276317594905162,-2.6304030697784917,-1.1540940279419714,-5.209131372367122
7.250013564207377,-2.813170174262657,-1.2061853416656425,-5.161121681681579
7.22188186246475,-2.987089024886164,-1.2577965584824584,-5.102866737340417
7.192010972215888,-3.151379729255739,-1.3088252258558626,-5.0335235841053425
7.16049717492333,-3.305323651876035,-1.359160461696916,-4.952396754259542
7.1274439384045705,-3.4482799403304822,-1.4086844292395113,-4.858945421340288
7.0929611390012655,-3.5796989675092026,-1.4572738834529142,-4.752787272244138
7.057164149326174,-3.6991325842552127,-1.5048017561753555,-4.633699188718086
7.020172823483621,-3.806241297096729,-1.5511387480625363,-4.501615074143469
6.982110410512654,-3.900798667336887,-1.5961548988039709,-4.356621326958793
6.943102423839285,-3.982693347324075,-1.6397211120735589,-4.198950530286525
6.9032754903660445,-4.051929215043508,-1.681710617376424,-4.028973896015934
6.862756198215609,-4.108624039646505,-1.7220003563365833,-3.8471928839980665
6.821669957819144,-4.153007020292034,-1.760472285176564,-3.654230239370413
6.780139887616223,-4.1854154098845635,-1.797014587570268,-3.45082048804624
6.738285733517378,-4.206290290312976,-1.8315227924507305,-3.2377997396688896
6.696222830614248,-4.216171433881783,-1.8639007898474194,-3.0160945036376976
6.654061116275431,-4.2156910908173515,-1.8940617348837963,-2.7867091540745577
6.611904205367257,-4.205566502407467,-1.9219288264245418,-2.550711698942149
6.569848540343183,-4.18659096177809,-1.9474359434139632,-2.309217617951639
6.527982630725402,-4.159623327561659,-1.9705281195934796,-2.0633717198799753
6.4863863974497855,-4.125576027852674,-1.9911618367922794,-1.8143282060927481
6.445130637171259,-4.08540175283946,-2.0093051188532067,-1.5632293780402429
6.404276619642864,-4.040079199376821,-2.024937412633609,-1.3111836533411825
6.363875827649096,-3.990598373758491,-2.038049249167021,-1.059243721764178
6.323969843911511,-3.9379460578726593,-2.0486416863846624,-0.8083857519834828
6.284590383332785,-3.8830920839141605,-2.056725543904497,-0.5594905391061209
6.245759462493643,-3.8269770386750217,-2.0623204492955582,-0.3133273640137218
6.2074896921068925,-3.7705019350063886,-2.0654537229356955,-0.07054113557623251
6.169784672756829,-3.714520258746951,-2.066159134291458,0.16835686629086385
6.13263947016936,-3.6598326431571246,-2.064475565628549,0.4029946016800683
6.096041143737788,-3.607184260333631,-2.0604456196117487,0.6331414509811286
6.059969301134452,-3.55726486897064,-2.0541142051019374,0.8587074000828383
6.024396652444746,-3.5107113342940965,-2.045527131101109,1.079739829147356
5.989289539101804,-3.468112346947251,-2.034729732809635,1.2964186009062475
5.954608415632332,-3.430015014462506,-2.0217655468005726,1.5090501765323894
5.920308265487707,-3.396932977203395,-2.006675045035249,1.71806146046361
5.886338935715673,-3.369355700813737,-1.9894944304306128,1.9239939987336978
5.852645378707535,-3.347758605553593,-1.9702544904432757,2.1274990352166228
5.819167792651999,-3.332613691437235,-1.9489795000911094,2.3293337673467724
5.785841655737627,-3.324400283083876,-1.9256861624176418,2.530358926833824
5.752597652906789,-3.323615416599718,-1.9003825731493036,2.7315375134808852
5.719361498740792,-3.330783173542302,-1.8730671980144948,2.9339340759195087
5.6860536670053685,-3.3464618575075082,-1.8437278572552998,3.138713263582624
5.652589048430293,-3.371247184587906,-1.8123407246194736,3.347135303584369
5.618876576584414,-3.4057684228021796,-1.77886937158363,3.5605443118185036
5.584818892356393,-3.450672354827611,-1.7432639284654448,3.780342493401587
5.550312168808117,-3.506586573663978,-1.705460503531429,4.0079386521092495
5.515246303071477,-3.574048268880197,-1.6653811170103365,4.244652049471949
5.479505820382674,-3.6533764946473153,-1.622934596515617,4.49154135528575
5.4429720554362016,-3.7444543623503965,-1.5780191829627594,4.749112370349829
5.405527511812697,-3.8463737310828074,-1.5305280592592612,5.01683875655435
5.36706377450187,-3.9568851378221,-1.4803596716937177,5.292415862791947
5.327494923123648,-4.07160964887389,-1.4274355130657983,5.57068612157926
5.28677882663491,-4.183053117906692,-1.3717286518500056,5.842289348881247
5.244948295455843,-4.279694982608837,-1.3133057583611931,6.092411142439919
5.202151345629755,-4.345858084366783,-1.2523816469367939,6.300604168044897
5.158692764786087,-4.36351677866789,-1.189375605256345,6.443281518520856
5.115057596999408,-4.316914310307103,-1.1249427900711364,6.500079758362575
5.071888453896337,-4.198869825329241,-1.0599419924875106,6.4625198035466065
5.0298997556430445,-4.014843891670993,-0.9953167944520446,6.339502903144027
4.989751316726335,-3.7810601257029504,-0.9319217654206043,6.154548035154808
4.951940715469306,-3.51780129879064,-0.8703762850690563,5.936411794249262
4.9167627024814,-3.242867126080853,-0.8110121671265637,5.710055914777707
4.884334031220591,-2.968547840445139,-0.7539116079787866,5.492568658593039
4.85464855281614,-2.7017641811638797,-0.6989859213928562,5.293477774150253
4.8276309110045,-2.445543297036571,-0.6460511436513536,5.116875182982829
4.8031754780341345,-2.2005368393283478,-0.5948823918215254,4.963558392953706
4.781170109640851,-1.966126611723451,-0.5452468078919883,4.8325726135788125
4.761508843523617,-1.7411103715383351,-0.4969210817562002,4.722156645257176
4.744097739808234,-1.52408796668151,-0.44969951530362845,4.630267355006392
4.728856860141419,-1.3136629545944516,-0.40339684175356455,4.554846435287997
4.715720230595474,-1.1085394339311683,-0.3578483774006846,4.493941680486591
4.7046348362561625,-0.9075625935307561,-0.3129089605958187,4.445750595746582
4.695559210320855,-0.7097305843450527,-0.26845145463835285,4.408624722300107
4.688461904477404,-0.5141927875836844,-0.22436520741535176,4.38105555424654
4.683319976601568,-0.320242431906245,-0.18055465187288636,4.361653057112992
4.680117552282505,-0.1273075848042896,-0.13693812130175642,4.349122416776167
4.678844476434462,0.06505758375385684,-0.09344689713399476,4.3422417807480675
4.679495052272001,0.25718050296568,-0.05002447932651408,4.339842264214105
4.682066857301658,0.4492767028245479,-0.006626056684373036,4.340790744866599
4.686559624329903,0.6414552574731212,0.03678185076429295,4.3439756144165065
4.6929741769046345,0.8337234631441267,0.08022160690845802,4.348295500393489
4.701311411536076,1.0259911101872985,0.1237045619123929,4.352650915935868
4.7115713226379485,1.2180747279779829,0.16723107107175159,4.355938781425548
4.723752069917729,1.4097021721214706,0.21079045888600706,4.357049759553436
4.737849091638943,1.6005178942364098,0.25436095648154144,4.354868338594871
4.753854270581307,1.790089189871063,0.29790963986749014,4.348275579545469
4.771755162480018,1.9779136620052964,0.3413923956629448,4.336154408691051
4.7915342991000704,2.1634280680774753,0.38475393974985533,4.317397289004836
4.813168579780845,2.3460186401374408,0.4279279126399037,4.290916044774286
4.836628766182219,2.5250328841423286,0.47083707308764655,4.255653549006905
4.861879095023642,2.699792780075292,0.5133936085777157,4.210596918246274
4.888877022824396,2.8696092244658544,0.5554995777601784,4.154791800203831
4.917573115069054,3.0337974858366192,0.5970474957622167,4.0873572908658655
4.94791108992742,3.191693385463121,0.6379210686708754,4.007500982460982
4.9798280237820505,3.342669872857632,0.6779960784954853,3.914533622538145
5.013254722510627,3.486153637803323,0.7171414147208667,3.807882855709626
5.04811625888866,3.621641386841178,0.7552202432779629,3.6871055198546596
5.084332672757072,3.748715408736212,0.7920912984765095,3.5518979736142313
5.121819826844434,3.8670580571788618,0.8276102782126518,3.402103938621434
5.160490407416223,3.9764647873603884,0.8616313175988661,3.237719347456057
5.200255055289826,4.076855395909537,0.8940085110734267,3.058893699930305
5.241023609248922,4.168283133906842,0.9245974480727298,2.8659274532828904
5.28270644058799,4.250941396381066,0.9532567226055587,2.6592650166871663
5.325215854551801,4.325167747155879,0.9798493727724303,2.439482998644343
5.3684675320233595,4.391445123831708,1.0042442027588738,2.207273476447536
5.412381983261676,4.450400190586821,1.0263169375233492,1.963422222941422
5.456885985167545,4.502798968179512,1.0459511597527633,1.7087820308582282
5.50191397484934,4.549540066238338,1.0630389800613456,1.4442415016239214
5.547409375511723,4.5916460606830105,1.0774813950775848,1.1706898859353347
5.593325836118553,4.630253780966863,1.0891882939369382,0.8889787430424165
5.639628373928222,4.666604476598336,1.0980780813673623,0.5998812890435257
5.686294418694205,4.702034999423547,1.1040768942577976,0.3040503024598216
5.73331476868844,4.737971250777582,1.1071173972823958,0.001975332358340298
5.780694481196216,4.775925189891495,1.1071371506059793,-0.3060602852706923
5.828453733095131,4.81749667481621,1.1040765477532724,-0.6200224235586163
5.876628699843293,4.864381298997155,1.0978763235176863,-0.9401693452665865
5.925272512833264,4.91838516524592,1.0884746300650203,-1.267095508817385
5.974456364485723,4.981447123618864,1.0758036749768465,-1.6017764440045261
6.024270835721912,5.055668202366106,1.0597859105368013,-1.9456145507880267
6.074827517745573,5.1433463764915635,1.040329765028921,-2.3004838744801916
6.126260981510488,5.24701161244436,1.017324926284119,-2.668767706872123
6.178731097634932,5.369449623533723,0.9906372492153979,-3.0533739054562212
6.2324255938702695,5.513689658222643,0.9601035101608356,-3.457694497144285
6.287562490452496,5.68290554345627,0.9255265651893928,-3.885439550512486
6.344391545887058,5.880128420574325,0.886672169684268,-4.340204153605622
6.403192830092801,6.107575044022055,0.8432701281482118,-4.824494995442823
6.464268580533022,6.365235258493819,0.7950251781937836,-5.337719071997472
6.527920933117961,6.648149346720831,0.7416479874738089,-5.872340233266706
6.594402426585169,6.941738853385608,0.6829245851411418,-6.407319375772832
6.663819815119025,7.215416457568882,0.6188513913834135,-6.899172601597012
6.735973979694713,7.41825128343046,0.5498596653674434,-7.275980604624217
6.810156492529018,7.487221174108594,0.4770998593212012,-7.4491721835458335
6.885028704270104,7.378293126460105,0.40260813748574287,-7.357436120726878
6.958811635534705,7.102995686558862,0.3290337762784741,-7.0182368805225375
7.0298415924002935,6.72527710074838,0.2588514074732487,-6.52326093953854
7.097094363407777,6.317246871666587,0.1936187980778633,-5.975922386216897
7.160266832124443,5.925967845318218,0.13385957421569433,-5.4444196283984585
7.219526510577626,5.571612403092744,0.07941537793170975,-4.958964935183079
7.275242634608553,5.258323903814739,0.029825728579878953,-4.5269770925153106
7.327825873646701,4.983248604683348,-0.015444042345274155,-4.145782114758295
7.377658359693534,4.74131342790139,-0.056901863492857106,-3.8093708905175405
7.425071493972548,4.527265368405937,-0.09499557239803251,-3.511314400036023
7.470344147656608,4.336393674839677,-0.13010871639839275,-3.2458211907004277
7.513708084405004,4.164700428254468,-0.16256692830539704,-3.008010131350529
7.5553550886875485,4.008865549774321,-0.19264702961890234,-2.793885494108248
7.595443744185292,3.866149666420146,-0.22058588455998482,-2.6002176295165733
7.634105240849493,3.7342900436911575,-0.24658806085515056,-2.4244084618615194
7.671448141286405,3.6114083525575715,-0.2708321454737658,-2.2643694993815697
7.70756222481198,3.4959346815857217,-0.29347584046758146,-2.1184195543717257
7.7425215716278375,3.3865469784223317,-0.3146600360112987,-1.9852017661018524
7.776387041412061,3.2821235414040646,-0.33451205367231723,-1.863617136073584
7.8092082768261015,3.1817060129367873,-0.3531482250330531,-1.7527714188907066
7.841025336955469,3.08447062737634,-0.3706759392219602,-1.6519325488531111
7.871870043229232,2.989705874158635,-0.3871952647104913,-1.560496298807471
7.901767101970819,2.896795120115661,-0.40280022769856605,-1.4779583687133142
7.930735053171976,2.8052030548517144,-0.4175798113856992,-1.4038915255123827
7.958787083720493,2.714465076925747,-0.43161872664082307,-1.3379267540066195
7.985931734489751,2.6241789354344682,-0.44499799418088926,-1.2797376395584783
8.012173523844096,2.5339980929060144,-0.457795370576474,-1.2290274011610565
8.037513504773155,2.4436263917145116,-0.4700856445880846,-1.185518140994685
8.061949768690301,2.3528136960913173,-0.48194082599803145,-1.1489419852229432
8.085477905651214,2.261352251853166,-0.4934302458502609,-1.1190338695438466
8.108091428169745,2.1690735611304843,-0.5046205845456994,-1.0955257790525152
8.12978216378105,2.0758456132825085,-0.5155758423362246,-1.0781422908950942
8.150540619913874,1.981570348463144,-0.5263572652451755,-1.06659729438706
8.170356323398506,1.8861812588718518,-0.5370232381890461,-1.0605917801605598
8.189218135987225,1.7896410560061737,-0.5476291559906517,-1.05981260015945
8.207114546547286,1.691939351305187,-0.5582272819922461,-1.063932105963185
8.224033940060337,1.5930903132863508,-0.568866603051878,-1.0726085755325698
8.239964843193201,1.4931302773265764,-0.5795926888072037,-1.0854873391625162
8.254896145966466,1.3921152952025972,-0.5904475621988289,-1.1022025150053403
8.268817298918492,1.2901186208700266,-0.6014695873488822,-1.1223792635538148
8.281718485127191,1.1872281371146158,-0.6126933799844204,-1.145636469336652
8.293590766498337,1.0835437349421009,-0.6241497446777869,-1.171589757067128
