th1 (rad),w1 (rad/s),th2 (rad),w2 (rad/s)
1.836655040703135,-0.5288288770449557,1.3061487783766061,-1.6490057084218872
1.8313667519326855,-0.6263649422310479,1.2896587212923873,-1.6580489849655433
1.825103102510375,-0.7248121339560499,1.273078231442732,-1.6658262418222822
1.8178549811708145,-0.8242794497930459,1.2564199690245093,-1.672067167285797
1.809612186672884,-0.9248716000659178,1.2396992973516512,-1.6764963503285883
1.800363470672225,-1.0266889318054915,1.2229343338483654,-1.6788333923352718
1.79009658135417,-1.1298274599281926,1.2061459999250126,-1.6787930208394697
1.778798306754888,-1.234378998630451,1.189358069716618,-1.6760852473686039
1.7664545167685834,-1.3404313865675663,1.172597217242932,-1.6704156120184204
1.7530502029029078,-1.4480687983855078,1.1558930611227478,-1.6614855598877807
1.7385695149190528,-1.5573721322749299,1.13927820552387,-1.6489929993706995
1.7229957935963034,-1.6684194579578682,1.122788275530163,-1.632633100086428
1.7063115990167248,-1.7812865012605117,1.1064619445292987,-1.6120993997428734
1.6884987340041198,-1.896047129302738,1.09034095053187,-1.5870853056154057
1.6695382627110924,-2.012773783187298,1.074470097475716,-1.5572860991429003
1.6494105248792195,-2.1315377813710126,1.058897236484287,-1.5224015834814562
1.6280951470655094,-2.252409384665606,1.0436732206494725,-1.482139556438029
1.6055710532188534,-2.375457470527569,1.0288518250850922,-1.4362203484959088
1.5818164785135778,-2.500748606842313,1.0144896216001331,-1.3843827418927277
1.5568089924451547,-2.6283452401108582,1.000645794181206,-1.3263916868616101
1.530525540044046,-2.758302615785733,0.9873818773125899,-1.2620483604305273
1.5029425138861887,-2.890663925717159,0.9747613937082846,-1.191203276124039
1.4740358746290172,-3.0254530270978575,0.9628493609470442,-1.113773351264414
1.4437813443580385,-3.1626639009935262,0.9517116274344001,-1.0297640672777268
1.4121547053481032,-3.302245827585623,0.9414139867616228,-0.9392980984895076
1.379132247072247,-3.4440830778955194,0.9320210057767278,-0.8426519913853243
1.3446914162932917,-3.5879678164781077,0.9235944858628745,-0.7403025593769484
1.3088117381285107,-3.7335649839169824,0.916191460269105,-0.6329844560038086
1.2714760882893408,-3.880368361996965,0.909861615709067,-0.5217596355289732
1.2326724046693711,-4.02764809126982,0.9046440193537773,-0.408097704820195
1.1923959237566728,-4.174391972924077,0.9005630423055753,-0.2939629912769355
1.150652004027432,-4.319246324427694,0.897623412392806,-0.18189896151478716
1.1074595407831551,-4.460467155896007,0.895804422777658,-0.07509318893868885
1.062854869224195,-4.595898549352121,0.8950534908882711,0.02260291852509652
1.0168958837306739,-4.723000647928714,0.8952795200735221,0.10673340162174307
0.9696658772513868,-4.838951072462733,0.8963468540897395,0.1724115910516834
0.9212763665267594,-4.940835875065264,0.8980709700002563,0.21463228233950507
0.8718680077761067,-5.025925189165096,0.9002172928236513,0.22871466572344282
0.8216087558844558,-5.091995982998355,0.9025044394808857,0.21081959035269382
0.7706887960544723,-5.137631186081483,0.9046126353844126,0.15843508730151887
0.7193124841936575,-5.1624105987540165,0.9061969862574278,0.07070244077858351
0.6676883782061173,-5.1669304506983105,0.9069040106652136,-0.05151468658462624
0.6160190736991341,-5.152642073960325,0.9063888637993673,-0.20583742394928317
0.5644926529595309,-5.1215601738995735,0.9043304895598745,-0.3887854283723895
0.5132770512205351,-5.075926245626698,0.9004426352761506,-0.5962734394309975
0.46251778876426813,-5.0179088852822655,0.8944799008818407,-0.8240693263530853
0.41233869991144545,-4.949390747548426,0.8862392076183099,-1.0681368771725408
0.3628447924359612,-4.871854011842052,0.8755578388465844,-1.3248413804197818
0.31412625231754066,-4.786349353498286,0.8623094250423866,-1.591036124190259
0.2662627587825578,-4.69352228808538,0.846399063800484,-1.8640656446759931
0.21932753590170398,-4.593671433740536,0.8277584073537241,-2.1417219340105773
0.1733908215642986,-4.486819475297903,0.8063411880136183,-2.422181608647837
0.12852262681131957,-4.37278473846228,0.78211937192714,-2.7039420176045112
0.08479477942669678,-4.251247025295927,0.7550799517510949,-2.985765863840994
0.0422823091737375,-4.121805188758705,0.7252222931126849,-3.2666380680955345
0.0010642572861504496,-3.9840261321026844,0.6925559124317295,-3.545735031047232
-0.038776004034876396,-3.8374860375027957,0.6570985621212572,-3.8224044776836426
-0.07715086440990435,-3.681805138070028,0.6188745173444208,-4.096153061948286
-0.11396891579060463,-3.5166776017120704,0.577912986724938,-4.366638393682633
-0.14913569180772535,-3.34189833014016,0.5342466027881116,-4.633661798994527
-0.18255467510912696,-3.1573888453849994,0.4879099847981664,-4.897157719268109
-0.21412856356297694,-2.963225043222432,0.4389384076054853,-5.157175030682025
-0.24376081399520125,-2.759670509965644,0.38736665729866504,-5.413844592291749
-0.27135751909485767,-2.54722036290236,0.33322821137574754,-5.6673259040150405
-0.29682972272388125,-2.3266621468920197,0.2765549523355971,-5.917723855120572
-0.3200963441928014,-2.099161981679934,0.2173777137843914,-6.164964369726671
-0.34108796400960073,-1.8663852863514685,0.1557280700871247,-6.40861603186169
-0.3597518168731154,-1.6306605841441162,0.09164190976850779,-6.647645303088024
-0.3760584227145566,-1.395189268521945,0.02516545673762756,-6.880099482152209
-0.39001031539977604,-1.1642889034442936,-0.04363553808389453,-7.102730721738785
-0.401653204434219,-0.9436259793944012,-0.11466284530128239,-7.310615486419217
-0.411089464228163,-0.7403411487627095,-0.18776900016547454,-7.4968941587692015
-0.4184928757157901,-0.5629033213897774,-0.26273794175316656,-7.652846211379876
-0.4241219089296879,-0.42048744727575266,-0.3392664038669653,-7.7685765318051185
-0.4283267834024454,-0.3217365102684452,-0.41695216918501654,-7.8345080596112355
-0.43154414850512984,-0.27302608256011873,-0.4952972497811289,-7.843539499298239
-0.434274409330731,-0.27675581777268143,-0.5737326447741112,-7.793191116075532
-0.43704196750845786,-0.3304553541707591,-0.6516645559348666,-7.68671491550575
-0.4403465210501655,-0.42724697279092777,-0.7285317050899242,-7.532473379854954
-0.44461899077807476,-0.5574904608822103,-0.8038564388884737,-7.341836240341754
-0.45019389538689686,-0.7108196737959662,-0.8772748012918913,-7.126638455240441
-0.4573020921248565,-0.8777626845736185,-0.9485411858442957,-6.897235621196302
-0.4660797189705927,-1.050590611432413,-1.0175135420562587,-6.6615788495584685
-0.4765856250849168,-1.2234913097441578,-1.0841293305518434,-6.425145099478456
-0.4888205381823584,-1.39234972059298,-1.1483807815466278,-6.19133632038045
-0.5027440353882882,-1.5543856331823693,-1.2102941447504323,-5.962020224730502
-0.5182878917201118,-1.7077963251689687,-1.2699143469977372,-5.7380301134884535
-0.5353658549718014,-1.851464327708133,-1.3272946481326218,-5.519556713412198
-0.5538804982488827,-1.9847408171134509,-1.3824902152667438,-5.3064276592588415
-0.5737279064200173,-2.1072941504601004,-1.4355544918593321,-5.098294530373152
-0.5948008479246183,-2.219007720155117,-1.4865374371630637,-4.894751743001901
-0.6169909251261695,-2.319912568380919,-1.5354849545930827,-4.695408213816733
-0.6401900508099787,-2.4101434090575196,-1.58243903673125,-4.499927511883079
-0.6642914849005539,-2.489909901462164,-1.6274383118500808,-4.308047526722479
-0.6891905839151755,-2.559477592094122,-1.6705187871173055,-4.119587105206847
-0.7147853598361167,-2.6191548270097313,-1.711714658169374,-3.934444594759157
-0.740976908106214,-2.6692832526669688,-1.7510591041169656,-3.7525915354491346
-0.7676697406328836,-2.7102304152447934,-1.788585019471457,-3.5740636276380315
-0.7947720447853316,-2.742383561090326,-1.8243256557478373,-3.398950374249655
-0.8221958803962348,-2.7661441278894494,-1.858315159490334,-3.2273843218852565
-0.8498573216751293,-2.781922663450474,-1.8905890027091865,-3.0595305116191893
-0.877676548309634,-2.790134062103678,-1.9211843078253783,-2.895576539200954
-0.9055778889306708,-2.791193098629519,-1.950140073217388,-2.735723478119324
-0.933489819916966,-2.7855102874651663,-1.9774973079985811,-2.5801778144047103
-0.9613449227916177,-2.7734881152181745,-2.0032990861426283,-2.4291444651065435
-0.9890798039437994,-2.755517697295081,-2.027590530793694,-2.282820894683261
-1.01663498091675,-2.731975901739639,-2.0504187397405267,-2.1413923000875923
-1.0439547399341464,-2.7032229700459345,-2.0718326627414028,-2.005027803097246
-1.0709869696346057,-2.6696006491129634,-2.091882940772375,-1.8738775654953577
-1.0976829761257354,-2.631430832868263,-2.1106217164273287,-1.7480707276669771
-1.123997284454418,-2.589014697810268,-2.1281024237039983,-1.6277140629250666
-1.1498874314325207,-2.542632304592006,-2.144379564333249,-1.5128912373926413
-1.1753137544784407,-2.4925426281387377,-2.1595084767071753,-1.4036625675652636
-1.200239180759828,-2.4389839716952406,-2.173545102382828,-1.3000651738005315
-1.2246290204767805,-2.3821747154683375,-2.186545754120833,-1.2021134370002846
-1.2484507676314638,-2.3223143478838857,-2.198566888490836,-1.109799676788276
-1.2716739111103026,-2.259584726581554,-2.209664885258719,-1.0230949817303534
-1.2942697583761182,-2.194151516790868,-2.2198958350760223,-0.9419501348673894
-1.316211273544027,-2.1261657563661656,-2.2293153364246963,-0.8662965903962815
-1.3374729311076887,-2.055765499256073,-2.237978302328659,-0.7960474691999789
-1.3580305861002495,-1.9830774923544217,-2.2459387770206587,-0.7310985516494738
-1.3778613610237938,-1.9082188443908936,-2.2532497625371533,-0.6713292553319491
-1.3969435494677027,-1.831298649685438,-2.2599630550904726,-0.6166035928502204
-1.415256535964557,-1.7524195341569406,-2.266129091018975,-0.5667711104381368
-1.4327807313061265,-1.671679095904034,-2.2717968021233563,-0.521667811793885
-1.449497522265167,-1.5891712179198867,-2.2770134802412954,-0.4811170732988636
-1.4653892344443658,-1.5049872359977468,-2.281824650974284,-0.4449305568154205
-1.4804391068043432,-1.4192169505311527,-2.286273956542438,-0.4129091247896503
-1.4946312763096548,-1.331949476574207,-2.2904030477903348,-0.3848437597581426
-1.5079507710753968,-1.2432739320275472,-2.294251485387916,-0.3605164869699019
-1.5203835103956722,-1.1532799689503026,-2.297856650257615,-0.33970129512870983
-1.5319163100851751,-1.06205815754973,-2.3012536632089025,-0.32216504669004237
-1.5425368916606725,-0.969700236157731,-2.3044753136758027,-0.3076683661393432
-1.5522338940222498,-0.8762992432859387,-2.307551997337196,-0.29596649260452607
-1.5609968864551091,-0.7819495495285289,-2.310511662263241,-0.28681008229302446
-1.5688163819503944,-0.6867468075933503,-2.3133797630861714,-0.2799459467541008
-1.575683850026328,-0.5907878381068938,-2.3161792225537123,-0.2751177148810013
-1.5815917284073968,-0.49417046716070256,-2.318930399702522,-0.2720664097817117
-1.5865334330790037,-0.3969933290291255,-2.3216510638003394,-0.2705309359342787
-1.590503366369295,-0.29935564434068673,-2.324356373159682,-0.2702484770723113
-1.5934969228127018,-0.20135698052540896,-2.3270588579304055,-0.27095481061386945
-1.595510492617956,-0.10309699791029694,-2.329768406036544,-0.2723845497091773
-1.5965414625970589,-0.004675181716058824,-2.332492251533636,-0.27427132869478726
-1.5965882144142194,0.09380944228489224,-2.3352349648205837,-0.27634795149456054
-1.5956501199913704,0.19225861231025138,-2.3379984443355295,-0.2783465249604001
-1.593727533868268,0.2905751597428992,-2.3407819095851337,-0.27999860005407884
-1.590821782270839,0.38866336680316904,-2.3435818955856744,-0.28103534300985233
-1.5869351486028074,0.4864293548707876,-2.346392249015773,-0.28118775619140285
-1.5820708550540996,0.583781502851427,-2.3492041265776873,-0.28018696440765695
-1.5762330400255853,0.6806308913666541,-2.352005996221764,-0.27776457725261255
-1.5694267311119188,0.7768917643388322,-2.35478364199429,-0.2736531319723151
-1.5616578134685304,0.8724819950728236,-2.357520173314013,-0.2675866149147665
-1.5529329935178022,0.9673235395681443,-2.3601960394631605,-0.25930105331691655
-1.5432597581221208,1.0613428558971978,-2.3627890499963295,-0.24853516356873104
-1.5326463295631487,1.1544712653974203,-2.365274401632017,-0.23503103767256156
-1.5211016169091744,1.2466452294266552,-2.3676247120087424,-0.21853484680754623
-1.5086351646149079,1.3378065147122151,-2.369810060476818,-0.19879754000879354
-1.4952570994677856,1.4279022209673422,-2.371798035876906,-0.17557551711861488
-1.4809780772581123,1.516884646420967,-2.373553791048092,-0.14863125832932084
-1.4658092307939026,1.6047109700642468,-2.3750401036313855,-0.11773389761192324
-1.44976212109326,1.6913427335245355,-2.376217442607505,-0.08265973376088723
-1.4328486937580147,1.7767451102349074,-2.3770440399451136,-0.043192680215841786
-1.4150812426556656,1.860885954647977,-2.377475966747272,0.000875337288432039
-1.3964723831091859,1.943734629329527,-2.3774672133743877,0.049744018398061716
-1.3770350368158906,2.0252606125886103,-2.376969773190407,0.10360433712829956
-1.3567824306900045,2.1054318936581438,-2.375933729819124,0.16263817207496628
-1.335728111753423,2.1842131662273188,-2.3743073480983745,0.22701788315761207
-1.3138859800911498,2.2615638343371764,-2.3720371692667985,0.2969057973537836
-1.291270341747778,2.3374358473712653,-2.369068111293261,0.3724535649740966
-1.2678959832740653,2.4117713832740204,-2.3653435756435197,0.45380134916243486
-1.243778269441325,2.4845004014411027,-2.3608055621518953,0.5410768145293564
-1.218933265426914,2.555538089215475,-2.355394794006602,0.6343938861476857
-1.1933778845347593,2.624782228866658,-2.349050855145125,0.7338512575495856
-1.1671300622460927,2.6921105155865224,-2.3417123425696293,0.8395306358558946
-1.1402089570902274,2.7573778616166793,-2.3333170362110702,0.9514947237390041
-1.1126351784740607,2.8204137272739858,-2.32380208897368,1.0697849515703526
-1.0844310412013207,2.8810195264125005,-2.3131042394579766,1.1944189888213412
-1.0556208459371956,2.938966161687202,-2.3011600495697633,1.3253880815250145
-1.0262311843203236,2.9939917536646163,-2.287906168754513,1.4626542822498676
-0.9962912667836774,3.045799636999059,-2.2732796259320143,1.6061476603649065
-0.9658332704136868,3.094056706027604,-2.257218149328365,1.7557636030176136
-0.9348927033534108,3.1383922005133313,-2.239660513298189,1.9113603406483426
-0.9035087813482775,3.178397028975538,-2.2205469098917057,2.072756854251503
-0.8717248110585221,3.2136237309944824,-2.1998193413491904,2.2397313439519877
-0.8395885737485772,3.2435871798131406,-2.1774220279096705,2.4120204585400553
-0.8071527019504458,3.267766121108404,-2.15330182332427,2.58931950192716
-0.7744750407393617,3.2856056315499886,-2.127408628304998,2.7712838434141505
-0.7416189844238618,3.2965205603380525,-2.099695789870857,2.957531762495188
-0.7086537788204812,3.2998999871215715,-2.070120472245905,3.147648954007532
-0.6756547789492655,3.295112689702587,-2.0386439827058296,3.341194904358328
-0.6427036520522397,3.281513564412921,-2.0052320336622462,3.537711323322987
-0.6098885164081105,3.258450881440146,-1.9698549204290163,3.7367327781740567
-0.577304007593709,3.225274188073416,-1.9324875926472758,3.937799628189741
-0.5450512657129749,3.1813425974122658,-1.8931095963653783,4.1404732994737214
-0.5132378397388523,3.1260331224841043,-1.8517048633706412,4.344353875175674
-0.4819775085140112,3.0587486414489176,-1.8082613246188846,4.549099908328082
-0.45139002209952206,2.9789250158474,-1.7627703255356038,4.754450297906249
-0.42160077194104806,2.886036839829259,-1.7152258225565413,4.960248007394976
-0.39274040354275547,2.7796012855323977,-1.6656233424825915,5.1664653512389505
-0.3649443906874315,2.6591795432032184,-1.613958688970202,5.37323052555539
-0.33835259525539935,2.5243754546789856,-1.5602263837146482,5.580855003670143
-0.3131088407086095,2.3748311356763105,-1.5044178336779468,5.789861325865112
-0.2893605293518464,2.2102197240594106,-1.4465192204192956,6.001010628106783
-0.26725833211125233,2.030235959038035,-1.3865091141382277,6.215328867097012
-0.24695597252087198,1.834586231292001,-1.3243558254672576,6.434129910583094
-0.22861011020795197,1.6229812949826399,-1.2600145263614266,6.659032120458719
-0.21238029725812557,1.395137436140397,-1.1934242051568393,6.891962144226056
-0.1984289228967216,1.1507963041175797,-1.1245045837145788,7.1351342792324175
-0.1869209598555458,0.8897811063456005,-1.0531532409222546,7.390984177744149
-0.1780231487920898,0.6121194704290044,-0.9792433991448131,7.662018908066721
-0.17190195408779976,0.3182838753259961,-0.9026232100641458,7.950517240385532
-0.16871911533453982,0.00963212865157459,-0.8231180376602905,8.257969792018985
-0.16862279404802408,-0.3108278076202133,-0.7405383397401006,8.584088143805472
-0.1717310721242262,-0.637189250606952,-0.654697458302046,8.925156382718985
-0.1781029646302957,-0.9587922353412799,-0.5654458944748562,9.271534441000961
-0.1876908869837085,-1.2579227262960684,-0.47273055006484654,9.604484195919463
-0.20027011424666918,-1.5080554764965592,-0.37668570810565194,9.893595035545586
-0.21535066901163477,-1.6751237381006459,-0.27774975775019606,10.098109941076022
-0.23210190639264122,-1.7251989347078536,-0.17676865833943584,10.176708338453116
-0.24935389573971975,-1.6386654785408983,-0.07500157495490467,10.105894523607118
-0.26574055052512874,-1.4222890119707616,0.026057370281166503,9.89548371707598
-0.27996344064483636,-1.1071805695589845,0.12501220745192632,9.585322753003936
-0.2910352463404262,-0.7333802843020112,0.22086543498196567,9.22470931741447
-0.2983690491834463,-0.3349075818018998,0.31311252815611035,8.853210987923237
-0.30171812500146533,0.06583960754718243,0.4016446380353427,8.494249845583273
-0.30105972892599353,0.4565484009459598,0.48658713649117546,8.157927943351309
-0.2964942449165339,0.831414874046353,0.5681664159246885,7.846150910523001
-0.2881800961760704,1.1881795206313257,0.6466279250299185,7.556654796606848
-0.2762983009697571,1.5262735323665875,0.722194472995987,7.285433784342967
-0.2610355656460912,1.8458118525989096,0.7950488108394167,7.028017033380234
-0.2425774471201021,2.147098372082548,0.865328981173219,6.780080583223939
-0.22110646339927661,2.4304107679099625,0.9331297870054583,6.537714241751941
-0.19680235572017699,2.695929678234616,0.9985069294229778,6.297521263166912
-0.16984305893783083,2.943739001720076,1.061482142054647,6.05664154981456
-0.14040566892063008,3.173858822077509,1.1220485575527925,5.812741942136381
-0.10866708069985499,3.3862907852391113,1.1801759769741564,5.56399311143691
-0.07480417284746388,3.5810652208108396,1.2358159080885256,5.3090408262518896
-0.03899352063935548,3.758284201303267,1.2889063163510446,5.046973938002707
-0.0014106786263228116,3.9181573587430707,1.3393760557310717,4.777289200449361
0.037770894961107894,4.061028796790574,1.3871489477355652,4.4998523989432995
0.07838118292901364,4.187394422862951,1.4321474717249982,4.214855393485958
0.12025512715764315,4.297909746694293,1.4742960256598578,3.9227691364868695
0.1632342246245861,4.393388760314658,1.5135237170247264,3.6242932711835296
0.20716811222773268,4.474794964370174,1.5497666497365616,3.32030341376216
0.25191606187143445,4.543225938737852,1.5829696838741834,3.011797595910113
0.297348321258813,4.599893063369656,1.6130876598332844,2.6998435594428005
0.3433472518925096,4.646098072151793,1.6400860954277123,2.3855286448727995
0.38980823261402753,4.683208069394272,1.6639413818764404,2.069913918545014
0.43664031330797026,4.712630464493594,1.6846405210618904,1.753993973642106
0.4837666179529062,4.735789000485909,1.7021804607983115,1.438663567981876
0.5311245079577653,4.754101683959043,1.7165670964781303,1.124691984509502
0.5786655247973558,4.768960981616802,1.7278140163232254,0.8127057831946993
0.6263551346135238,4.781716138705387,1.7359410741551724,0.5031805243453218
0.6741722960005776,4.793656888264445,1.7409728793986257,0.19644215636397028
0.722108864883222,4.805997129896222,1.7429373009622653,-0.1073208439627002
0.7701688361821842,4.819856311334368,1.7418640925226383,-0.4080327225856526
