th1 (rad),w1 (rad/s),th2 (rad),w2 (rad/s),a1 (rad/s^2),a2 (rad/s^2)
2.3372927441598472,-1.895962299668395,5.084040962531502,0.562043341882914,-5.9629161318028965,2.244089722013975
2.3183331211631635,-1.9555914609864238,5.089661395950332,0.5844842391030538,-6.231143458019265,1.9180426417288396
2.298777206553299,-2.0179028955666163,5.095506238341362,0.6036646655203421,-6.506171790306141,1.5898480533438917
2.278598177597633,-2.0829646134696778,5.101542884996565,0.619563146053781,-6.785710085196409,1.2638881109247615
2.2577685314629363,-2.150821714321642,5.107738516457103,0.6322020271630286,-7.066744669609522,0.945654698228759
2.2362603143197197,-2.221489161017737,5.114060536728734,0.6416585741453162,-7.345477082369296,0.641849470186551
2.2140454227095425,-2.2949439318414298,5.120477122470187,0.6480770688471817,-7.6172894753591835,0.36044407764308994
2.1910959833911283,-2.3711168265950215,5.126957893158659,0.6516815096236126,-7.876750690073993,0.11068060629601613
2.167384815125178,-2.4498843334957616,5.133474708254895,0.6527883156865728,-8.117677134564659,-0.0970095378291558
2.1428859717902204,-2.5310611048414082,5.140002591411761,0.6518182203082813,-8.333262128385163,-0.25118968814723497
2.117575360741806,-2.6143937261252597,5.146520773614844,0.6493063234268089,-8.516284851507328,-0.3397227860629174
2.0914314234805538,-2.699556574640333,5.153013836849112,0.6459090955661798,-8.65940494489227,-0.3502074163591096
2.0644358577341504,-2.7861506240892555,5.159472927804774,0.6424070214025888,-8.75554098922088,-0.2705434923139085
2.036574351493258,-2.873706033981464,5.1658969980188,0.6397015864794496,-8.798320850422416,-0.08961017193530095
2.0078372911534434,-2.961689242485688,5.172294013883595,0.6388054847600966,-8.782580167438551,0.20198002224999734
1.9782203987285865,-3.049515044160074,5.178682068731195,0.6408252849825965,-8.704873645213516,0.6111058625496875
1.9477252482869858,-3.136563780612209,5.185090321581021,0.6469363436080934,-8.563954348532416,1.1414119355534222
1.9163596104808638,-3.222203324097533,5.191559685017102,0.6583504629636276,-8.361171032908947,1.7927138002701368
1.8841375772398885,-3.305815034426623,5.198143189646738,0.676277600966329,-8.10073450488673,2.5606147127533574
1.8510794268956223,-3.38682237947549,5.204905965656401,0.7018837480938627,-7.789812048987646,3.4364035010798837
1.8172112031008674,-3.4647204999653667,5.2119248031373395,0.7362477831046615,-7.438423886838578,4.407280253227629
1.7825639981012138,-3.5391047388337524,5.219287280968386,0.7803205856369378,-7.059135962733538,5.456924065005263
1.7471729507128764,-3.6096960984610877,5.227090486824755,0.8348898262869905,-6.666566498547901,6.5663792847631965
1.7110759897282655,-3.676361763446567,5.235439385087625,0.9005536191346224,-6.276746465470358,7.715199003256676
1.6743123720937998,-3.7391292281012705,5.244444921278972,0.9777056091671892,-5.906392984534306,8.882752977164774
1.6369210798127871,-3.7981931579466135,5.254221977370643,1.0665331389388368,-5.572166751029955,10.049587150079393
1.598939148233321,-3.853914825456913,5.264887308760032,1.1670290104396308,-5.28998792766204,11.198717194381388
1.560399999978752,-3.9068147047335335,5.276557598864428,1.2790161823834447,-5.074479012643068,12.316750308691002
1.5213318529314166,-3.9575594948599644,5.289347760688262,1.4021836854703547,-4.938588999960591,13.394756268128571
1.481756257982817,-4.00694538485957,5.303369597542965,1.5361312481516403,-4.89343324428954,14.4288461858954
1.4416868041342212,-4.055879717302465,5.318730910024482,1.6804197100105942,-4.9483614232551005,15.420459558089275
1.4011280069611967,-4.105363331535017,5.335535107124588,1.834624305591487,-5.111245817886077,16.37640043420017
1.3600743736458465,-4.156475789713878,5.353881350180503,1.9983883099334887,-5.388967327445869,17.30869652554256
1.3185096157487077,-4.210365462988336,5.373865233279838,2.1714752751889144,-5.788069603471053,18.234377507080783
1.2764059611188243,-4.268246159023047,5.395579986031727,2.3538190502597223,-6.315553391786888,19.175280252212996
1.233723499528594,-4.331401692940916,5.419118176534324,2.545571852781852,-6.979793210832955,20.157991436438436
1.1904094825991849,-4.401199625049245,5.444573895062143,2.7471517671462364,-7.791575512556141,21.214035815573176
1.1463974863486925,-4.4791153801748065,5.472045412733605,2.9592921253019684,-8.765279646921801,22.38041609375237
1.1016063325469445,-4.5667681766440245,5.501638333986625,3.183096286239492,-9.920248248879405,23.700611430952637
1.0559386507805042,-4.665970659132818,5.533469296849019,3.4201024005490184,-11.282419395986933,25.226147520180916
1.009278944189176,-4.778794853092688,5.56767032085451,3.6723638757508277,-12.886313757044379,27.018857305171593
0.9614909956582492,-4.9076579906631315,5.604393959612018,3.9425524488025436,-14.777472873413602,29.153940538029502
0.912414415751618,-5.055432719397268,5.643819484100043,4.2340918541828385,-17.01539598391293,31.723855136415114
0.8618600885576453,-5.225586679236397,5.686160402641872,4.55133040554699,-19.67683693759967,34.842813431587324
0.8096042217652814,-5.422355048612394,5.731673706697342,4.899758539862863,-22.858786054963023,38.650912624301704
0.7553806712791574,-5.650942909162024,5.78067129209597,5.28626766610588,-26.679044307121917,43.314960175378154
0.6988712421875372,-5.917733352233243,5.833533968757029,5.7194172678596615,-31.26869358349734,49.01803630879194
0.6396939086652047,-6.230420288068216,5.890728141435626,6.209597630947581,-36.741821578870386,55.91734984097565
0.5773897057845225,-6.59783850385692,5.952824117745102,6.768771129357337,-43.10635912181647,64.01987468166523
0.5114113207459533,-7.028902095075085,6.020511829038676,7.408969876173989,-50.031936112611056,72.8580720773439
0.44112229979520245,-7.529221456201196,6.094601527800416,8.137550596947428,-56.30475991308913,80.72739466900867
0.3658300852331905,-8.092269055332087,6.17597703376989,8.944824543637514,-58.75881116935176,83.18945780512028
0.2849073946798696,-8.679857167025604,6.265425279206265,9.776719121688718,-51.064458396267774,71.37373017330475
0.19810882300961352,-9.190501750988282,6.363192470423152,10.490456423421765,-25.574597579023575,34.565534783349854
0.1062038054997307,-9.446247726778518,6.46809703465737,10.836111771255263,15.847305757586025,-24.6160546109416
0.011741328231945514,-9.287774669202658,6.576458152369923,10.589951225145848,52.61061127774579,-77.33857935514942
-0.08113641846008107,-8.761668556425201,6.682357664621381,9.816565431594354,66.70749523350091,-98.43887260891302
-0.16875310402433308,-8.094593604090193,6.780523318937324,8.832176705505223,62.96253469970099,-94.66677213386491
-0.24969904006523502,-7.464968257093183,6.868845085992376,7.885508984166574,53.10826344449133,-82.3706187055356
-0.3243487226361669,-6.93388562264827,6.947700175834042,7.061802797111218,43.17407224048119,-69.9387120106597
-0.3936875788626496,-6.502144900243458,7.018318203805154,6.362415677004621,34.81798589228313,-59.680622393162395
-0.45870902786508416,-6.153965041320626,7.0819423605752005,5.765609453072996,28.121540931009235,-51.71687916358144
-0.5202486782782905,-5.872749632010534,7.13959845510593,5.248440661437182,22.7883931367242,-45.641461326738195
-0.5789761745983958,-5.644865700643292,7.192082861720302,4.7920260481698,18.503258767014817,-41.01810040850898
-0.6354248316048288,-5.459833112973144,7.240003122202,4.381845044084709,15.012573583769502,-37.49113398115964
-0.6900231627345602,-5.3097073771354495,7.2838215726428475,4.006933704273113,12.128356070347667,-34.79022726840767
-0.7431202365059147,-5.188423816431973,7.323890909685579,3.659031431589036,9.715462216842019,-32.712216482644976
-0.7950044746702345,-5.091269194263552,7.360481224001469,3.3319092667625863,7.678293886693582,-31.102292180758244
-0.84591716661287,-5.0144862553966165,7.393800316669095,3.0208863449550036,5.950313348184694,-29.83923193975286
-0.8960620291668362,-4.954983121914769,7.424009180118645,2.722494025557475,4.486353010984074,-28.82479698835641
-0.9456118603859839,-4.9101195918049285,7.45123412037422,2.4342460556739107,3.257012434738617,-27.976480488546695
-0.9947130563040332,-4.877549467457542,7.47557658093096,2.154481250788444,2.2444443329094206,-27.222820616318355
-1.0434885509786085,-4.855105024128448,7.497121393438844,1.8822530446252603,1.438991839812988,-26.50069098397292
-1.092039601219893,-4.840715105730318,7.5159439238850965,1.6172461347855311,0.8363082480266733,-25.754145325573273
-1.1404467522771962,-4.832352023250052,7.532116385232952,1.3597046815297984,0.43474172184899046,-24.934479371255623
-1.1887702725096967,-4.828004606031562,7.54571343204825,1.1103598878172423,0.2329015272784174,-24.001186148206795
-1.2370503185700124,-4.825675590758777,7.556817030926422,0.8703480263351743,0.2274385069662361,-22.92344537465725
-1.2853070744776,-4.823401205689115,7.565520511189773,0.6411135725886018,0.41116248445476233,-21.681737315799715
-1.3335410865344912,-4.8192895808445675,7.571931646915659,0.42429619943060465,0.7716686850522567,-20.269145622140087
-1.3817339823429369,-4.811572893994045,7.576174608909965,0.22160474320920379,1.2906407069211847,-18.691947181053433
-1.4298497112828774,-4.798666486924833,7.578390656342057,0.03468527139866945,1.9439353463551081,-16.969198104448278
-1.4778363761521258,-4.779227133461282,7.578737509056044,-0.13500670964581332,2.702447034837119,-15.131205101853157
-1.5256286474867387,-4.752202663112911,7.577387441959585,-0.2863187606643449,3.5336250059012126,-13.216984299843299
-1.5731506741178678,-4.716866413053899,7.574524254352942,-0.4184886036627779,4.403410432657317,-11.271002145015569
-1.620319338248407,-4.672832308727326,7.570339368316314,-0.5311986251129336,5.278304069769483,-9.339615727877755
-1.6670476613356802,-4.620049268029631,7.5650273820651845,-0.6245947823917112,6.127280921170266,-7.467655455070567
-1.7132481540159765,-4.5587764588179285,7.558781434241268,-0.6992713369424168,6.923329862553433,-5.695525561518581
-1.7588359186041558,-4.489543160192394,7.551788720871843,-0.7562265925576026,7.644490014244532,-4.057067958348394
-1.8037313502060797,-4.413098260049948,7.544226454946267,-0.7967972721410865,8.27435396454829,-2.5782844932368976
-1.847862332806579,-4.330354720404466,7.536258482224857,-0.8225801170734555,8.802087958087006,-1.2768795529076966
-1.8911658800106237,-4.242333840823596,7.528032681054122,-0.8353489126025324,9.22206916302535,-0.16249197355288125
-1.9335892184188597,-4.150113149193342,7.5196791919280965,-0.8369738323380612,9.533259485860267,0.7625615189930783
-1.975090349910793,-4.05478055433474,7.511309453604716,-0.8293482171481305,9.738430906267975,1.5022162886058492
-2.0156381554541403,-3.95739624527206,7.503015971433235,-0.8143260542620719,9.84333851140336,2.065428488158071
-2.0552121179068608,-3.8589628601580266,7.494872710890614,-0.7936717693804912,9.855913034536051,2.4649144704846417
-2.093801746508441,-3.760403729812666,7.486935993196809,-0.7690226246756448,9.785520839774808,2.71595618869513
-2.1314057838065676,-3.662548521414918,7.4792457669500525,-0.7418630627886934,9.642319182995841,2.8353341065256
-2.168031269020717,-3.5661253295849598,7.471827136322165,-0.7135097217234374,9.436719252709011,2.840421316068007
-2.2036925223165666,-3.47175813705787,7.464692039104931,-0.6851055085627573,9.178958673177586,2.748451353753786
-2.2384101036871455,-3.379968550326094,7.457840984019303,-0.6576209950252194,8.878777996487216,2.5759570686284112
-2.2722097891904065,-3.2911807703612217,7.451264774069052,-0.6318614243389353,8.545191302874764,2.3383678106959764
-2.305121596894019,-3.205728857332474,7.444946159825662,-0.6084777462319756,8.186338598575082,2.04974610472019
-2.3371788854673436,-3.1238654713467233,7.438861382363342,-0.5879802851847737,7.809406676820804,1.7226419169930662
-2.3684175401808107,-3.0457714045785154,7.432981579511495,-0.5707538660148431,7.420605087611769,1.3680418315531098
-2.398875254226596,-2.9715653537023976,7.427274040851346,-0.557073447699312,7.025184555242412,0.9953912901338187
-2.42859090776362,-2.9013135081499737,7.4217033063743525,-0.5471195347979738,6.627486365149763,0.6126699881662546
-2.45760404284512,-2.835038644498476,7.416232111026373,-0.5409928349163112,6.231012727789483,0.22650311854907773
-2.4859544292901044,-2.772728517220581,7.41082218267721,-0.5387278037308204,5.838509759147239,-0.15770594176464536
-2.5136817144623103,-2.7143434196291083,7.405434904639901,-0.5403048631484668,5.452056364257306,-0.535632978217225
-2.5408251486586013,-2.659822855986535,7.400031856008416,-0.5456611929306391,5.0731538701390235,-0.9038890403861141
-2.5674233772184665,-2.609091317285145,7.39457524407911,-0.5547000833345003,4.7028126569789395,-1.2598815732044188
-2.593514290391318,-2.5620631907153557,7.3890282432457655,-0.5672988990665444,4.341633239688144,-1.601684777859081
-2.6191349222984717,-2.5186468583184745,7.3833552542551,-0.5833157468451352,3.989880240116956,-1.927921722252462
-2.6443213908816565,-2.478748055917305,7.377522096786649,-0.6025949640676598,3.647548467036942,-2.237659418503575
-2.6691088714408298,-2.4422725712469355,7.371496147145972,-0.6249715582526956,3.3144209040605235,-2.5303171220450142
-2.693531597153299,-2.40912836220633,7.365246431563445,-0.6502747294731457,2.990118820564479,-2.805587433156557
-2.7176228807753624,-2.3792271740006856,7.358743684268714,-0.6783306038047112,2.674144496379794,-3.0633693433538127
-2.741415152515369,-2.3524857290368875,7.351960378230667,-0.7089642972382494,2.365917216389254,-3.3037121140407772
-2.764940009805738,-2.328826556872995,7.344870735258285,-0.7420014183786572,2.0648032727824916,-3.5267687568284263
-2.7882282753744683,-2.30817852414517,7.337450721074498,-0.7772691059469414,1.7701407335375527,-3.7327578646267088
-2.81131006061592,-2.290477116809795,7.329678030015029,-0.8145966845932086,1.4812597146692774,-3.9219325882730964
-2.834214831784018,-2.2756645196631022,7.321532063169097,-0.8538160104759395,1.1974988458700326,-4.094555640420438
-2.856971476980649,-2.263689531204402,7.312993903064338,-0.8947615668801439,0.918218555710987,-4.250879318297012
-2.879608372292693,-2.2545073456472924,7.304046287395536,-0.9372703600631139,0.6428117318289098,-4.39112965662476
-2.902153445749166,-2.2480792283290034,7.294673583794905,-0.9811816566293615,0.37071223922625096,-4.51549394247387
-2.9246342380324557,-2.244372105936741,7.284861767228612,-1.0263365960541002,0.101401709718328,-4.624110939388798
-2.947077959091823,-2.2433580888395577,7.2745984012680704,-1.0725777054479881,-0.1655850500691358,-4.717063275374647
-2.9695115399802186,-2.245013939340249,7.26387262421359,-1.1197483382017346,-0.4306557447437157,-4.794371546614913
-2.9919616793736212,-2.249320496787686,7.252675140831573,-1.1676920536678836,-0.6941571367768815,-4.855989775603512
-3.014454884341498,-2.256262068155455,7.240998220294895,-1.2162519514239187,-0.9563722682853709,-4.9018019389722
-3.0370175050230523,-2.2658257908383086,7.228835700780656,-1.2652699708136408,-1.21751821503909,-4.93161934739489
-3.0596757629314353,-2.2780009729886994,7.21618300107252,-1.3145861642875898,-1.477744267389603,-4.945178718508665
-3.0824557726613224,-2.2927784156625957,7.203037139429644,-1.3640379514726764,-1.7371304662367488,-4.942140834852453
-3.1053835568179484,-2.3101497203249632,7.189396759914917,-1.4134593598212009,-1.995686452096525,-4.9220897234228
-3.128485054021198,-2.3301065848459284,7.175262166316705,-1.462680257055429,-2.253350612490614,-4.884532332536928
-3.1517861198696573,-2.3526400909708345,7.160635363746151,-1.5115255803807983,-2.5099895378788633,-4.828898716110422
-3.1753125207793658,-2.377739986349623,7.1455201079423425,-1.5598145675419026,-2.765397819756353,-4.754542765885042
-3.199089920642862,-2.4053939645471862,7.129921962266923,-1.6073599952007531,-3.0192982468024225,-4.660743559100827
-3.2231438602883338,-2.4355869470152105,7.113848362314916,-1.6539674307917613,-3.271342476466866,-4.546707412931613
-3.247499729758486,-2.468300371779879,7.097308688006998,-1.6994345049210775,-3.5211122803682557,-4.411570757840346
-3.272182733476285,-2.5035114945835617,7.080314342957787,-1.743550212499481,-3.7681214825030533,-4.254403959792346
-3.2972178484221204,-2.5411927094085924,7.062878840832792,-1.7860942520974046,-4.011818729536424,-4.074216235699982
-3.3226297755162064,-2.5813108967039566,7.045017898311818,-1.8268364144544045,-4.251591252239071,-3.8699618170169154
-3.348442884483246,-2.6238268092263475,7.0267495341672745,-1.8655360326245736,-4.486769796161643,-3.6405475222332977
-3.3746811525755094,-2.668694507187964,7.0080941738410285,-1.9019415078469066,-4.71663491743364,-3.384841899015479
-3.401368097647389,-2.7158608563623003,6.989074758762559,-1.9357899268370615,-4.940424855468617,-3.101686089413879
-3.428526706211012,-2.7652651049169865,6.969716859494189,-1.9668067877312003,-5.157345207460983,-2.7899065550906346
-3.456179357260182,-2.816838556991596,6.950048791616877,-1.9947058532821067,-5.366580638738048,-2.448329771662537
-3.484347742830098,-2.8705043633789766,6.930101733084055,-2.019189150998732,-5.567308866899421,-2.075798959389265
-3.513052786463888,-2.9261774520479706,6.909909841574068,-2.039947140592625,-5.758717154607932,-1.6711928585728197
-3.5423145609843676,-2.98376462359405,6.889510370168142,-2.056659069178353,-5.940021534057934,-1.233446478883254
-3.572152207220308,-3.0431648389346293,6.868943779476359,-2.0689935339671854,-6.110488963577588,-0.7615736489437118
-3.6025838556096543,-3.1042697285704053,6.848253844136687,-2.0766092704566224,-6.269462581569755,-0.2546910625009444
-3.6336265528953584,-3.166964354386103,6.8274877514321215,-2.0791561810816317,-6.416390173333837,0.2879566426486591
-3.6652961964392192,-3.231128256119441,6.806696189621305,-2.076276614655145,-6.550855901043966,0.8669714293433302
-3.6976074790004136,-3.296636815129881,6.785933423474754,-2.067606900361712,-6.672615266044097,1.4827769115392877
-3.7305738471517125,-3.3633629677903216,6.765257354471137,-2.052779131246319,-6.7816331769024725,2.1355950508368617
-3.7642074768296157,-3.4311792995593464,6.744729563158674,-2.03142318073795,-6.878124889718559,2.8254259259098777
-3.798519269825209,-3.499960548456532,6.724415331351294,-2.0031689214788515,-6.962599475216777,3.5520323099449223
-3.833518875309774,-3.5695865432086995,6.704383642136506,-1.9676485983794023,-7.035905360004716,4.3149311104524015
-3.869214740741861,-3.639945596808747,6.684707156152712,-1.9244992872748783,-7.099277401096217,5.113394041654005
-3.9056141967099487,-3.7109383708197092,6.665462163279963,-1.8733653468583382,-7.154384902231828,5.946460194364258
-3.942723580418146,-3.7824822198420276,6.646728509811379,-1.8139007449146956,-7.203379991418622,6.812963422139257
-3.980548402616566,-3.854516019756214,6.6285895023622325,-1.745771110693303,-7.248945879818839,7.711577656064724
-4.019093562814128,-3.927005478554402,6.6111317912553,-1.6686553341326558,-7.294344744731576,8.640883378294314
-4.058363617599673,-3.999948926001718,6.594445237913973,-1.5822465003497126,-7.343465358240573,9.599458519129055
-4.09836310685969,-4.073383579584124,6.578622772910476,-1.4862519151584221,-7.400871152584104,10.585997000663935
-4.139096942655531,-4.1473922911099645,6.563760253758892,-1.3803919451517828,-7.471850205530156,11.599458057874925
-4.18057086556663,-4.222110793165266,6.549956334307375,-1.2643973645730335,-7.562469671121928,12.639249375721322
-4.222791973498283,-4.297735489876485,6.537312360661645,-1.1380048708158204,-7.679638492653604,13.705447065115782
-4.265769328397048,-4.37453187480302,6.525932311953486,-1.0009504001646625,-7.831183824989855,14.799055662179185
-4.309514647145078,-4.452843713052919,6.515922807951839,-0.8529598435428707,-8.025948457674035,15.922311788041638
-4.354043084275607,-4.533103197629659,6.507393209516411,-0.6937367256624543,-8.2739186419394,17.07903595326223
-4.399374116251903,-4.615842384049053,6.500455842259786,-0.5229463661298319,-8.58639401567833,18.275038274512557
-4.445532540092394,-4.701706324205836,6.495226378598487,-0.34019598338470636,-8.976213635972684,19.5185854820638
