th1 (rad),w1 (rad/s),th2 (rad),w2 (rad/s)
3.024521927739284,-1.7356155933206436,5.771013272522058,-3.0920831973706013
3.007165771806078,-1.6942164110878806,5.740092440548352,-3.01744110986826
2.990223607695199,-1.6545582727881394,5.709918029449669,-2.9418101232581764
2.9736780249673176,-1.6167495893207702,5.680499928217087,-2.865373658937321
2.95751052907411,-1.5808880724367431,5.6518461916277145,-2.7883062205542997
2.9417016483497425,-1.5470604265551822,5.6239631294221715,-2.7107727145222102
2.9262310440841905,-1.5153422805275878,5.596855402276949,-2.6329280540621625
2.9110776212789147,-1.485798330266916,5.570526121736328,-2.5549170177486626
2.8962196379762455,-1.4584826616983204,5.544976951558841,-2.476874330831924
2.8816348113592625,-1.4334392234474955,5.520208208250521,-2.3989249365449488
2.8673004191247875,-1.4107024197859388,5.496218958885072,-2.3211844248962112
2.853193394926928,-1.3902977963210519,5.4730071146361094,-2.2437595878183343
2.8392904169637174,-1.3722427934884311,5.450569518757926,-2.1667490717119566
2.825567989028833,-1.3565475458370102,5.428902028040807,-2.0902441011361783
2.8120025135704627,-1.3432157081928335,5.407999587029445,-2.014329250427793
2.7985703564885345,-1.332245292880051,5.387856294525167,-1.9390832431924234
2.785247903559734,-1.3236295051416727,5.368465462093243,-1.8645797627501843
2.7720116085083175,-1.3173575666459278,5.349819664465741,-1.790888259620629
2.758838032841858,-1.3134155194253583,5.331910781869535,-1.7180747449122178
2.7457038776476046,-1.3117870047390008,5.314730034420413,-1.6462025609831947
2.7325860076002146,-1.3124540131570888,5.298268008810581,-1.5753331229281482
2.7194614674686437,-1.3153976036414492,5.2825146775812994,-1.5055266262989258
2.7063074914322294,-1.3205985905421935,5.26745941131831,-1.4368427179829324
2.6931015055268075,-1.3280381982676017,5.25309098413848,-1.3693411283365644
2.6798211235441314,-1.3376986839272151,5.239397572855115,-1.3030822635105586
2.6664441367048592,-1.3495639285160388,5.226366750220009,-1.2381277574117797
2.652948497419699,-1.3636199972161438,5.213985472645891,-1.1745409829246296
2.6393122974475376,-1.3798556691527237,5.202240062816645,-1.112387521862775
2.6255137407560105,-1.3982629364615624,5.191116187598017,-1.0517355926303193
2.611531111391395,-1.4188374718047223,5.180598831671714,-0.9926564337258413
2.597342736673348,-1.4415790625054217,5.170672267334456,-0.9352246399999942
2.5829269460482935,-1.466492008249311,5.161320020934456,-0.8795184469464492
2.5682620259658004,-1.493585477799076,5.152524836464991,-0.8256199562276555
2.5533261711878095,-1.5228738183682393,5.144268636902715,-0.7736152930646477
2.5380974330041273,-1.5543768091695445,5.1365324839720685,-0.7235946830018447
2.5225536649124316,-1.5881198481624779,5.12929653714205,-0.6756524318385602
2.506672466430807,-1.624134058143242,5.122540012823665,-0.6298867881457099
2.4904311258493745,-1.662456295024237,5.116241144942207,-0.5863996627143273
2.4738065628991324,-1.7031290374261057,5.110377148315064,-0.5452961734855235
2.4567752725248715,-1.7462001325615473,5.104924186580209,-0.5066839779944329
2.4393132711992562,-1.7917223688666373,5.099857346800264,-0.4706723481779981
2.42139604751059,-1.8397528410198445,5.095150623318484,-0.43737093467580423
2.4029985191003913,-1.8903520680351373,5.090776913971726,-0.40688815972535297
2.38409499842004,-1.9435828202663539,5.086708032374473,-0.3793291697889399
2.3646591702173767,-1.9995086067737469,5.082914740676583,-0.35479327170277314
2.344664084149639,-2.05819177108305,5.0793668079595555,-0.33337077019602174
2.3240821664388087,-2.1196911415886097,5.076033100257595,-0.3151391211557286
2.3028852550229226,-2.1840591835895693,5.072881709046038,-0.30015831540788857
2.281044663187027,-2.251338604289536,5.069880125891959,-0.28846541379908835
2.2585312771441317,-2.3215583713328973,5.066995471753968,-0.2800681681126448
2.235315693430803,-2.394729121068336,5.0641947900728415,-0.2749376862728021
2.2113684022201197,-2.470837956294907,5.061445413210113,-0.273000137021467
2.1866600226571706,-2.549842666297963,5.0587154118398985,-0.27412754143552864
2.161161595994191,-2.631665445826744,5.055974136425543,-0.2781277686067226
2.1348449415359236,-2.7161862451001366,5.053192858739475,-0.28473394206758296
2.1076830790849224,-2.803235949899303,5.0503455193188,-0.2935935722841667
2.0796507195859295,-2.8925896680247454,5.047409583595958,-0.3042578568523861
2.050724822905682,-2.9839604829384556,5.044367005027435,-0.3161717292288891
2.0208852180762973,-3.076994122388182,5.041205287735146,-0.32866538070903184
1.9901152768524155,-3.171265072155743,5.037918633928055,-0.3409481167598006
1.958402626130858,-3.2662747335495426,5.0345091527604575,-0.3521055214224307
1.9257398787953626,-3.36145226674131,5.030988097546233,-0.3611009722471357
1.8921253561279494,-3.456158768076203,5.027377087823762,-0.3667825502621017
1.8575637684471873,-3.549695385162783,5.023709262321141,-0.36789630088328085
1.8220668145955594,-3.6413158666713277,5.0200302993123085,-0.36310659987069
1.785653655928846,-3.730243864244493,5.016399233313601,-0.35102404539758747
1.748351217286401,-3.815695045524317,5.012888992859625,-0.33024082345923855
1.7101942668311578,-3.8969037398871103,5.0095865846250325,-0.29937288281986535
1.6712252294322867,-3.973153430880235,5.006592855796834,-0.2571075296273548
1.6314936951234844,-4.043809952852311,5.00402178050056,-0.20225425691907428
1.5910555955949612,-4.108355781168738,5.001999237931369,-0.13379583515325696
1.5499720377832737,-4.1664233813615,5.000661279579837,-0.05093601061973249
1.5083078039696587,-4.217825275424901,5.000151919473639,0.04686028354291655
1.4661295512154098,-4.262578376078651,5.0006205223090685,0.15983836948884456
1.4235037674546234,-4.300920310027517,5.002218906003957,0.28794067086385366
1.3804945643543483,-4.333315949980304,5.005098312712596,0.4308117573680884
1.3371614048545453,-4.360453202354915,5.009406430286276,0.5878229209584059
1.293556872830996,-4.383228184409522,5.01528465949586,0.7581158043288763
1.2497245909869008,-4.402721132172148,5.022865817539149,0.9406626993663841
1.2056973796651793,-4.420165521478616,5.032272444532812,1.1343394662798219
1.1614957244503932,-4.436913764838115,5.043615839195611,1.3380059105476163
1.117126586802012,-4.454403318354819,5.0569958983010865,1.5505881209565773
1.0725825536184637,-4.474127035924709,5.072501779510652,1.7711577908179552
1.0278412832592165,-4.497611189899773,5.090213357418832,1.9990048187092353
0.9828651713602188,-4.526403879523249,5.110203405605924,2.233701282607961
0.9376011325649863,-4.562075766295079,5.132540418432004,2.475156908738934
0.8919803749020355,-4.606234409876194,5.157291987519393,2.7236681438264805
0.8459180308032735,-4.66055309337949,5.184528668957658,2.9799647059409153
0.7993124998694786,-4.726815026504781,5.214328316017068,3.2452589719147387
0.7520443496044308,-4.806974235144975,5.246780905736215,3.5213047996648505
0.703974607252981,-4.903235252762175,5.281993953732863,3.8104734716701523
0.6549422547253593,-5.018154791121156,5.320098688449565,4.115855413557035
0.6047607068141477,-5.154769554964888,5.361257242585135,4.4413969579195305
0.5532130112644988,-5.3167544524187305,5.40567121216433,4.792080743972726
0.5000454667403116,-5.508612569113351,5.4535920196040575,5.1741536463377535
0.44495934104917806,-5.735887226934955,5.505333556067435,5.595390301718574
0.3876004687798285,-6.005354298925161,5.561287459084621,6.065335411059609
0.3275469257905769,-6.325067745456038,5.621940813195217,6.595349525446151
0.26429624833601656,-6.703915805052061,5.687894308449679,7.197983046066359
0.19725709028549593,-7.1498231685852405,5.759874138910343,7.88447488496341
0.12575885859964353,-7.664568049015311,5.838718887759977,8.657541281502061
0.049113178109490424,-8.231092155159025,5.925294300574997,9.4936887769531
-0.03319774344209983,-8.788041521747484,6.020231188344528,10.307669436217445
-0.12107815865957468,-9.198293018684938,6.123307882706703,10.908496960056759
-0.21306108884642405,-9.269055053670924,6.232392852307271,11.027626342655248
-0.3057516393831333,-8.908484694017535,6.342669115733823,10.537965503714663
-0.3948364863233087,-8.264774467081105,6.44804877077097,9.647435203411348
-0.47748423099411974,-7.570095801790312,6.544523122805083,8.680009911280525
-0.5531851890120228,-6.949899961594641,6.631323221917889,7.810290892628238
-0.6226841886279693,-6.431533087303412,6.709426130844171,7.076421387794765
-0.6869995195010034,-6.004831605290273,6.780190344722119,6.464606289578224
-0.7470478355539061,-5.652278424593604,6.844836407617901,5.950948737858623
-0.8035706197998421,-5.358053028011006,6.904345894996488,5.513947887533083
-0.8571511500799522,-5.109658174040481,6.959485373871819,5.1367307055349585
-0.908247731820357,-4.897570497715536,7.010852680927169,4.806568731495479
-0.9572234367975123,-4.714554984518472,7.058918368242123,4.513941770037555
-1.004368986642697,-4.5550570948075695,7.104057785942499,4.251715004879401
-1.0499195575907727,-4.414739296378559,7.146574935991293,4.014518519915084
-1.0940669505545584,-4.290143429004521,7.186720121190444,3.798301545465602
-1.1369683848446035,-4.178447517860601,7.2247031366450996,3.6000164406894566
-1.1787528600232096,-4.0772904821990865,7.260703301051994,3.4173939417629158
-1.2195257648452005,-3.984645518057652,7.294877240469623,3.2487808745210627
-1.259372220025777,-3.898729119894169,7.327365049214834,3.093019476356391
-1.2983595112247188,-3.817937248456984,7.358295243978398,2.949353170627822
-1.3365388837092886,-3.7408032820634847,7.387788775684677,2.817347605328579
-1.3739469165299234,-3.665974397131936,7.415962251737962,2.6968186581401397
-1.4106066605012428,-3.5922041158259317,7.4429304383193635,2.5877614867041205
-1.446528701659502,-3.518359059849289,7.468808053186405,2.4902769932613054
-1.481712292257995,-3.443437562576632,7.4937108231190175,2.4044945374713875
-1.5161466678837614,-3.366596864506658,7.517755768493731,2.3304924226123704
-1.549812636528828,-3.287184399724686,7.541060692719855,2.268220403243535
-1.582684480526075,-3.2047675479568896,7.56374289675229,2.217430775863352
-1.6147321560056438,-3.1191556355911754,7.585917204510923,2.1776259164354634
-1.6459237123615555,-3.0304083478453108,7.607693463675278,2.148029843118569
-1.6762277958400087,-2.9388263002131687,7.629173762106464,2.127589208406721
-1.7056160588421403,-2.844922210270347,7.650449654190531,2.1150052590384596
-1.7340652809448438,-2.7493744245954477,7.671599706780916,2.108793508341621
-1.7615590251907982,-2.652967722248217,7.692687641864333,2.107363311428822
-1.7880887024132803,-2.5565285303441527,7.713761274978621,2.109106420230098
-1.813653987716722,-2.460862393021228,7.734852339180922,2.1124827300702975
-1.8382626116469343,-2.366700626938438,7.755977166481625,2.116092936882717
-1.8619296179163187,-2.274660937726326,7.777138095850452,2.1187311334256096
-1.884676227293582,-2.185224030582669,7.798325407184708,2.1194144761840863
-1.9065284675994087,-2.09872563920961,7.8195195519465495,2.117390896424241
-1.9275157239915048,-2.0153614525179346,7.840693460910792,2.112128642390018
-1.9476693385166841,-1.9352013729072848,7.861814747334693,2.1032929060016077
-1.967021352245757,-1.858209346958605,7.882847676394709,2.0907150012340696
-1.9856034457153429,-1.7842654419965487,7.90375482640705,2.074358874319585
-2.0034461001353083,-1.7131876140425422,7.924498415150246,2.0542885656988843
-2.020577976275734,-1.6447514720419456,7.945041300807234,2.0306389789594035
-2.0370254909961534,-1.5787071179234216,7.965347690596828,2.003591188743074
-2.0528125621753874,-1.5147927454445265,7.985383602484259,1.9733526569721729
-2.067960489629833,-1.4527450931077674,8.00511712905398,1.9401421469992495
-2.0824879405609105,-1.392307088759634,8.024518550523974,1.9041787929502212
-2.096411011448507,-1.3332331348801991,8.043560338453476,1.865674636895803
-2.1097433427973087,-1.2752925055332753,8.062217084822434,1.8248299279764342
-2.1224962678526413,-1.2182712940743525,8.080465384102197,1.7818305333528852
-2.134678980793385,-1.1619732917040297,8.098283689435727,1.736846902554957
-2.1462987137104252,-1.106220108769148,8.115652158461277,1.6900341291019645
-2.1573609147981165,-1.0508507841785921,8.132552499752297,1.6415327512068774
-2.1678694226399027,-0.9957210690698847,8.148967827264366,1.5914700194040983
-2.1778266333306013,-0.9407025211869243,8.164882527458408,1.5399614303168898
-2.1872336585424708,-0.8856815065263339,8.180282141761577,1.487112382577197
-2.1960904736077342,-0.8305581738235792,8.195153265587349,1.4330198546436963
-2.20439605534597,-0.7752454440659521,8.209483464133786,1.377774037023878
-2.2121485097866294,-0.7196680400283062,8.223261204504025,1.321459875355815
-2.2193451901869126,-0.6637615685167496,8.236475803257584,1.2641584979218379
-2.22598280587208,-0.6074716594446828,8.249117388236803,1.2059485131322951
-2.2320575224665267,-0.5507531601278046,8.261176873368125,1.1469071706993867
-2.237565054067805,-0.4935693795362822,8.27264594507512,1.0871113856909853
-2.2425007478631676,-0.4358913751169962,8.283517058932029,1.0266386282313003
-2.2468596616143377,-0.3776972737679702,8.293783445214341,0.9655676839101631
-2.250636634352017,-0.3189716182907966,8.303439122053444,0.903979291421349
-2.253826350534925,-0.2597047309284599,8.312478914967658,0.8419566648902945
-2.25642339784421,-0.19989208624132593,8.320898481616561,0.779585908992692
-2.2584223187066232,-0.13953368645505854,8.328694340706488,0.7169563354541838
-2.2598176555711738,-0.07863343343596324,8.335863904061029,0.6541606899497364
-2.2606039899055332,-0.017198492540703478,8.342405510960527,0.5912952988413376
-2.26077597483094,0.04476135530555065,8.34831846394894,0.5284601456277706
-2.260328361277885,0.10723437586751529,8.353603065405219,0.4657588874334069
-2.25925601751921,0.17020755973768564,8.358260654279553,0.4032988223233732
-2.257553941921833,0.2336673169594425,8.362293642502786,0.34119081868017603
-2.2552172687522387,0.2976001879086099,8.365705550689588,0.2795492182865952
-2.2522412668731526,0.361993569493682,8.368501042872454,0.2184917251033201
-2.248621331178216,0.4268364551508311,8.370685960123488,0.15813929197848375
-2.2443529666267077,0.49212018665857316,8.372267353043274,0.09861601765138284
-2.239431764760122,0.5578392154765636,8.373253513219787,0.04004906638663289
-2.233853372605356,0.6239918711147271,8.373654003883653,-0.01743137762890954
-2.2276134538942087,0.6905811339465969,8.373479690107363,-0.0736921094023103
-2.2207076425547427,0.7576154098696994,8.37274276901334,-0.12859684467947044
-2.2131314884560456,0.8251093042518641,8.371456800566547,-0.18200609373617216
-2.204880395413527,0.8930843926403564,8.369636739629184,-0.23377695843225138
-2.1959495514871232,0.9615699856932451,8.367298970044862,-0.28376284508865884
-2.1863338516301907,1.0306038856476802,8.364461341593975,-0.331813087692263
-2.176027812773714,1.10023313127963,8.361143210717053,-0.37777247835930394
-2.1650254814609178,1.1705147276269159,8.35736548593346,-0.42148070500027135
-2.1533203341846487,1.2415163556127742,8.353150678883457,-0.4627716998654857
-2.140905170628521,1.313317054965655,8.348522961884802,-0.501472907293461
-2.1277720000788647,1.3860078712979045,8.343508232811867,-0.5374044847672403
-2.1139119213658857,1.4596924546631393,8.338134187964195,-0.5703784586036151
-2.0993149968192544,1.5344875921040444,8.33243040337816,-0.6001978646241934
-2.083970120898214,1.6105236503342715,8.326428424731917,-0.6266559154320117
-2.0678648843948713,1.6879448964368269,8.320161865577598,-0.6495352499702134
-2.050985435430503,1.7669096539412807,8.313666513077896,-0.6686073384730896
-2.0333163388910904,1.8475902384806795,8.306980439693165,-0.683632137393102
-2.0148404365062835,1.9301726010556073,8.300144118319233,-0.6943581150733475
-1.9955387104957274,2.0148555874390004,8.293200537168499,-0.7005228004461318
-1.9753901546213375,2.101849699274726,8.286195309164038,-0.7018540443055646
-1.9543716576285903,2.191375216052103,8.279176768720982,-0.6980722257856614
-1.9324579054680693,2.2836595079103073,8.272196046463126,-0.6888936849897983
-1.909621310388966,2.3789333383478373,8.265307109613229,-0.674035714647087
-1.8858319770054877,2.477425925571932,8.258566752466757,-0.6532234960626196
-1.8610577177497682,2.5793585049657386,8.25203451750613,-0.6261994121573967
-1.835264132700111,2.684936118289287,8.245772523384556,-0.592735204842329
-1.808414771517218,2.7943373552292905,8.239845171336132,-0.552647453503545
-1.7804713979649252,2.907701799633094,8.234318696801097,-0.5058168199912509
-1.7513943799685943,3.0251149983710874,8.229260528601184,-0.45221141295173134
-1.7211432299848834,3.1465908890636682,8.224738414471666,-0.3919144469360276
-1.6896773210942468,3.2720518077233,8.220819270002306,-0.3251560845779176
-1.6569568030170139,3.4013064598152423,8.217567709156526,-0.2523489313985938
-1.6229437384188614,3.534026582639742,8.21504421984254,-0.17412609018088043
-1.587603472592464,3.6697234456338266,8.21330295894073,-0.09137998137122297
-1.5509062381361256,3.8077258032188515,8.212389159127017,-0.005299331701531518
-1.5128289801039372,3.947161385965035,8.212336165810003,0.08259910417709093
-1.473357366244287,4.086944422374958,8.213162156851773,0.1704482840141705
-1.4324879220205373,4.225771941950715,8.214866639691914,0.2560228118419362
-1.3902302026010303,4.362131633810582,8.217426867810333,0.33674994774836176
-1.3466088862629244,4.494323752740624,8.220794367287818,0.40974418927405976
-1.3016656487355183,4.620498939435408,8.224891809180559,0.47186889063493914
-1.2554606593411641,4.738712863506247,8.229610498086908,0.5198266829060372
-1.2080735307061017,4.846997360513031,8.234808764915968,0.5502781385393072
-1.1596035571009713,4.943446297624235,8.240311546301362,0.5599853213730961
-1.1101690941247289,5.026312846304278,8.245911399515093,0.5459737650554601
-1.059905965661686,5.09411322881341,8.251371137165647,0.5057032477840467
-1.008964833373552,5.145730401618144,8.256428169643486,0.4372347427766396
-0.9575075293573705,5.180509658480924,8.260800517071253,0.339378480102859
-0.9057024327725612,5.198337018543662,8.264194301872282,0.21180667250439825
-0.8537190625871246,5.199690915451605,8.266312368597326,0.05511481730909937
-0.8017221534326086,5.185658642039874,8.266863516770417,-0.12918169303103402
-0.7498655670122099,5.157911682523723,8.265571699840107,-0.3387231845537826
-0.6982864501869727,5.118638583082035,8.262184467994569,-0.5704526369411387
-0.6471000643561523,5.070439873432508,8.256479941625157,-0.8208230815881061
-0.5963956656218272,5.016195606906944,8.248271710809275,-1.0860452180714322
-0.5462337095527577,4.958920807755694,8.23741125862856,-1.3623486434037613
-0.4966445014752008,4.9016261429645205,8.223787772194523,-1.6462286740208778
-0.44762824004555557,4.847199853846472,8.207325485454314,-1.9346548308672877
-0.39915624150709084,4.798322803674301,8.18797893714564,-2.225225547350483
-0.3511730134703478,4.757422702616288,8.165726681672135,-2.516264206335036
-0.3035987864441849,4.7266677812478095,8.140564039608785,-2.806861571522848
-0.2563321086317068,4.707995759420225,8.112495423893556,-3.096877050079897
-0.20925215103750455,4.703171613661291,8.081526653392757,-3.386915172797735
-0.16222043490089164,4.7138674037703385,8.04765750166478,-3.678294501410049
-0.11508176086318825,4.741758809505226,8.010874556650679,-3.973024869973715
-0.067664172768136,4.788635380665582,7.971144307950942,-4.273806609318527
-0.019777818961480176,4.856524150263959,7.928406241857757,-4.584063096988676
0.028787422541159416,4.9478285595255365,7.88256561088787,-4.908015956035636
0.07826570813641479,5.0654857523562695,7.833485451327514,-5.250809929937859
0.12892056565997748,5.213143532521953,7.780977352028135,-5.618689703139686
0.18105200098519703,5.395349617488644,7.724790454996738,-6.019218044749503
0.23500549716008345,5.617720386587978,7.664598274549243,-6.461489744645929
0.2911827010259632,5.886990030973828,7.599983377102784,-6.956205282290951
0.3500526013357015,6.210676463386815,7.530421324279874,-7.51524195740442
