th1 (rad),w1 (rad/s),th2 (rad),w2 (rad/s)
3.248014089912409,-0.8721258444286392,4.447179443860919,-2.9542814253869327
3.2392928314681226,-0.8344574552829479,4.41763662960705,-2.8804732907783883
3.230948256915293,-0.8008071817245935,4.388831896699266,-2.80600317209207
3.2229401850980475,-0.7710721802385307,4.360771864978345,-2.7308943280210145
3.215229463295662,-0.7451476062364888,4.333462921698135,-2.655164180146674
3.2077779872332974,-0.722927102476021,4.306911279896668,-2.5788259417672545
3.2005487162085373,-0.7043031941452387,4.281123020478995,-2.501890081367473
3.193505684267085,-0.6891676093562075,4.256104119665321,-2.424365622707741
3.186614008173523,-0.6774115423315648,4.2318604634382435,-2.3462612845871766
3.179839892750207,-0.6689258747074136,4.208397850592371,-2.267586464498354
3.173150634003133,-0.663601368187488,4.185721985947388,-2.188352071701116
3.1665146203212577,-0.6613288393518986,4.163838465230377,-2.1085712167159665
3.1599013319277387,-0.6619993248404988,4.142752753063218,-2.028259765851424
3.1532813386793337,-0.6655042424978744,4.122470155404703,-1.9474367710735374
3.1466262962543547,-0.6717355514941771,4.102995787693968,-1.8661247872068314
3.139908940739413,-0.6805859120380633,4.084334539821899,-1.7843500900079934
3.1331030816190326,-0.6919488431883262,4.06649103892182,-1.7021428099475617
3.1261835931871493,-0.7057188755549877,4.049469610822344,-1.61953699744081
3.1191264044315994,-0.7217916944488454,4.033274240847936,-1.536570635668847
3.111908487487111,-0.7400642683584452,4.017908534491247,-1.453285616930304
3.104507844803526,-0.7604349575443154,4.003375678321944,-1.3697276976024284
3.096903495228083,-0.7828035980482961,3.9896784013459192,-1.2859464452491625
3.0890754592476,-0.8070715574922146,3.9768189368934275,-1.2019951892199305
3.081004743672678,-0.8331417606215843,3.964798985001228,-1.1179309833104027
3.0726733260664623,-0.8609186845409958,3.9536196751681243,-1.0338145858235341
3.064064139221052,-0.8903083258655892,3.943281529309889,-0.9497104588325318
3.055161055962396,-0.9212181444335116,3.933784424721564,-0.86568678479431
3.0459488745180607,-0.9535569906299386,3.925127556873621,-0.7818154951003538
3.036413304611761,-0.9872350256008471,3.9173094019226173,-0.6981723018990441
3.026540954355753,-1.022163645524001,3.9103276789036268,-0.6148367217943307
3.0163193179005128,-1.0582554225068384,3.9041793116856836,-0.5318920780203845
3.0057367636754444,-1.0954240754677227,3.8988603909054795,-0.4494254665836479
2.994782522920767,-1.1335844844287881,3.894366136239643,-0.3675276717862297
2.9834466780764792,-1.1726527609427861,3.8906908595217806,-0.28629301758043396
2.971720150467051,-1.2125463858748233,3.8878279293459763,-0.20581914337426305
2.959594686608303,-1.2531844234947453,3.885769737912234,-0.12620669616289584
2.947062842373356,-1.2944878178931494,3.884507670950605,-0.0475589350774827
2.9341179641944244,-1.3363797742534504,3.8840320815998304,0.030018750578591782
2.9207541664518897,-1.378786223683808,3.884332269105616,0.10641940326179888
2.9069663042150515,-1.4216363663664024,3.885396463138234,0.18153512689797238
2.8927499405513877,-1.4648632839743907,3.887211814407214,0.25525776671609735
2.8781013077116437,-1.5084046089035168,3.8897643920743747,0.32747961664106695
2.8630172616226086,-1.5522032351165422,3.8930391882407855,0.3980941276608342
2.847495229271443,-1.5962080535185899,3.897020129517394,0.46699658774571157
2.831533148736257,-1.640374693927033,3.901690095394851,0.5340847424470531
2.8151294017969866,-1.684666255953944,3.9070309428193215,0.5992593253395432
2.798282739237447,-1.729054012482584,3.913023536072717,0.662424468978897
2.7809921991126214,-1.7735180718082966,3.9196477807625056,0.7234879698908666
2.7632570183945386,-1.8180479877687905,3.9268826604614144,0.7823613850495593
2.7450765385168507,-1.8626433110892118,3.93470627431191,0.8389599420243146
2.7264501054059584,-1.9073140794550154,3.943095873732153,0.8932022501077475
2.707376964611408,-1.9520812482274623,3.9520278962332305,0.94500980490437
2.6878561521291333,-1.9969770679692416,3.961477994282274,0.9943062837052761
2.6678863814494407,-2.042045418817891,3.971421057119327,1.0410166332018362
2.647465927261262,-2.0873421150436027,3.981831223451345,1.0850659544829637
2.6265925061108257,-2.1329351957186407,3.9926818829961745,1.1263781926951133
2.6052631541536395,-2.1789052192222744,4.003945664923125,1.1648746402031236
2.583474101961417,-2.22534558026575,4.015594411325156,1.2004722626562019
2.5612206461587594,-2.2723628682342087,4.0275991339517185,1.2330818572153082
2.538497017476417,-2.320077284906168,4.039929952523871,1.2626060516024808
2.5152962446273555,-2.3686231380163,4.052556013039896,1.2889371519378072
2.4916100132471923,-2.418149424631165,4.065445384559275,1.3119548469650333
2.467428519000881,-2.4688205148108278,4.078564933028925,1.3315237767482904
2.442740313852773,-2.520816941350239,4.091880170796408,1.347490975868411
2.4175321444392703,-2.574336295242681,4.105355080555092,1.3596832053046988
2.3917887814868437,-2.6295942184569543,4.118951912608138,1.3679041944697188
2.365492839302274,-2.6868254750781007,4.132630954552836,1.3719318263979488
2.3386245845514932,-2.746285068040643,4.146350272816815,1.3715153162723357
2.311161733871087,-2.8082493505720874,4.160065425979539,1.366372458035989
2.283079240365366,-2.8730170578068828,4.173729150559899,1.3561870478960822
2.254349069787297,-2.9409101533233732,4.18729102103886,1.3406066396199705
2.2249399682540636,-3.0122743458784074,4.200697087435059,1.3192408475894672
2.1948172247952797,-3.0874790815238207,4.213889495910954,1.2916604928520885
2.1639424339800417,-3.1669167538196406,4.226806100839475,1.257397988146153
2.132273266441845,-3.251000798682125,4.239380080720937,1.2159494828357038
2.099763258455024,-3.3401622502342265,4.251539575549295,1.166779439208634
2.0663616359526817,-3.4348442315579106,4.263207369941381,1.1093284861164876
2.0320131936371024,-3.5354937445323205,4.274300654802546,1.043025587827786
1.9966582561917792,-3.6425500162447912,4.284730910680824,0.9673057604294268
1.9602327560293313,-3.756428573567124,4.294403968285118,0.881634738248779
1.92266847029366,-3.8775001801712152,4.303220315667605,0.7855420951279776
1.883893468491948,-4.006063821259044,4.311075736618885,0.6786642958876136
1.8438328302793574,-4.142313112557405,4.317862379577761,0.5607989054978149
1.8024096991537835,-4.286295902414385,4.323470368632739,0.43197061204293186
1.7595467401296396,-4.4378674890479655,4.327790074753168,0.29250871356429997
1.7151680652391599,-4.596638830104609,4.330715161888811,0.14313418880316642
1.6692016769381137,-4.761922373420571,4.332146503776843,-0.014947606794869839
1.621582453203908,-4.932679601875397,4.331997027708894,-0.17995510907494364
1.572255657185154,-5.107475870050271,4.330197476618145,-0.3494487764932736
1.5211808984846513,-5.284449312639227,4.326702988853213,-0.5202709993855626
1.468336405358259,-5.461301148521455,4.321500278859357,-0.6885207853790978
1.4137233938730445,-5.635314239398892,4.314615071005567,-0.8495762026937067
1.3573702514790555,-5.803405103729527,4.306119308978629,-0.9981753631215822
1.2993362004417603,-5.962211850656182,4.296137555347413,-1.1285623780459084
1.2397140819351986,-6.108217140800931,4.284851931566954,-1.234698706695551
1.1786319105271894,-6.237901975016942,4.272504944499999,-1.310533568973353
1.11625289077702,-6.3479234638910365,4.2593996088102655,-1.3503206459658412
1.0527736561381096,-6.435307942680577,4.245896402350607,-1.3489627965023983
0.9884205767113038,-6.497649487843133,4.232406774385583,-1.3023619555184272
0.9234440818328724,-6.533302255403929,4.219383154830399,-1.2077471898086451
0.8581110592788331,-6.541552395028185,4.207305682932312,-1.0639496399113788
0.7926955353285513,-6.52275171188922,4.196666186533198,-0.8715894027412379
0.7274680182096591,-6.478392195158832,4.187950292505786,-0.6331386022184745
0.6626840962580708,-6.411100641516878,4.181618906483601,-0.3528305342520143
0.598573089842902,-6.324538652243558,4.178090601141081,-0.03640003144882892
0.5353277033204664,-6.223206462312733,4.177726600826593,0.3093346957374672
0.47309563869733906,-6.11216741697063,4.180819947783967,0.6770081779687265
0.41197396452763274,-5.996728185073762,4.187590029563655,1.0592948263092592
0.3520066826768951,-5.882121331067875,4.198182977826748,1.4494677701813798
0.29318546936621637,-5.773236890080911,4.212677655528561,1.8418575409556748
0.23545310046540724,-5.674437895384973,4.231096230938118,2.232164193959514
0.1787087215115575,-5.58947593694105,4.253417872877714,2.6176109795426745
0.122813962142147,-5.521503630884893,4.27959398267314,2.996959895453442
0.06759892583329807,-5.473167144836295,4.309563581627675,3.3704308958997027
0.01286725438493512,-5.446756228155243,4.343267890586672,3.7395744911003925
-0.04160030789661731,-5.44439082199505,4.380663635497676,4.107144443487387
-0.09604421611656781,-5.468229635860708,4.421735079932549,4.477008264216674
-0.15072651247517488,-5.520694089394399,4.466505162574716,4.854122962417966
-0.20593345336911886,-5.604708224287585,4.5150463921988955,5.244594667364039
-0.26198053561199475,-5.723959304305055,4.567492338872536,5.655832999972789
-0.3192201286550453,-5.883181192020254,4.624050668872264,6.096799732413436
-0.3780519405752478,-6.088444355061931,4.685018666196398,6.578323165702978
-0.4389363841258671,-6.347379219862991,4.750801897853428,7.113371235361625
-0.502410176324497,-6.669103243705144,4.821935610207045,7.716962713442401
-0.5691012087615485,-7.0632160349382485,4.899105237341469,8.404836415436927
-0.6397333691109309,-7.536228053150446,4.983153601495838,9.188612298722832
-0.7150956496424354,-8.081614615105332,5.075039724483066,10.062145121526154
-0.7959117957934888,-8.656542600438412,5.175661175698328,10.96935510509311
-0.8824772217978729,-9.14192091361869,5.285354726749259,11.748776383267293
-0.9738964309340599,-9.324359145089227,5.402842490581932,12.108543837947584
-1.067140022384952,-9.022280119940955,5.523927928961408,11.802119249587662
-1.1573628235843616,-8.322027586788915,5.6419491214572846,10.95557551233343
-1.2405830994522506,-7.503322061191746,5.7515048765806185,9.960349606484526
-1.3156163200641682,-6.750579544739445,5.851108372645464,9.072131940643947
-1.3831221155115627,-6.110026159575853,5.941829692051903,8.35453715371775
-1.4442223771073213,-5.570728854372767,6.025375063589081,7.792873190901543
-1.499929665651049,-5.110406657695077,6.103303795498096,7.357558927464874
-1.551033732228,-4.708875736937084,6.176879384772745,7.022465775967975
-1.5981224895973707,-4.350266355093551,6.247104042532425,6.767799059804747
-1.6416251531483061,-4.022470710037221,6.314782033130473,6.579223488435046
-1.6818498602486784,-3.7162057199526526,6.380574268014823,6.446487352438532
-1.719011917448205,-3.424235395673188,6.445039141539208,6.3622650370326275
-1.7532542714049368,-3.1408210830553975,6.508661791909534,6.321286923147035
-1.7846624822354908,-2.8613662532131556,6.571874661141004,6.319687885019597
-1.8132761447676224,-2.5822150544600317,6.6350715399912,6.354494693693134
-1.8390982953122228,-2.3005753200557137,6.698616486928131,6.423187513623907
-1.86210404851278,-2.0145477376559553,6.7628483620643705,6.523287755099506
-1.8822495258893395,-1.7232482379330851,6.828081239615366,6.6519411892589755
-1.8994820082686703,-1.4270080245019037,6.894600651507956,6.805484537877533
-1.9137520885136894,-1.1276229108758127,6.962655496886731,6.979010107465687
-1.9250283176224474,-0.8285993756948378,7.032445597961387,7.165979565011564
-1.9333143113793958,-0.5353111680014686,7.104105393611503,7.357982735361868
-1.9386674230594105,-0.2549476503843593,7.177685220965122,7.54477794291003
-1.9412168995632542,0.0038745000182771605,7.2531330003942225,7.714759857652218
-1.9411781545630713,0.23192034071935339,7.330280598970744,7.8559422180078196
-1.9388589511558778,0.42053121174276864,7.408840021150822,7.957392989507679
-1.9346536390384501,0.5629947742804949,7.4884139510458985,8.010847514412912
-1.929023691295645,0.6557306495900865,7.568522426190028,8.01205357712721
-1.9224663847997443,0.698915872933478,7.6486429619613,7.961402948732855
-1.9154772260704096,0.6963439552878107,7.728256991448628,7.863629559698486
-1.9085137865175315,0.6545926573597639,7.806893287045613,7.726701839393757
-1.9019678599439338,0.5818091585753583,7.884160305439551,7.560307096959485
-1.8961497683581803,0.4864872327684102,7.959763376409145,7.37438238464649
-1.8912848960304962,0.37651313182939766,8.03350720025561,7.178008637261416
-1.8875197647122022,0.25859045181804546,8.105287286628224,6.978777215344155
-1.8849338601940218,0.13801533599282492,8.175075058781665,6.78257492173615
-1.8835537068340935,0.018703288988219713,8.242900807999026,6.593658235321505
-1.8833666739442114,-0.09664095689311936,8.308837390352242,6.4148837465196635
-1.8843330835131427,-0.20629652094299072,8.372986227817439,6.247993679990628
-1.8863960487225726,-0.3092974549611286,8.435466164617345,6.093894304215468
-1.889489023272184,-0.40523046001453494,8.4964051076595,5.952896647673245
-1.8935413278723292,-0.49406988148916314,8.555934074136232,5.824909666149861
-1.8984820266872209,-0.5760503040327045,8.61418317079773,5.709587411258926
-1.9042425297275478,-0.6515721737617146,8.67127904491032,5.606436818804647
-1.9107582514651649,-0.7211342525907317,8.727343413098366,5.514894119349469
-1.9179695939910721,-0.78528679560405,8.782492354291861,5.434377415940936
-1.9258224619471127,-0.8446001667921559,8.83683612845127,5.364321780330798
-1.9342684636150342,-0.899644637742984,8.89047934625458,5.3042018738327945
-1.9432649099924642,-0.9509780901165727,8.943521364992908,5.253545869153294
-1.9527746908936299,-0.9991391637420989,8.996056823684441,5.211943427691744
-1.962766082531051,-1.0446440349212849,9.048176257961359,5.179049679443854
-1.9732125228802637,-1.0879854858712013,9.099966754755798,5.154586529263622
-1.9840923777389756,-1.1296332593562681,9.151512620048434,5.13834213118834
-1.9953887103325383,-1.1700349052542676,9.202896041360317,5.130168987900805
-2.007089059385081,-1.2096164352748902,9.254197731239325,5.129980803588815
-2.01918522373783,-1.248782117777964,9.305497539275212,5.137747906006455
-2.0316730449156095,-1.2879126677124684,9.356875018335277,5.153490718405774
-2.044552171592734,-1.3273609099953452,9.408409925519335,5.177270363629943
-2.0578257806926876,-1.3674437041570162,9.460182629155634,5.209174978248756
-2.0715002177342576,-1.4084284968283445,9.512274378938121,5.249299662083823
-2.0855845027025413,-1.4505123066058296,9.56476737555896,5.297717157674912
-2.1000896257685997,-1.4937902623060193,9.61774454713571,5.35443535550468
-2.1150275283916598,-1.538210105535567,9.671288900690756,5.419336666492686
-2.1304096294470156,-1.5835085901450383,9.725482267355684,5.49209352686321
-2.146244715348466,-1.6291260350585617,9.780403202624315,5.57205456132065
-2.162535975699052,-1.6740975079745746,9.836123748237522,5.658098708799706
-2.1792769507787977,-1.7169250522942496,9.89270473532552,5.748462394363723
-2.19644620130174,-1.7554474483542888,9.950189359269157,5.840560968246776
-2.214000675785283,-1.7867441465921527,10.008594968951625,5.930852848356839
-2.2318681172512043,-1.8071363988072922,10.067903497435193,6.0148307405435695
-2.2499394812392772,-1.8123698282950251,10.128051804840629,6.087253503199091
-2.2680631795222275,-1.7980527820363121,10.188924339872619,6.14271925806528
-2.2860437073425905,-1.760350945706461,10.250351532453271,6.176580296841278
-2.3036472167996553,-1.6967952775260828,10.312117335421684,6.186005740596988
-2.320615169574916,-1.6069158686016498,10.373977392827653,6.170803070046787
-2.3366843282609326,-1.4924016447965927,10.43568542352812,6.133596116667704
-2.3516083447088985,-1.3566794706399794,10.497021384694797,6.079224527428099
-2.3651751394152982,-1.204095947087483,10.557813629969077,6.013623435248728
-2.3772160988861732,-1.0390498139260327,10.617949864321565,5.942658937028009
-2.3876065970254334,-0.8653601169855534,10.677376453691846,5.871300257581433
-2.396260198195289,-0.6859666133716653,10.73608945626766,5.80324788932312
-2.4031198643290055,-0.5029025869334596,10.794121935160891,5.74092602903793
-2.40814889019834,-0.3174232717738825,10.85153119545127,5.685675249936877
-2.411323122916079,-0.13018938490757126,10.90838794795064,5.638008235126516
-2.412625016765155,0.05855437811159661,10.964768030301904,5.597848879010238
-2.412039472984039,0.24883151692237773,11.020746519092008,5.564722709635468
-2.4095511578148154,0.44082155687924834,11.076393746188362,5.537894348354562
-2.405142942246023,0.6347791814448993,11.131772689671907,5.516459803820336
-2.398795150431574,0.8309775794422125,11.18693728771011,5.499404544712494
-2.390485374637152,1.029669244563365,11.241931333157236,5.485637464425052
-2.3801886821915184,1.2310588371182583,11.296787707801487,5.474008773676428
-2.3678780938203356,1.43528421024943,11.351527795538251,5.463317756653666
-2.3535252517178415,1.6424029741006843,11.406160973104788,5.4523146215944305
-2.337101221976835,1.8523829504055351,11.460684119320732,5.439699426702942
-2.3185773924727795,2.065095587072708,11.515081113587762,5.424120195247105
-2.297926436602052,2.2803119133986582,11.569322315540234,5.404171748499713
-2.275123317468066,2.497700973052678,11.623364033025231,5.378396389321988
-2.250146307737539,2.716830912632959,11.677147996918452,5.345287288735388
-2.2229779986112095,2.9371730541438033,11.730600869805805,5.303295207189794
-2.1936062680697717,3.158109355838069,11.783633821877704,5.250838980970024
-2.162025174511391,3.3789436764174274,11.836142211687404,5.186319993914463
-2.1282357377472167,3.5989172079521765,11.88800541162655,5.108140616860673
-2.092246565667695,3.817228337635618,11.939086817795156,5.01472632210224
-2.054074282291339,4.03305704362815,11.989234081016178,4.904550865715386
-2.013743711855058,4.2455937349270405,12.038279589673332,4.776163582572285
-1.9712877745057875,4.454072222880727,12.086041225499054,4.62821747012549
-1.9267470522769803,4.657806281005579,12.132323400200308,4.459496367208575
-1.8801689894669245,4.856229033417303,12.176918363872394,4.268939188400768
-1.8316066991327515,5.048934238050442,12.219607755756401,4.055658882307859
-1.7811173567522471,5.235718429609472,12.26016434457948,3.818953574628412
-1.7287601724561523,5.416622890629104,12.298353880325763,3.5583072641100495
-1.6745939435498614,5.5919745566871555,12.333936952966864,3.2733774865801775
-1.6186741979829897,5.762425256108506,12.366670727832666,2.963967565935457
-1.5610499454219047,5.928989143042276,12.39631040349202,2.629981438660089
-1.501760053991482,6.093078786552256,12.42261021787862,2.2713595740214116
-1.4408292661259594,6.256541061881316,12.445323813618835,1.8879952377775289
-1.3782638555071463,6.421694605251334,12.46420376599661,1.4796313575625029
-1.314046909454633,6.591370837125051,12.479000079572234,1.0457398278229282
-1.2481332010833825,6.768959818419788,12.489457477850463,0.5853879618041538
-1.1804436028991847,6.958459225650515,12.495311357468504,0.09710262104599232
-1.1108590106426797,7.164516900288433,12.496282383678963,-0.42124501418594484
-1.0392138416397954,7.392439245549293,12.492069933537104,-0.9724842075125275
-0.9652894491843024,7.648097709755657,12.48234509146198,-1.5600114993224103
-0.8888084720867458,7.937580380459,12.466744976468755,-2.187250808929097
-0.8094326682821559,8.266261711886816,12.444872468379463,-2.8562320142413666
-0.7267700511632877,8.636636000562524,12.41631014823705,-3.564353817046191
-0.6404036911576625,9.043759115892316,12.380666610066589,-4.297702566578366
-0.5499660999987394,9.466843156967686,12.337689584400806,-5.018917445941975
-0.4552976684290625,9.85733900965055,12.287500409941387,-5.650226925684192
-0.356724278332557,10.132421501828704,12.230998140684544,-6.064604437612045
-0.25540006331426995,10.198356294059673,12.170352096308424,-6.120189721726742
-0.15341650037367321,10.01717160096488,12.109150199091156,-5.757219318526316
-0.05324478436402441,9.652855884722342,12.051578005905892,-5.066144270573175
0.04328377448319902,9.220081871146146,12.00091656320016,-4.215451031499433
