th1 (rad),w1 (rad/s),th2 (rad),w2 (rad/s)
3.125658362398186,0.018029307522713763,2.719047484946958,-0.10598686606807012
3.125838655473413,0.047208054131888444,2.717987616286277,-0.17297342475479655
3.126310736014732,0.07638250964039257,2.716257882038729,-0.24002886740815405
3.1270745611111357,0.10558096369862585,2.713857593364647,-0.30722082693395497
3.128130370748122,0.13482926318870206,2.7107853850953076,-0.37461412047638615
3.129478663380009,0.16414983841475506,2.7070392438905437,-0.4422696119637991
3.1311201617641564,0.19356074962559794,2.702616547770906,-0.5102431085257984
3.1330557692604124,0.22307476082845892,2.697514116685648,-0.5785843020276845
3.135286516868697,0.2526984502530801,2.691728273665371,-0.647335770177891
3.1378135013712276,0.2824313695470201,2.685254915963592,-0.7165320552909608
3.1406378150666976,0.31226526662873133,2.6780895954106825,-0.7861988425614265
3.143760467732985,0.34218338985279856,2.670227606985068,-0.8563522632901197
3.147182301631513,0.3721598934669281,2.661664084352167,-0.9269983515145618
3.1509039005661825,0.40215936594476975,2.6523941008370215,-0.9981326844964378
3.15492549422563,0.43213650332862624,2.6424127739920573,-1.0697402380606857
3.1592468592589165,0.4620359488891186,2.6317153716114503,-1.1417954864309932
3.1638672187478076,0.49179231792995504,2.6202974167471402,-1.2142627726036916
3.168785141927107,0.5213304222503201,2.6081547890211034,-1.287096969212797
3.1739984461496102,0.5505657025751824,2.5952838193289756,-1.3602444412191663
3.179504103175362,0.5794048692998318,2.581681374916784,-1.4336443108051344
3.1852981518683605,0.6077467424952491,2.5673449318087327,-1.5072300120483837
3.191375619293313,0.6354832718174418,2.5522726316882487,-1.5809311090419018
3.1977304520114873,0.662500706470561,2.5364633205978295,-1.6546753371219927
3.204355459076193,0.688680875530805,2.5199165672266095,-1.7283908139296265
3.2112422678315014,0.7139025306282422,2.5026326590873134,-1.8020083563740452
3.2183812931377838,0.7380426970272917,2.484612575523573,-1.875463832304484
3.2257617201080566,0.7609779761936599,2.465857937200528,-1.9487004726901733
3.2333714998699934,0.7825857433703826,2.4463709324736262,-2.0216710718461184
3.2411973573036974,0.8027451875634111,2.4261542217551653,-2.0943400097455767
3.2492248091793314,0.8213381483650403,2.4052108216577093,-2.166685041269015
3.257438190662982,0.8382497136119937,2.383543971245019,-2.23869881145783
3.265820687799102,0.853368553135369,2.361156983130441,-2.31039007224969
3.2743543733304556,0.8665869758335647,2.338053082407944,-2.3817845933827186
3.2830202430887914,0.8778007090021248,2.3142352364741168,-2.4529257767820893
3.291798250178813,0.8869084094111228,2.2897059787062957,-2.5238749985604443
3.300667334272924,0.8938109243568979,2.264467228720691,-2.594711714831141
3.3096054435164928,0.8984103274116207,2.2385201115723796,-2.665533376260812
3.318589546790609,0.900608757702898,2.2118647778097715,-2.7364552014497927
3.327595634367638,0.9003070933785334,2.1845002257952735,-2.8076098609273923
3.3365987053014234,0.8974034897555061,2.1564241271859994,-2.8791471221386256
3.3455727401989783,0.8917918109695927,2.127632655964613,-2.9512335017944484
3.3544906583086744,0.8833599812699128,2.0981203209466686,-3.024051965936329
3.3633242581213736,0.871988279010168,2.0678798012873054,-3.0978017105815105
3.372044140911475,0.8575475934385122,2.0369017841814903,-3.172698047327171
3.3806196168458604,0.8398976621169182,2.0051748037082184,-3.2489724091159626
3.38901859346703,0.818885305714236,1.9726850796170587,-3.326872481644053
3.397207446524172,0.7943426775018474,1.9394163548006182,-3.406662455577669
3.4051508732991906,0.766085547629435,1.9053497302448417,-3.4886233835903
3.412811728775485,0.7339116477023054,1.8704634964089386,-3.573053613796018
3.420150845252508,0.6975991099306318,1.8347329602709785,-3.660269256788271
3.4271268363518144,0.6569050479056269,1.798130267703096,-3.750604626342952
3.4336958868308707,0.6115643437726543,1.7606242214396663,-3.844412572835683
3.439811530268597,0.5612887303144614,1.7221800957113096,-3.942064602251517
3.4454244175717417,0.5057662875594963,1.6827594496887943,-4.0439506407873065
3.450482080447337,0.44466151356313577,1.6423199432809212,-4.15047826368762
3.4549286955829683,0.3776161797608444,1.600815160644045,-4.262071155147792
3.4587048573805768,0.3042512446727475,1.5581944490925672,-4.3791665018077195
3.4617473698273042,0.22417017758653102,1.51440278407449,-4.502210943616058
3.4639890716031694,0.13696413755848735,1.4693806746383296,-4.631654611245649
3.4653587129787544,0.0422195629841972,1.4230641285258732,-4.767942668535399
3.4657809086085964,-0.06047114864204571,1.3753847018405192,-4.911503653600813
3.465176197122176,-0.17149505771048207,1.326269665304511,-5.062733779137017
3.463461246545071,-0.2911992519092399,1.2756423275131408,-5.221976223132
3.460549254025979,-0.4198655150926494,1.2234225652818207,-5.389494337389016
3.4563505988750522,-0.557677990141106,1.1695276219079305,-5.565437658484677
3.450773818973641,-0.7046827857022886,1.1138732453230837,-5.749799678539321
3.4437269911166184,-0.8607387144086468,1.0563752485376905,-5.9423665997064905
3.435119603972532,-1.025458870374469,0.9969515825406255,-6.142656861290419
3.424865015268787,-1.1981436795467597,0.9355250139277214,-6.349852219603891
3.4128835784733194,-1.3777075197199582,0.8720264917316825,-6.562722713193813
3.3991065032761196,-1.5626031150320459,0.8063992645997443,-6.779550065937233
3.3834804721257994,-1.7507506837464542,0.738603763940372,-6.998056978498348
3.365972965288335,-1.9394820990579382,0.6686231941553885,-7.215353149991517
3.3465781442977556,-2.1255136535185444,0.5964696626554733,-7.427912253049216
3.32532300776257,-2.3049635385090874,0.5221905401249811,-7.631596529844387
3.302273372377479,-2.4734305819130364,0.44587457482653725,-7.821745829618442
3.2775390665583486,-2.626147614718711,0.3676571165303528,-7.993344203530405
3.2512775904111613,-2.758214792152296,0.28772367449504876,-8.141268365838426
3.2236954424896385,-2.8649050277883275,0.2063109908366645,-8.260608324608432
3.195046392211755,-2.9420170029448656,0.12370490759058017,-8.347033166399214
3.1656262221823064,-2.986234793243498,0.04023457592658802,-8.397158509611966
3.1357638742498715,-2.9954423686438223,-0.043737009169531646,-8.40886212382022
3.105809450563433,-2.968941113828239,-0.12782563040773387,-8.381495615497926
3.0761200394251507,-2.9075313439724146,-0.21164058656271312,-8.315954693536414
3.0470447259854265,-2.8134423402790607,-0.29480013349807727,-8.214595427994368
3.018910302582636,-2.690123329643148,-0.37694608777802097,-8.081012157992278
2.9920090692862042,-2.541932027944433,-0.45775620935794376,-7.919716128620648
2.96658974900676,-2.3737714383003796,-0.5369533706441503,-7.73576654434243
2.942852034623756,-2.1907271023508192,-0.6143110360875745,-7.534405756999838
2.920944763600248,-1.9977477532987855,-0.6896550936575729,-7.320740125874837
2.90096728606726,-1.799396844905973,-0.7628624949163213,-7.099492417377028
2.8829733176182004,-1.5996857970655567,-0.8338574190900916,-6.874835358653489
2.8669764596475447,-1.4019858865802142,-0.9026057726766264,-6.650302676646398
2.8529566007817424,-1.2090064820840971,-0.9691087994430905,-6.428765306185699
2.8408665359609016,-1.0228229675104785,-1.0333964525049475,-6.21245646855495
2.8306383062857967,-0.8449372712996618,-1.095521017190497,-6.0030290326993
2.8221889335728,-0.6763560236823034,-1.15555130751749,-5.801630638484468
2.815425373335977,-0.5176746738955154,-1.2135676139023346,-5.608985240765527
2.810248626597022,-0.36915941755050113,-1.2696574663099898,-5.425473099375973
2.8065570324215168,-0.23082190887913215,-1.3239121973037495,-5.251204234007368
2.8042488133327255,-0.10248419311868023,-1.3764242396438233,-5.086082731978363
2.803223971401539,0.016166951616682856,-1.427285066963607,-4.929860999312457
2.8033856409177056,0.1255359418160631,-1.4765836769567315,-4.782184157673812
2.804641000335866,0.2260836195545532,-1.5244055185334697,-4.642625436449869
2.8069018365314116,0.3183005243259027,-1.5708317728979684,-4.510713720592129
2.8100848417746707,0.4026868744007638,-1.6159389101038897,-4.385954503521879
2.814111710518678,0.4797379936300212,-1.6597984551391085,-4.267845448143374
2.8189090904549783,0.5499340574490471,-1.7024769096205423,-4.155887640534935
2.8244084310294686,0.6137331973157515,-1.7440357860258917,-4.049593471988827
2.8305457630026263,0.6715671698327104,-1.78453172074578,-3.9484919315508527
2.8372614347009533,0.7238389510422111,-1.8240166400612885,-3.852131947579937
2.8444998242113755,0.7709217512382678,-1.862537959537088,-3.760084290116817
2.852209041723758,0.8131590592305505,-1.9001388024382562,-3.6719424383558774
2.8603406323160634,0.8508654181029695,-1.9368582268218149,-3.587322728887054
2.868849286497093,0.8843277092357329,-1.9727314541106853,-3.5058640288385448
2.8776925635894504,0.913806780300165,-2.0077900943990707,-3.4272271212278245
2.886830631392452,0.9395392987067291,-2.042062365611349,-3.351093945211074
2.8962260243795193,0.9617397469773519,-2.0755733050634597,-3.277166799126807
2.905843421849293,0.980602502776967,-2.1083449730547277,-3.205167587117716
2.9156494468770626,0.9963039655694863,-2.140396648925905,-3.134837168826597
2.9256124865327573,1.0090047054134597,-2.171745020614171,-3.06593485461845
2.935702533586892,1.0188516183399074,-2.202404369160355,-2.998238074662947
2.945891049770291,1.0259800778759414,-2.2323867499069845,-2.9315422379399863
2.9561508505490504,1.0305160742288044,-2.2617021722863844,-2.865660785950137
2.9664560112913385,1.0325783319420037,-2.2903587801458856,-2.8004254349837927
2.9767817946107584,1.0322803939348828,-2.3183630344957233,-2.735686589814609
2.9871045985501072,1.0297326551934558,-2.3457199003938696,-2.6713139004604
2.9974019251020416,1.0250443234965188,-2.3724330393984734,-2.607196922282729
3.007652368337007,1.0183252780288203,-2.3985050086213007,-2.5432458285330553
3.017835621117295,1.0096877902562438,-2.423937466906631,-2.4793921141303734
3.0279324990198577,0.9992480658308359,-2.4487313880479347,-2.415589220852285
3.037924979678166,0.9871275624481427,-2.4728872802564577,-2.3518130083013573
3.0477962553026474,0.9734540373971987,-2.496405410339471,-2.288061993108652
3.0575307956766196,0.9583622808334604,-2.5192860302705578,-2.2243572819138713
3.0671144184849544,0.941994497155551,-2.5415296030896966,-2.16074213250642
3.07653436345651,0.9245003075118196,-2.5631370244147607,-2.097281092448846
3.085779366531628,0.9060363611659689,-2.584109835339249,-2.034058685222656
3.094839730143288,0.8867655614388276,-2.6044504221914755,-1.9711776393865312
3.103707385757676,0.8668559319145859,-2.6241621985853407,-1.9087566846328365
3.112375945076822,0.8464791688277735,-2.643249765431669,-1.8469279675820809
3.1208407367650994,0.8258089440725072,-2.66171904510749,-1.7858341669382136
3.1290988262058246,0.8050190381652257,-2.679577386776872,-1.7256254095287802
3.1371490165874767,0.784281392122364,-2.6968336408721596,-1.6664561034715684
3.1449918305087,0.7637641705207455,-2.713498201906875,-1.6084818107042578
3.1526294722139077,0.7436299246527563,-2.729583020013918,-1.5518562778474227
3.1600657714604354,0.7240339351060695,-2.745101582792392,-1.4967287323803338
3.167306110811496,0.7051227984165948,-2.7600688701161955,-1.443241531899226
3.174357338795662,0.6870333042931711,-2.774501285435188,-1.391528230016224
3.1812276718385935,0.6698916301678807,-2.78841656773535,-1.3417120958192348
3.187926588140272,0.6538128603358786,-2.8018336886935424,-1.2939050973077202
3.194464716743631,0.638900819303487,-2.8147727396666196,-1.2482073350630265
3.2008537249366658,0.6252481943334071,-2.82725481301725,-1.2047068922525643
3.20710620688,0.6129369112390982,-2.8393018819397757,-1.1634800518776323
3.2132355759923907,0.6020387204324319,-2.8509366824585523,-1.1245918222634212
3.2192559631967153,0.5926159468579404,-2.8621826006811864,-1.0880967068996965
3.2251821226652946,0.5847223572462003,-2.8730635677501835,-1.0540396542017658
3.2310293462377566,0.5784041004086838,-2.883603964292201,-1.0224571256592938
3.2368133872418436,0.5737006803381978,-2.8938285355487943,-0.9933782261727455
3.242550394045226,0.5706459269649089,-2.903762317810522,-0.96682584717741
3.248256853314875,0.5692689349317765,-2.913430576282296,-0.9428177805782103
3.2539495426641927,0.5695949462036011,-2.9228587540880784,-0.9213677688882019
3.2596454921262286,0.5716461573541257,-2.93207243177696,-0.902486463786082
3.26536195369977,0.5754424367567901,-2.941097296414821,-0.8861822712640142
3.2711163780673376,0.5810019405189591,-2.9499591191274614,-0.8724620664597589
3.2769263974725273,0.5883416188188051,-2.958683739792059,-0.8613317651134264
3.2828098136607156,0.597477606369347,-2.967297057443193,-0.8527967414112838
3.288784589724409,0.6084254921364862,-2.975825024857306,-0.8468620838989893
3.294868844645774,0.6212004643039494,-2.9842936456962956,-0.8435326823366344
3.3010808492888133,0.6358173269601263,-2.992728972519662,-0.842813139036621
3.3074390225584147,0.6522903852515614,-3.001157103910028,-0.8447074986093183
3.31396192641093,0.6706331959935177,-3.0096041788961214,-0.8492187904013169
3.320668258370865,0.6908581811533112,-3.0180963668001346,-0.8563483785303851
3.3275768401823984,0.7129761024458243,-3.0266598505854385,-0.8660951156053861
3.3347066012068565,0.7369953967349235,-3.0353208017414923,-0.8784542982934563
3.3420765551742058,0.7629213742600657,-3.044105344724427,-0.8934164261980706
3.3497057689168064,0.7907552851428823,-3.0530395089864077,-0.9109657703752424
3.3576133217682353,0.8204932643926768,-3.06214916669016,-0.931078764547935
3.365818254412162,0.8521251718932583,-3.0714599543356393,-0.9537222409199461
3.3743395061310943,0.8856333516998299,-3.0809971767448388,-0.9788515435559849
3.3831958396480926,0.9209913443494312,-3.0907856921803987,-1.006408565505697
3.392405753091587,0.9581625965404273,-3.100849777835456,-1.0363197708492167
3.4019873790569912,0.9970992239558778,-3.111212975543948,-1.0684942789088394
3.41195837129655,1.0377408943710287,-3.1218979183330364,-1.102822103844854
3.4223357802402603,1.0800139083362312,-3.132926139371485,-1.1391726570949434
3.4331359193236226,1.1238305621819002,-3.1443178659424342,-1.1773936305355757
3.4443742249454417,1.1690888811355575,-3.15609180224779,-1.2173103824206062
3.456065113756797,1.2156728071937832,-3.168264906071996,-1.2587259435803337
3.468221841828735,1.2634529154759333,-3.1808521655077993,-1.3014217458215578
3.4808563709834943,1.3122877130625294,-3.1938663829660148,-1.3451591464945385
3.4939792481141194,1.362025545656242,-3.20731797443096,-1.3896817826023027
3.507599503570682,1.4125071008914298,-3.221214792256983,-1.43471873616525
3.521724574579596,1.4635684552582506,-3.2355619796186352,-1.4799884333389972
3.5363602591321786,1.5150445682429599,-3.2503618639520253,-1.5252031384234308
3.551510704814608,1.5667730872451582,-3.2656138953362595,-1.5700738471820093
3.5671784356870595,1.6185982952728213,-3.2813146338080794,-1.6143153390532394
3.5833644186397877,1.670375014965444,-3.2974577871986117,-1.6576511213684668
3.6000681687894422,1.7219722803649082,-3.3140342984122966,-1.6998179950766865
3.6172878915930915,1.7732766031295937,-3.3310324783630634,-1.7405699922124096
3.6350206576243873,1.8241946912066853,-3.3484381782851873,-1.7796814784771078
3.653262604536454,1.874655521688893,-3.366234993069958,-1.8169492746779496
3.672009159753343,1.9246117203739441,-3.384404485816738,-1.8521937208985875
3.6912552769570826,1.9740402523971503,-3.4029264230257237,-1.885258678701835
3.710995679481054,2.0229424755248724,-3.421779009812742,-1.9160105313948044
3.731225104236303,2.0713436457966226,-3.44093911512669,-1.9443362941508457
3.7519385406942694,2.119291991465437,-3.4603824780681984,-1.9701409807945804
3.7731314606089237,2.166857484799739,-3.480083887876144,-1.9933443912226365
3.794800035456921,2.2141304431554336,-3.5000173317883707,-2.013877484040594
3.816941339888475,2.261220082906034,-3.5201561066287765,-2.0316784860568005
3.839553540717535,2.3082531350833624,-3.5404728914893444,-2.0466888677245416
3.862636072068369,2.3553726127955406,-3.56093978016659,-2.0588492855855476
3.886189798196324,2.4027368002104352,-3.581528273022445,-2.0680955629715005
3.910217166198428,2.4505185131152927,-3.60220922865216,-2.0743547516681753
3.9347223513295813,2.498904663110799,-3.622952776168842,-2.0775412920912104
3.9597113979606893,2.5480961420363015,-3.643728189089754,-2.0775532691183143
3.985192359381052,2.598308030345369,-3.664503721780937,-2.074268745792366
4.011175439684505,2.649770122491743,-3.685246409238861,-2.067542147962042
4.037673140909423,2.7027277532324785,-3.705921830718481,-2.057200669686161
4.064700418441747,2.757442900135738,-3.726493837415343,-2.0430406720509646
4.092274847443105,2.814195528317368,-3.7469242441358523,-2.024824057312161
4.120416802726279,2.873285132158092,-3.767172484708974,-2.002274616733674
4.14914965404786,2.9350324139082526,-3.7871952308763106,-1.975074375430897
4.1784999781869425,2.9997810188752903,-3.8069459746306196,-1.942859992854495
4.208497788375696,3.067899219247747,-3.8263745745591646,-1.9052193259211072
4.239176780568173,3.1397814011837775,-3.845426767818376,-1.8616883266478574
4.270574594580011,3.2158491599581684,-3.864043651084854,-1.8117485316862636
4.302733086179592,3.29655174294236,-3.8821611364017166,-1.7548255121984908
4.335698603609016,3.3823654973338044,-3.8997093915237016,-1.690288794107439
4.369522258582354,3.473791876863734,-3.916612279464776,-1.617453935324044
4.404260177350991,3.5713534388002572,-3.9327868188180166,-1.5355876605356307
4.439973711738993,3.6755871221104033,-3.948142695423373,-1.4439172036033585
4.476729582960098,3.7870339476129793,-3.9625818674594067,-1.3416452827402778
4.514599922436227,3.9062241375928384,-3.975998320286809,-1.2279724116921944
4.553662163812156,4.033656543900073,-3.988278044403731,-1.1021284890430307
4.593998729251156,4.169771244138061,-3.9992993292941614,-0.9634157388713172
4.635696441692537,4.314914277891373,-4.008933486682874,-0.811264997897898
4.678845584471451,4.469293829671208,-4.017046136661853,-0.6453069212846891
4.7235385227681626,4.632927812912134,-4.0234992058747,-0.46545875031725126
4.769867800897284,4.805583850765217,-4.028153793377872,-0.2720256911584674
4.8179236394049365,4.9867141205845416,-4.030874050289457,-0.06581359036754292
4.867790780610782,5.175389371093511,-4.031532186193132,0.15175350896073012
4.919544674321717,5.37023842608633,-4.030014651103525,0.3785209240587635
4.97324705858258,5.569401264033007,-4.026229441862938,0.611509477760614
5.028941071222911,5.770504756287572,-4.0201143470853316,0.8468562149410357
5.0866461187857865,5.970669763165775,-4.011645784935921,1.0798061653511288
5.146352816417444,6.166556113231959,-4.00084772328241,1.3047692247535234
5.208018377549764,6.354448063581023,-3.987800031034875,1.515450640252952
5.2715628581855745,6.530377829599069,-3.9726455246323455,1.7050554872042623
5.336866636481565,6.69027992571065,-3.955594969760303,1.86655857636195
5.403769435738671,6.830165795671428,-3.9369293839966835,1.9930236173675593
5.472071093695385,6.946307504744681,-3.9169991478230077,2.0779510101108314
5.5415341687428326,7.035421072257593,-3.8962196377218996,2.1156328798159096
5.611888379465409,7.094843109753512,-3.8750633089237407,2.1014957588432353
5.682836810562944,7.122696780440068,-3.8540483513353085,2.032413224647797
5.754063778367344,7.118042774318008,-3.8337242190888308,1.906970337968793
5.825244206110525,7.081007142145368,-3.814654515709143,1.7256578218981244
5.896054277531978,7.012871399558332,-3.7973979374901616,1.4909680604060684
5.966182991527561,6.916104178688522,-3.782488256886101,1.207361325679633
6.035344033314447,6.794311944021395,-3.7704146436293047,0.881074712499162
6.10328715275466,6.652092541563724,-3.761603896504313,0.5197623606005775
6.1698080781702975,6.4947906889225155,-3.756406272898307,0.1319835679186449
6.234755985059523,6.328175861435145,-3.755086437219121,-0.2734110949078007
6.298037743673874,6.158083454597177,-3.757820548168199,-0.6879180405747807
