th1 (rad),w1 (rad/s),th2 (rad),w2 (rad/s)
2.168714789843143,-1.7430835540515108,3.162243028384636,2.351325674573591
2.151283954302628,-1.803522423911778,3.1857562851303722,2.360873004735316
2.13324873006351,-1.863276781651233,3.2093650151777253,2.3677729731867694
2.1146159622469978,-1.9225053750421452,3.233042744909593,2.3719723284294996
2.0953909084965763,-1.9813811536650952,3.256762468193888,2.373413853436204
2.0755770969599254,-2.040090294341829,3.2804966067282497,2.3720326166568046
2.055176194016507,-2.0988315046443673,3.3042169328948177,2.3677523150563355
2.0341878789700636,-2.157815627699546,3.327894456045381,2.360481720935045
2.012609722693068,-2.2172655564395187,3.3514992732547317,2.3501112268388016
1.9904370671286726,-2.277416452878664,3.3750003855231197,2.3365094709610474
1.967662902599886,-2.3385162574499008,3.39836548023273,2.319520019293796
1.944277740025387,-2.400826464125535,3.421560680425668,2.2989580805064684
1.9202694753841316,-2.46462312797299,3.444550261230733,2.2746072352890456
1.8956232441044016,-2.5301980617766016,3.4672963335836235,2.2462161740959465
1.8703212634866355,-2.5978601660655456,3.489758495324583,2.213495456644488
1.8443426618259802,-2.667936820845565,3.5118934498910277,2.1761143344077256
1.8176632936175245,-2.740775245893344,3.533654593235105,2.13369771550025
1.7902555411585912,-2.816743707818102,3.5549915703901074,2.0858234021857127
1.7620881040804102,-2.8962324142520464,3.5758498044119644,2.0320197977127537
1.7331257799378896,-2.9796538864541557,3.596170002389092,1.9717643647508019
1.703329241073348,-3.0674425393723164,3.6158876460366,1.9044832259714433
1.6726548156796248,-3.160053121360194,3.6349324782963146,1.8295524315637146
1.641054284466023,-3.2579575739445374,3.653228002611952,1.7463015806219715
1.6084747087265776,-3.3616397670327745,3.6706910184181716,1.65402067247364
1.57485831105625,-3.4715874520314243,3.687231225142908,1.5519712739792608
1.5401424365359357,-3.5882806653428485,3.702750937882701,1.439403304973149
1.5042596298825073,-3.712175726479209,3.7171449709324325,1.3155789388279089
1.467137872617715,-3.8436839381635637,3.7303007603207115,1.1798052433331168
1.4287010332360794,-3.983144152779018,3.7420988127540427,1.0314771809488934
1.3888695917082892,-4.130788576085442,3.7524135845635316,0.8701323545826516
1.3475617059474347,-4.286701600354621,3.761114908109358,0.6955183117398654
1.3046946899438885,-4.450772158649017,3.7680700912267566,0.5076721857314813
1.2601869683573983,-4.622641111384338,3.7731468130840713,0.3070108605480841
1.213960557243555,-4.801646503204957,3.776216921689552,0.09442767211390904
1.1659440922115054,-4.9867710574659725,3.777161198410691,-0.12861098238495103
1.1160763816368457,-5.176597775462415,3.7758750885868415,-0.3599785450036189
1.0643104038822215,-5.369280612386715,3.7722753031368055,-0.596822508926956
1.0106175977583545,-5.562537459778081,3.766307078047536,-0.835532976574099
0.9549922231605736,-5.753671657473353,3.757951748281795,-1.0717579103460968
0.8974555065858401,-5.939625787471777,3.747234169178334,-1.3004742921952712
0.8380592487111223,-6.117067772410962,3.7342294262563813,-1.516118883918423
0.7768885709870126,-6.282505005714875,3.719068237417197,-1.7127751806118345
0.7140635209298638,-6.432418443093962,3.701940485611079,-1.884405984529989
0.6497393364989241,-6.563406379527194,3.683096425765779,-2.0251155577190962
0.5841052727036522,-6.672327689128684,3.662845270188588,-2.129422877474817
0.5173819958123653,-6.756436502044024,3.6415510414138397,-2.1925284206994795
0.44981763079192505,-6.81350368382336,3.619625757206845,-2.2105601924768905
0.3816825939536914,-6.841923602694973,3.597520155282076,-2.1807885351567426
0.3132633579267417,-6.840806098141936,3.5757122699305084,-2.101801629299716
0.24485529694532232,-6.810052502051549,3.554694253637511,-1.9736333220227067
0.17675477192480682,-6.750411217902816,3.534957920417284,-1.797832204922725
0.10925065974577865,-6.66350401460468,3.516979598368057,-1.5774574905712642
0.042615619599731855,-6.551810913623729,3.501205023462344,-1.3169860848097357
-0.022902489536505435,-6.418601582056644,3.488035162614247,-1.022119264879657
-0.08708850535707188,-6.267806008709207,3.4778139699654504,-0.6994881467980738
-0.14976656544416395,-6.1038268325065355,3.47081908849747,-0.3562736313165687
-0.21080483376922932,-5.931307840491064,3.4672563521843043,0.00022529876624527434
-0.27011791217413994,-5.754884075755163,3.467258605171967,0.363027199150384
-0.32766675293169156,-5.578944742034422,3.4708888771634707,0.725855944870945
-0.38345620035203576,-5.40743835030305,3.47814743661218,1.0834370393310002
-0.43753058385506627,-5.243740810924771,3.48898180700549,1.4316769009278625
-0.48996799196431395,-5.090594475367745,3.5032985760147684,1.7677218492379847
-0.5408739367179914,-4.950113573313084,3.520975794507148,2.0899133314679457
-0.5903750724511223,-4.823842417943041,3.5418749278218273,2.3976685617268414
-0.6386134966305527,-4.712848639324449,3.565851613439096,2.6913197677070526
-0.6857419830237972,-4.617834138009698,3.5927648111161665,2.9719421632078116
-0.7319203244038942,-4.539249875200835,3.6224842327482447,3.241193588544339
-0.7773128231559026,-4.47740525322496,3.6548961686336883,3.5011804707344414
-0.8220868756881522,-4.432567305611685,3.6899079733410325,3.754357427020652
-0.8664125487442691,-4.4050484229253355,3.727451547611239,4.003462419774083
-0.9104630329735225,-4.395283599266103,3.76748617180898,4.251485908730106
-0.9544158689661835,-4.4038991640906024,3.810001030896281,4.501670393136851
-0.9984548606070895,-4.431774623755105,3.8550177348276495,4.757535175775194
-1.0427726068446406,-4.4800972422326435,3.9025930865854015,5.022918806429297
-1.087573579266967,-4.550404336749193,3.9528222746496944,5.3020264274403015
-1.133077622634459,-4.644598640477819,4.005842538924098,5.599457509723564
-1.1795236090392371,-4.76490268843303,4.061837114021333,5.920164315694283
-1.2271726359235675,-4.913679626973979,4.121038757178276,6.269239658654659
-1.2763094321933073,-5.092973187870889,4.183731153764823,6.65133038809142
-1.3272391640720163,-5.303483304630236,4.250244457645737,7.069284536201875
-1.3802739971183187,-5.5424779866129406,4.320937303007756,7.521338892486294
-1.435698776984448,-5.799924833625679,4.396150691932618,7.995846257116504
-1.4936980253207048,-6.052384684086573,4.476109154503783,8.462889592988535
-1.5542218721615706,-6.256425828482078,4.5607380504336685,8.865195527330338
-1.6167861304463913,-6.3495511864708645,4.649390005706972,9.119419623398535
-1.6802816423111,-6.272573160627569,4.740584201940957,9.147115545111351
-1.7430073739173757,-6.011378745725967,4.832055357392071,8.93235419608474
-1.8031211613746354,-5.6151007048830355,4.921378899352918,8.546152205956515
-1.8592721684234657,-5.160294508960905,5.006840421412483,8.096117305512932
-1.9108751135130748,-4.705351192815761,5.087801594467613,7.663505187588468
-1.9579286254412325,-4.278287923482877,5.164436646343497,7.2871071606469755
-2.0007115046760613,-3.886495625429298,5.2373077179499665,6.977320191868326
-2.039576460930354,-3.5277436421848694,5.30708091986865,6.731570546625541
-2.074853897352203,-3.196482694839097,5.374396625334905,6.543031103354051
-2.106818724300594,-2.886612433908356,5.439826936368445,6.404391320279978
-2.1356848486396776,-2.592484675237165,5.5038708495712445,6.309184999973554
-2.161609695392049,-2.309164774929473,5.56696269957098,6.252101365042104
-2.184701343141344,-2.032418427459319,5.629483713221401,6.228922994523715
-2.205025527415937,-1.7586167375599249,5.6917729431666375,6.236351605020953
-2.2226116947915364,-1.4846336861478127,5.754136459216847,6.271818462836076
-2.2374580316530146,-1.2077619250633451,5.816854643845208,6.333310067110104
-2.249535650903648,-0.9256542957683445,5.880187744516308,6.419214518204768
-2.2587921938613316,-0.6362918906892158,5.944379889698356,6.528185265621504
-2.2651551127682237,-0.33797748262861443,6.009661742354571,6.659016737627328
-2.2685348875945097,-0.029352665522701327,6.0762519097308445,6.810526751856814
-2.268828414249737,0.29056323951765234,6.144357177249413,6.981442136416512
-2.2659227818545604,0.6223151691377553,6.214171598613578,7.170286203735396
-2.259699630163183,0.9659392973611969,6.285874460650931,7.375269537032147
-2.250040237189571,1.3208814391819315,6.3596271560212525,7.594188958821589
-2.2368314227977515,1.6859164553145776,6.435569045609468,7.824343404324707
-2.2199722582446055,2.0590818557119106,6.5138124796527155,8.06247927051973
-2.1993814396874862,2.437642130595966,6.594437272357913,8.304780775002367
-2.1750050183815266,2.818102150057958,6.677485080107937,8.54692160941105
-2.146823996880947,3.196286693395373,6.7629542962020475,8.784191135142459
-2.1148611299469935,3.5674973018712293,6.850796207553472,9.011700254444017
-2.079186156928281,3.926746520526846,6.9409132100979125,9.224658732284968
-2.0399186917230128,4.269054225774813,7.033159797420762,9.418698973147732
-1.9972281494652646,4.5897743544561544,7.12734678715224,9.590205228811099
-1.951330405920703,4.884907953877578,7.223248839440351,9.73659758225856
-1.9024813263819274,5.151355140797905,7.320614815262936,9.85652181973173
-1.8509677749739484,5.387067029904837,7.419180033460253,9.949911134597318
-1.7970971046749,5.591077524414558,7.518679144806226,10.017910219079084
-1.7411863294307544,5.763418514537014,7.618858246997017,10.062679276897152
-1.6835521442853842,5.904943167355658,7.719485039765988,10.087116451307349
-1.6245027126118277,6.017094735662532,7.8203562042790615,10.094546504019707
-1.5643317652552022,6.10166053255536,7.921301669319258,10.088420556420868
-1.5033151599296486,6.160544190887344,8.022185874883467,10.072059867454021
-1.4417097180207752,6.195578100184187,8.122906473558007,10.048461415036442
-1.3797539370189333,6.208386167213845,8.223391087708372,10.020169257576269
-1.317670075346795,6.200297623838664,8.323592780284134,9.989205990544816
-1.2556670991084082,6.1723066221728935,8.423484840189582,9.957053636307487
-1.1939440328866793,6.125069587540536,8.523055376552657,9.92467214352133
-1.132693337011274,6.058931837479901,8.62230209798787,9.89254490533426
-1.072104018636475,5.973975785075131,8.721227547041213,9.860742988739394
-1.0123642607857237,5.870084279265146,8.819834976928608,9.829002120507988
-0.9536634179930723,5.747013739943378,8.918124998133687,9.796808325957864
-0.8961932805936386,5.604472449025608,9.016093081393265,9.763489227838487
-0.8401485561033825,5.442199609399764,9.11372797367165,9.728308382670564
-0.7857265600093848,5.260040688850654,9.211011057498357,9.690559815531154
-0.7331261531208783,5.058014334014734,9.307916655653669,9.649659364494429
-0.6825460097807309,4.836366026613891,9.404413249298614,9.605228868548274
-0.634182349514592,4.595603908783903,9.500465537984097,9.557168938821599
-0.5882263104267529,4.336513005557592,9.596037227372312,9.50571630240333
-0.5448611803711769,4.060145475110767,9.691094390396346,9.451482650816565
-0.5042597256200693,3.7677864165657047,9.785609216904511,9.395473555244662
-0.4665818614544122,3.4608969007040056,9.879563952456959,9.3390881531789
-0.43197289244737214,3.1410378947654154,9.972954833988748,9.28410265676599
-0.400562513499718,2.8097802436070274,10.065795860556408,9.23264291507054
-0.3724647110636477,2.468606540606257,10.158122289707114,9.187152957081652
-0.34777864565758515,2.1188104246879997,10.24999381927793,9.150367459389065
-0.32659054141070515,1.7613976141328265,10.341497493871822,9.125296415247394
-0.3089765652693769,1.3969910372943657,10.432750458024296,9.115230100137541
-0.29500665489643324,1.02574005442021,10.523902759025672,9.123772017851817
-0.28474925435223114,0.6472313400005603,10.61514047920419,9.154907164639098
-0.27827694095222555,0.26039690854203745,10.70668955085058,9.213112818101898
-0.27567297186680517,-0.13658642693593148,10.7988206790316,9.303518901054277
-0.2770388361361645,-0.5464110889537197,10.891855868042143,9.432123641517205
-0.28250294702570167,-0.9727658699816997,10.986177104457315,9.606064485775793
-0.2922306057255187,-1.4204596603256752,11.082237749315073,9.83392567077402
-0.3064352023287754,-1.8954829961460833,11.180577006022814,10.126011770931308
-0.3253900322902362,-2.4048430668457628,11.281837123732126,10.494380100596645
-0.34943846295869385,-2.955751439431849,11.386780924738092,10.952083109474192
-0.3789959773530123,-3.5531458262090454,11.496301755832834,11.510257537170524
-0.4145274356151028,-4.193259912034907,11.61140433120454,12.169940680773479
-0.4564600347354519,-4.848946728179203,11.733103738012275,12.902646709552496
-0.5049495020172439,-5.442628192752417,11.8621302051078,13.613725196824916
-0.5593757839447681,-5.819625742154101,11.998267457076048,14.105355867347278
-0.617572041366309,-5.788664115611283,12.139321015749521,14.13007851729102
-0.6754586825224219,-5.292415074369573,12.280621800922432,13.619943294004383
-0.7283828332661176,-4.505764353158754,12.416821233862477,12.81348571529637
-0.7734404767977052,-3.6519026263688295,12.54495609101544,12.002256995842819
-0.8099595030613935,-2.8432658132480304,12.664978660973867,11.32269928885711
-0.8383921611938738,-2.1045576227817544,12.778205653862438,10.795083772183803
-0.8594377374216914,-1.427814751086319,12.886156491584275,10.39945998136382
-0.8737158849325546,-0.7984596073199742,12.990151091397914,10.109620178191252
-0.8817004810057544,-0.2033199310918219,13.091247293179826,9.902548513333409
-0.8837336803166725,0.3677027010724697,13.19027277831316,9.759680316583498
-0.8800566533059478,0.9217279059966202,13.287869581478995,9.666109473097057
-0.8708393742459817,1.4633414204776594,13.384530676209966,9.609544626196863
-0.8562059600412051,1.9950191731350835,13.480626122471934,9.579450929250012
-0.8362557683098543,2.5174678932157795,13.576420631764433,9.566437090095254
-0.8110810893776965,3.0299014969829834,13.672085002665385,9.561859661313672
-0.7807820744078667,3.5302872731026564,13.767703599278523,9.557605457662559
-0.7454792016768401,4.015591028876124,13.863279653855148,9.546017254570156
-0.7053232913880789,4.482039511110148,13.95873982640085,9.51993122093003
-0.6605028962769774,4.925405678929054,14.05393913861015,9.472794120759238
-0.6112488394876869,5.341309802641171,14.148667079817743,9.39882576064251
-0.5578357414612752,5.725518920286352,14.242655337424168,9.29319038329903
-0.5005805522584117,6.074221039107385,14.335587241257159,9.152142523171232
-0.43983834186733783,6.384250178940213,14.427108666488872,8.973119842124285
-0.37599584007793574,6.653244090786016,14.516839864910114,8.754767290883182
-0.3094633991700756,6.879726675942598,14.604387537818946,8.496891250270066
-0.2406661324106496,7.063118851831301,14.689356450321647,8.200355588700022
-0.1700349438923366,7.203691590988032,14.771360006208647,7.866940514260823
-0.09799802798245627,7.302480644778846,14.850029411351256,7.499187827479323
-0.0249732215346678,7.361183156408904,14.92502128962605,7.100252825817961
0.04863861002942124,7.382052677888339,14.99602381788423,6.6737755197916675
0.12245913680830463,7.367802811732241,15.062761573082147,6.223774695875317
0.19613716492562705,7.32152288748977,15.1249993200409,5.754560313068976
0.2693523938005248,7.246603512265359,15.182544923171589,5.270654598976147
0.3418184289231784,7.146666580155368,15.23525146916135,4.776710837847888
0.41328509472473207,7.025493709692193,15.283018577539828,4.277421044552315
0.483540031821654,6.886948764730642,15.325792787985351,3.777408536231454
0.5524095194689604,6.73489329178909,15.363566873347667,3.2811073911052775
0.6197584523868513,6.573097319407689,15.396377947258719,2.7926363083335923
0.6854894255809283,6.405150969086165,15.424304310342055,2.315678056767585
0.7495409352717899,6.234383944369736,15.447461090909732,1.8533766818108384
0.8118847747154873,6.063799864576345,15.465994857727841,1.408262843128439
0.8725227733612507,5.8960307602233675,15.480077486159125,0.9822137288177321
0.9314830809634844,5.733314407438582,15.489899623447302,0.576449060072657
0.9888162250378703,5.577494280091972,15.49566411404803,0.19155998509840433
1.04459116783879,5.430039405047011,15.497579713899013,-0.17243588356001188
1.09889156188926,5.292079742826961,15.495855355063412,-0.5160219290429375
1.1518123593175298,5.16445201248536,15.490695135772983,-0.840101383395113
1.2034568794423834,5.047751016676304,15.48229412193903,-1.1459154460034253
1.2539343896091464,4.942382237585421,15.470834967478996,-1.43496675030632
1.3033582119850007,4.848612466162051,15.456485299975933,-1.7089521981828337
1.3518443366466213,4.7666162340349825,15.439395777994104,-1.9697072013640107
1.399510498986971,4.6965166486885055,15.419698705980464,-2.2191616602546573
1.4464756654738562,4.638419764360514,15.397507089377918,-2.459306599418982
1.4928598631174614,4.592441770655064,15.372914023383728,-2.6921691606835756
1.538784280824012,4.558727967151174,15.345992331776893,-2.919792416864963
1.5843715604955237,4.537461593268975,15.316794407608244,-3.144214896079842
1.6297461764282135,4.528858889484508,15.285352258647446,-3.367442359941616
1.6750347653230586,4.533143940274755,15.25167783504803,-3.5914006604702817
1.7203662047258061,4.5504924053380975,15.215763828443327,-3.8178526352722684
1.765871128779187,4.580926633273463,15.177585302090604,-4.048253149472691
1.8116803951119216,4.624135645192661,15.137102770595877,-4.283504189041779
1.8579217515638482,4.679183363965849,15.094267728705459,-4.523558112196609
1.9047135852035066,4.744063028052759,15.049032147583493,-4.766809808698922
1.9521542154840343,4.81507132716279,15.001364049496503,-5.009240425377236
2.0003049287556625,4.8860480464417275,14.95127164524273,-5.243376246038147
2.04916540922008,4.947711012539563,14.898837882782349,-5.4573832684187575
2.0986425193454754,4.987638715774579,14.844264050098161,-5.635068253283738
2.148518906503221,4.9917529416895325,14.787913367565324,-5.757974160879518
2.1984364359201165,4.9478799028787845,14.73033362595653,-5.810369588475327
2.247915234948904,4.850491991150108,14.672229930071776,-5.785860714725442
2.2964201548604053,4.703759291941534,14.614371322924521,-5.691599641815276
2.3434577477798206,4.520230081340797,14.557455326506368,-5.546355946491071
2.388660048593229,4.3158484531273515,14.501991767041456,-5.373485656007889
2.431818533124502,4.104873909394611,14.448256910481378,-5.19381586157414
2.472867272218448,3.8973184822174423,14.396318751865637,-5.022095457773194
2.5118404570406225,3.698857354983674,14.346097797287905,-4.866921020894744
2.548829030590459,3.511907118883581,14.297428587078958,-4.732289761308745
2.5839481017792947,3.3368347153876146,14.25010568946587,-4.61932278603871
2.617316448933171,3.1728782940702334,14.203912461605483,-4.527574852994766
2.649045231873873,3.0187353221406497,14.158636713075536,-4.455871847929083
2.6792325850952796,2.8728995649493823,14.114077994596245,-4.402793055570717
2.7079615807447732,2.7338377121799575,14.070050064040538,-4.36692697209745
2.7352999578665727,2.600072457038873,14.026380794319564,-4.346995056265855
2.7613006824369615,2.470214245222978,13.982910843756907,-4.341902910685632
2.786002824889191,2.342966410908532,13.93949181465005,-4.350753595294086
2.8094324889982762,2.2171175450612908,13.89598427869711,-4.372842354352024
2.831603664448889,2.091528633937765,13.85225585515359,-4.407643036935685
2.8525189507882667,1.9651190017115197,13.808179424784234,-4.45479140679564
2.8721701408053817,1.8368532208113402,13.763631510716277,-4.514067708377996
2.890538673013495,1.7057302137790538,13.718490833632497,-4.585379278553909
2.9075959751512856,1.5707753597103382,13.672637040846958,-4.668743089202403
2.923303728748389,1.4310363140168478,13.625949609954933,-4.764267547260004
2.9376140918885576,1.285583330932261,13.578306934482333,-4.8721324840327584
2.95046992519788,1.1335150768383697,13.529585609642005,-4.992565935805257
2.961805075966264,0.9739711977232386,13.479659950283953,-5.125816005582306
2.9715447879434964,0.8061532207029196,13.42840179022813,-5.272115790600235
2.9796063201505256,0.6293556826017213,13.375680632322126,-5.431639086180616
2.985899876976543,0.44300961749756557,13.32136424146032,-5.604444398890717
