th1 (rad),w1 (rad/s),th2 (rad),w2 (rad/s)
5.119917969288292,0.4646395748666733,3.637634869023084,-2.127192861284091
5.124564365036959,0.5301769378748141,3.616362940410243,-2.0841928112583705
5.129866134415708,0.5969345085743395,3.5955210122976595,-2.0407642486794177
5.135835479501451,0.6649052087171216,3.5751133698108655,-1.996707426976517
5.1424845315886225,0.7340903641051018,3.5551462955411,-1.9518169310201172
5.1498254352296735,0.8044996773931066,3.535628126230899,-1.9058812698356007
5.157870432003604,0.8761511580062505,3.516569313532543,-1.858682458838331
5.166631943583667,0.9490710021762182,3.4979824889441598,-1.8099956023189872
5.176122653605429,1.0232934143417356,3.47988253292097,-1.759588490021625
5.186355587748846,1.0988603591604469,3.4622866480207537,-1.7072212252235075
5.19734419134045,1.1758212311283531,3.4452144357685186,-1.6526459057822716
5.209102403651734,1.2542324262986848,3.428687976710696,-1.595606384189152
5.221644727914721,1.3341567978534206,3.4127319128688045,-1.53583813776442
5.234986295893255,1.4156629743526414,3.3973735314911604,-1.473068285729893
5.249142925636781,1.4988245164496798,3.3826428486338616,-1.4070157959244933
5.264131170801278,1.583718884839661,3.3685726906746165,-1.3373919302590427
5.279968359649675,1.6704261893900758,3.355198771372026,-1.2639009844153546
5.296672621543576,1.7590276870411696,3.3425597615278724,-1.1862413834487617
5.314262898413987,1.8496039945039917,3.3306973476933845,-1.1041072003776884
5.332758938359027,1.9422329814659576,3.3196562756896077,-1.0171901688944327
5.352181268173687,2.036987311484792,3.3094843740006636,-0.925182263169844
5.372551141288534,2.1339316016638086,3.300232551368965,-0.8277789163049195
5.393890457305172,2.233119179296917,3.2919547622059158,-0.7246829430545481
5.416221649098142,2.33458842474724,3.2847079327753703,-0.6156092205926476
5.439567533345614,2.4383587056660705,3.278551840569444,-0.5002901617902058
5.463951120402275,2.5444259289476037,3.273548938951542,-0.37848198726445714
5.489395379691751,2.6527577639790794,3.2697641190788977,-0.2499717640973091
5.515922957331542,2.7632886237859435,3.2672644014379246,-0.11458512990372902
5.5435558435694015,2.87591452894515,3.2661185501388874,0.027805438984377512
5.572314988858853,2.990488021138161,3.2663966045287314,0.17727202564095432
5.602219869070234,3.1068133363653727,3.268169324785141,0.33382262277347713
5.633288002433888,3.224642088390277,3.2715075510128755,0.49739279736416386
5.665534423317791,3.343669746017879,3.276481478986517,0.6678381025326021
5.698971120777969,3.4635332075304794,3.283159860011843,0.8449277248705644
5.733606452853274,3.5838097758249905,3.2916091372605485,1.0283398855611465
5.7694445506115235,3.704017812788979,3.30189253611616,1.2176595077852237
5.806484728739413,3.8236192970029257,3.314069131194012,1.4123786121736446
5.844720921709443,3.942024423437833,3.3281929173157483,1.6118998006451781
5.884141165943821,4.058598269648873,3.3443119153222,1.8155430363763094
5.92472714864031,4.172669416663577,3.362467345685963,2.0225557301023667
5.966453842806946,4.2835402653149846,3.3826929029869865,2.232125913991386
6.009289245460096,4.39049864464301,3.4050141621269003,2.4433980441377945
6.0531942319065255,4.492830184365598,3.4294481425682783,2.655490745988077
6.098122533750182,4.589830833805556,3.4560030500281593,2.8675156296022544
6.144020842088238,4.680818867275907,3.484678206324182,3.0785961765879732
6.190829030760996,4.765145727521107,3.5154641680900616,3.2878856541096204
6.238480488036207,4.842205124367266,3.5483430246311576,3.494583050309439
6.28690253927988,4.911439918462329,3.583288855134252,3.697946145858793
6.336016938464503,4.972346467613399,3.6202683165928398,3.89730102450441
6.3857404031406375,5.024476280277288,3.659241326837884,4.092047560624414
6.435985165943411,5.067434991286905,3.700161802444128,4.281660679916724
6.48665951585628,5.1008788350424545,3.742978409243295,4.465687447110526
6.537668304206704,5.124508931245808,3.7876352837144003,4.643740272877449
6.588913393519162,5.1380638126752975,3.8340726864431747,4.815486738100947
6.640294031645915,5.141310712924973,3.882227553824184,4.980636701507166
6.691707138775165,5.134036197386351,3.9320339208392556,5.138927486779523
6.743047500749029,5.116036767767308,3.9834231957070507,5.2901080425055556
6.794207868426702,5.087110103767568,4.036324276132106,5.433923039430769
6.845078969464378,5.047047627863437,4.090663506526414,5.570097920603023
6.895549445743012,4.995629089674533,4.146364485732444,5.698325953939268
6.945505736639758,4.932619859635502,4.203347745271836,5.81825835109677
6.994831935236113,4.857771587122312,4.261530328782804,5.929498502201509
7.0434096511073365,4.770826800560802,4.32082531380482,6.031601316935629
7.0911179191129445,4.671527888087492,4.381141326974176,6.1240785368218775
7.137833197993819,4.559630678782113,4.442382112342395,6.206410666494818
7.183429504781641,4.4349225328597495,4.5044462190073435,6.2780658408302275
7.227778730110238,4.297244441966322,4.567226877415646,6.338525487150361
7.270751174529901,4.146516153096317,4.630612132287149,6.387316062867179
7.312216336060865,3.982762800418983,4.694485292915822,6.424045481297226
7.352043964065055,3.8061410231014734,4.758725747728794,6.448442146739222
7.390105374296069,3.6169621507497656,4.8232101691961855,6.460393900304392
7.426274995803567,3.415709848152793,4.88781410819923,6.459983747330726
7.460432094285095,3.203049714515206,4.952413945672537,6.447519112434591
7.492462591430248,2.9798287814836,5.016889136796882,6.423551637791702
7.522260879245084,2.7470636434185356,5.0811246531747996,6.388885234498651
7.5497315156792695,2.5059170063169702,5.145013505519786,6.344571167357148
7.574790685742439,2.257663616266585,5.208459217193357,6.2918902699085955
7.5973673219051046,2.0036476404117396,5.271378119892443,6.232323757019277
7.617403798309222,1.7452344372174395,5.333701357462636,6.167515312916573
7.634856142681397,1.4837601240512797,5.3953765105918015,6.099227996675659
7.649693743921909,1.220482360022072,5.456368790558558,6.029299908516341
7.66189856752213,0.9565353307449116,5.516661789643721,5.959602476824166
7.671463920829579,0.6928911475158985,5.576257814411963,5.892004727656859
7.678392832304738,0.43032890292803644,5.635177861688532,5.828346122949554
7.682696121334018,0.16941161536343274,5.6934613229180275,5.770419667442752
7.684390237487652,-0.08952962047206775,5.751165519592455,5.719966145747252
7.683494941282931,-0.3464056926527567,5.808365181049927,5.6786796815810385
7.680030884356404,-0.6013756704358272,5.865151977865738,5.648224382628444
7.6740171276520455,-0.8548513746439437,5.921634221692022,5.630261667907735
7.665468613905606,-1.1075026806263737,5.977936838371099,5.626487948384275
7.654393587099342,-1.360265909557241,6.034201717854942,5.63868258890553
7.64079092800377,-1.614357549556247,6.090588543743998,5.668766426464048
7.624647352508207,-1.8712952946056944,6.1472762080086385,5.718871402532295
7.60593439956215,-2.1329278571229686,6.204464922033962,5.791421807501647
7.58460512099092,-2.4014738413734578,6.262379140108978,5.889226683501752
7.560590382577185,-2.679567358490928,6.321271406943995,6.01557995276128
7.533794708992276,-2.9703023058167397,6.381427206471608,6.174357450689193
7.5040916859341085,-3.2772547242990386,6.4431707809785,6.370083249670477
7.471319138691118,-3.6044359484677653,6.506871613475205,6.607901095497498
7.43527477920644,-3.9560734495180516,6.57295062443018,6.893309551409813
7.3957140447112595,-4.336003395763256,6.641883719944278,7.231362227601346
7.3523540107536265,-4.746245323282044,6.714197342220292,7.624735283180632
7.304891557520806,-5.183983733831519,6.790444695052098,8.069577210646651
7.253051720182491,-5.635854521109555,6.871140467158564,8.547586213937004
7.196693174971395,-6.06905038939022,6.956616329297934,9.01359379229437
7.1360026710774935,-6.423082357398706,7.046752267220878,9.383933586340518
7.0717718475035065,-6.616774784776139,7.1405916030842835,9.545860107846714
7.005604099655745,-6.589314810810857,7.23605020416275,9.414255965927149
6.939710951547636,-6.354409662357457,7.330192763822022,9.006508620810958
6.876166854924062,-5.996533647433171,7.420257850030131,8.437015887398312
6.81620151844973,-5.606705450962632,7.504628008904114,7.82841834860875
6.760134463940103,-5.239732891558282,7.582912192390202,7.253230129128328
6.70773713502452,-4.916589005631286,7.655444493681485,6.737755977420113
6.658571244968208,-4.640270127026397,7.722822053455686,6.284133373580468
6.612168543697944,-4.406827274789461,7.785663387191491,5.88543582138645
6.568100270950049,-4.210533215751783,7.844517745405355,5.532637456815954
6.525994938792532,-4.045850792275352,7.8998441199735145,5.217200472583966
6.485536430869778,-3.908025921145736,7.952016124699354,4.931809709897914
6.446456171658321,-3.793159869542422,8.001334221798334,4.6704231041049935
6.408524572962897,-3.698110454043049,8.048038452839384,4.4281097586286196
6.371543468422466,-3.620354370341794,8.09231955042567,4.200850784695314
6.335339924719048,-3.557856021423017,8.134328058272622,3.9853611789450065
6.2997613645048185,-3.508955139624652,8.174181670062072,3.778947346578067
6.264671813108572,-3.472273699693918,8.211971143527853,3.579399763588968
6.229949076111633,-3.446639024356606,8.247765141163743,3.384915900899454
6.1954826858680665,-3.431019442464775,8.281614300172738,3.194047947095283
6.161172491443419,-3.424469382765582,8.31355477964369,3.005670389208358
6.126927797615763,-3.4260816321486693,8.343611483535774,2.8189631443008754
6.092666981294276,-3.4349453986223457,8.371801114978783,2.6334063363269595
6.058317527308053,-3.4501097143784687,8.398135178342052,2.4487829029093926
6.023816430164269,-3.470552558183365,8.422623007371145,2.2651850331509684
5.989110904582435,-3.4951568256126446,8.445274857702655,2.0830200898558386
5.954159336326309,-3.522694856347284,8.466105058601213,1.9030113260359964
5.918932387762836,-3.5518235337754964,8.485135171861574,1.726188583307878
5.883414152425081,-3.581091882709719,8.502397057694653,1.553864497584391
5.847603233597984,-3.608962506455494,8.517935702670497,1.387592744391264
5.811513608533429,-3.6338470947568635,8.53181163011441,1.2291066382503943
5.77517513758586,-3.654154685655012,8.544102696496914,1.080238885443999
5.73863359072931,-3.6683496023580187,8.554905085351354,0.9428261814988124
5.7019500947057296,-3.675014352096625,8.564333347166341,0.8186051465146649
5.665199951184763,-3.672911648769804,8.572519398631488,0.7091082082208203
5.628470834697065,-3.6610394143311495,8.579610480713697,0.615568949970322
5.591860440553754,-3.638673256816877,8.5857661702134,0.5388458579510769
5.555473707985585,-3.6053924158592934,8.59115462879291,0.479371396889897
5.519419783826992,-3.5610872050961317,8.59594834276181,0.43713032132992197
5.4838089117760305,-3.505948153359259,8.600319645975109,0.4116677047139289
5.4487494302424375,-3.440438958979355,8.604436323022249,0.402123979232551
5.414345040652644,-3.3652567492441205,8.608457562814575,0.4072918198060529
5.380692473160202,-3.2812838685164136,8.612530481012636,0.42568823370542264
5.347879634475039,-3.1895355398346457,8.61678736334969,0.4556347533121073
5.315984279076692,-3.0911073867688525,8.621343710882812,0.49533901857862955
5.285073205209003,-2.9871261305473387,8.626297101068598,0.5429720341721382
5.25520194390353,-2.8787059476655577,8.63172682141032,0.5967367355881743
5.226414884426874,-2.76691210862869,8.6376941887662,0.6549249717632678
5.198745763340587,-2.6527327060305477,8.644243438483834,0.7159614329240918
5.172218436280281,-2.537058575759895,8.651403052813075,0.7784342988209031
5.146847850522683,-2.42067095112375,8.659187395801284,0.841113379311133
5.122641141011445,-2.304235980409864,8.667598529594395,0.9029572327868022
5.099598781207346,-2.1883049834150414,8.676628101922264,0.9631111787307682
5.077715731373196,-2.0733192088285013,8.68625921370957,1.0208982962988247
5.0569825392849115,-1.9596178594466336,8.696468196672559,1.0758054675854534
5.037386360690445,-1.8474482472641547,8.707226251348413,1.1274663382981016
5.0189118782178035,-1.7369770948047587,8.718500914731393,1.1756427873346424
5.001542107269756,-1.6283021837505007,8.73025734260474,1.220206171873278
4.985259085432252,-1.5214637428634596,8.742459404323473,1.2611192873888495
4.970044448003617,-1.4164551464952648,8.755070597197362,1.2984196816542115
4.955879896538664,-1.3132326512971404,8.768054794013905,1.3322047055702895
4.942747570025693,-1.211724026517306,8.781376841069607,1.362618478897283
4.93063032976052,-1.1118360314695435,8.795003025858579,1.3898407955062806
4.919511969445825,-1.0134607644343678,8.808901433813642,1.4140778857109346
4.909377361801481,-0.9164809542483014,8.823042212670751,1.4355548851246334
4.900212552258998,-0.820774293714073,8.837397761521997,1.4545098220712809
4.8920048093218576,-0.7262169272883604,8.85194285974271,1.4711889209566344
4.884742640048974,-0.6326862083867416,8.866654748952277,1.4858430202800326
4.878415777965107,-0.540062837531758,8.881513179155077,1.4987249155047357
4.873015149589789,-0.4482324841770893,8.896500428310125,1.5100874544772716
4.868532824748018,-0.35708698440212994,8.911601302854898,1.520182233333765
4.864961954903997,-0.26652519522970175,8.926803125188234,1.5292587616774647
4.8622967029517,-0.17645357504036727,8.94209571280501,1.5375639858527583
4.860532167201296,-0.08678654903780893,8.957471352663537,1.5453420775514384
4.859664301710918,0.0025532907102392005,8.972924773439052,1.5528344113533943
4.85968983461802,0.09163510933186561,8.988453117552586,1.5602796689917373
4.860606185711339,0.18051984294530857,9.004055914242503,1.5679140201847674
4.862411384140793,0.2692602735994022,9.01973505444435,1.5759713399413309
4.865103986876787,0.35790114147989843,9.035494767843764,1.584683430522043
4.868682998291586,0.4464792742708582,9.051341602148984,1.5942802229456086
4.873147791034294,0.5350237165291134,9.067284404378439,1.6049899382840411
4.878498028199585,0.6235558442333822,9.08333430376128,1.617039193196014
4.884733586641919,0.71208945143544,9.09950469569324,1.630653037387271
4.891854481156273,0.8006307972857966,9.115811226067112,1.6460549131232713
4.899860789129131,0.8891786027363684,9.132271775198346,1.663466528694237
4.908752575156495,0.9777239870326122,9.148906440485288,1.6831076389711648
4.918529815026821,1.0662503347826389,9.165737516875,1.7051957270035747
4.929192318374647,1.1547330850076922,9.182789474145036,1.7299455810954791
4.940739649224724,1.2431394342068773,9.20008892995599,1.757568762047778
4.953171043566793,1.3314279461735279,9.217664617576467,1.7882729553614622
4.966485323028528,1.4195480621414096,9.235547347130082,1.8222612032439276
4.980680803649942,1.5074395058734233,9.25376995916252,1.8597310113387426
4.995755198708676,1.5950315795888872,9.272367269275907,1.9008733252986667
5.011705514504565,1.682242348211626,9.291376002528894,1.9458713727379082
5.028527937986682,1.7689777113623069,9.310834716256274,1.994899366832459
5.046217715100305,1.85513036486531,9.330783709924598,2.048121068991091
5.064769018748958,1.9405786563406482,9.351264920614508,2.10568820970186
5.084174805312364,2.0251853427483786,9.372321802711527,2.1677387689788827
5.104426658739848,2.1087962615829885,9.393999190401315,2.234395120899658
5.125514621355678,2.191238931804595,9.416343141610312,2.3057620506372887
5.147427010673724,2.272321105554185,9.439400762116685,2.3819246572479895
5.170150221729266,2.3518292972234445,9.463220008689165,2.4629461613501715
5.1936685147015,2.4295273225017127,9.487849470302667,2.548865643782841
5.217963787926517,2.505154886535178,9.513338126740495,2.63969574938344
5.243015336791869,2.578426267196081,9.539735084234328,2.735420399164749
5.268799599463829,2.649029146509607,9.567089288225976,2.835992564333672
5.295289890928926,2.716623650297215,9.595449213869312,2.9413321666573595
5.322456127431898,2.7808416627664316,9.624862535535886,3.051324181446689
5.350264544059562,2.841286488720531,9.655375777350352,3.1658170316089462
5.378677408946768,2.897532940790218,9.687033947666443,3.284621373435124
5.4076527383546695,2.9491279320078423,9.719880161400793,3.407509386531273
5.437144017674748,2.995591654442147,9.753955255266106,3.534214690948508
5.46709993421917,3.0364194216632066,9.789297402175592,3.6644330233459694
5.4974641284358015,3.0710842455854803,9.825941732409051,3.7978238100306245
5.528174970891656,3.09904020573997,9.863919970509357,3.9340127769273954
5.559165372949056,3.1197266502293415,9.903260098278631,4.072595733821528
5.5903626394513495,3.132573241554449,9.943986055616847,4.2131436614349
5.621688371866894,3.1370058263704585,9.986117492231196,4.355209213979678
5.653058430130599,3.1324530655603837,10.029669584370993,4.498334725937823
5.684382960786203,3.1183537098299055,10.074652931630371,4.642061779539347
5.7155664978845016,3.094164347054811,10.121073549425764,4.785942349035357
5.74650814135505,3.059367382461339,10.168932972916117,4.929551490623565
5.777101815179663,3.013478944022676,10.218228487822353,5.0725014952543335
5.80723660461989,2.956056336906535,10.268953502774897,5.214457369438979
5.836797167988955,2.8867046070558584,10.321098076469287,5.355153462052265
5.865664214059514,2.8050817203233214,10.37464961108981,5.494411019867686
5.893715031262747,2.710901825445796,10.429593721288487,5.632156439195922
5.920824049517205,2.603936051425108,10.485915285680447,5.76843999401218
5.946863410031456,2.484010296152027,10.543599685620569,5.903454870439851
5.971703512992977,2.350999494975018,10.602634234324967,6.0375564299037245
5.995213507942727,2.2048179147294573,10.663009798624003,6.171281762163845
6.017261687090021,2.0454050981215515,10.724722616245641,6.3053697735059755
6.0377157380712365,1.8727071830377595,10.7877763139807,6.44078227609124
6.056442809901614,1.6866534432644746,10.852184136741613,6.57872678210107
6.073309344334259,1.4871280552164652,10.917971404562623,6.720681922255574
6.088180624886424,1.2739373299315735,10.985178223785178,6.868426529869987
6.10091999818574,1.0467730539486697,11.053862489083878,7.024073321210317
6.1113877287252265,0.8051733521882121,11.12410322229598,7.190107495503419
6.119439462247109,0.5484840126022418,11.196004297251015,7.36942895629823
6.124924302373131,0.2758262660898444,11.269698586813998,7.565393203120755
6.127682565034029,-0.013916908182317334,11.345352518845205,7.781838258772628
6.127543395952206,-0.32207190757324816,11.42317090143293,8.023069380602365
6.124322676876474,-0.6500557338316015,11.503401595238955,8.293742293503248
6.117822119538158,-0.9990756920667757,11.586339018173987,8.598525666051248
6.107831362617491,-1.369475017192162,11.6723242748345,8.941312228234374
6.094136612445569,-1.7594165654212253,11.761737397116843,9.323558536057241
6.076542446791357,-2.1624156763649998,11.854972982477415,9.741072823820085
6.0549182900277065,-2.5631549212429974,11.952383710715615,10.178433635409885
6.029286740815277,-2.931631608309421,12.054168047069714,10.601015527899321
5.999970424732182,-3.2184179925757825,12.160178202348707,10.948271095940326
5.967786244806424,-3.3595969349836423,12.26966091330811,11.139811231758356
5.934190275456588,-3.3021661308184065,12.381059025625694,11.108933908684039
5.901168614148404,-3.041257008623944,12.492148364712534,10.851799995828708
5.870756044062165,-2.62944119124276,12.600666364670822,10.438583670417149
5.844461632149737,-2.1412775534428485,12.705052201374993,9.965095481957787
5.8230488566153085,-1.6346134069884615,12.804703156194572,9.50199585647307
5.806702722545424,-1.14044764539657,12.899723114759302,9.083232045992911
5.795298246091458,-0.6707722568939951,12.990555435219232,8.717849899190506
5.788590523522518,-0.22794380207819148,13.077733934211137,8.40289814725142
5.786311085501736,0.189544499263878,13.161762915683651,8.131028545497806
5.788206530494374,0.5842715021914202,13.243073201138628,7.893986171078724
5.794049245516288,0.9587182030652857,13.322013062849415,7.683959510862072
5.803636427546941,1.3148519243345653,13.398852657958036,7.493988061943147
5.816784946790286,1.6540339257102936,13.473792538577468,7.318001734136379
