th1 (rad),w1 (rad/s),th2 (rad),w2 (rad/s)
2.594790862487076,-1.63164805303669,0.3923731808182754,-0.2904180032130552
2.5784743819567093,-1.6994901949307546,0.3894690007861448,-0.34646268142938375
2.5614794800074017,-1.7677152846114603,0.386004373971851,-0.39967767730171105
2.543802327161287,-1.8363611682071594,0.38200759719883387,-0.4498913186159421
2.5254387154792153,-1.9054604889775624,0.37750868401267446,-0.49692321481216056
2.5063841105894396,-1.9750406759389343,0.37253945186455284,-0.5405841821162922
2.48663370383005,-2.045124026644609,0.3671336100433899,-0.580676255682364
2.466182463563604,-2.115727896098529,0.36132684748656624,-0.6169927928086234
2.4450251846026188,-2.1868650050002505,0.35515691955848,-0.6493186701857036
2.423156534552616,-2.2585438816631522,0.34866373285662294,-0.6774305764791583
2.4005710957359847,-2.330769452982917,0.34188942709183134,-0.701097399233443
2.3772634012061555,-2.4035438007336376,0.33487845309949693,-0.7200807019962516
2.3532279631988193,-2.476867100213988,0.3276776460795344,-0.7341352835854242
2.3284592921966794,-2.550738758847738,0.3203362932436802,-0.7430098064412652
2.302951904608202,-2.625158772771822,0.31290619517926754,-0.7464474749165605
2.2767003168804836,-2.700129319757969,0.3054417204301019,-0.7441867370565152
2.2496990236829038,-2.7756566070832562,0.2979998530595368,-0.7359619748272613
2.221942457612071,-2.851752993310682,0.2906402333112642,-0.7215041377980248
2.1934249276789646,-2.9284394035421095,0.28342519193328397,-0.7005412639205412
2.1641405336435433,-3.0057480588146683,0.27641977929407857,-0.672798818248009
2.1340830530553965,-3.083725542266354,0.26969179111159847,-0.6379997661716867
2.103245797632733,-3.162436227935501,0.2633117934498816,-0.5958642819983164
2.071621435353378,-3.2419661031326,0.25735315062989844,-0.5461089763924497
2.039201774322052,-3.322427022903853,0.25189206086597393,-0.48844550725747127
2.0059775040930137,-3.4039614459930583,0.24700760579339923,-0.42257841783413774
1.971937889633083,-3.4867477168245724,0.24278182161505785,-0.3482020228432371
1.9370704124648372,-3.5710059784041066,0.2392998013866255,-0.26499613793823007
1.9013603526807963,-3.657004827756247,0.23664984000724318,-0.17262041899043448
1.864790304403234,-3.7450688596437085,0.23492363581733883,-0.0707070452014794
1.8273396158067967,-3.8355872866701866,0.23421656536532404,0.04114855665250486
1.7889837429400948,-3.9290238746683688,0.23462805093184907,0.16339928999401301
1.7496935041934112,-4.02592849036256,0.2362620438317892,0.2965606533051258
1.7094342192897856,-4.126950619693344,0.23922765036484045,0.44122811416644103
1.668164713092852,-4.232855270294084,0.24363993150650487,0.5980980320736012
1.6258361603899112,-4.344541699799423,0.2496209118272409,0.7679925368808882
1.5823907433919169,-4.4630653709962465,0.2573008371960498,0.9518886248390546
1.5377600896819543,-4.589663342228849,0.2668197234444403,1.150951355734564
1.4918634562596658,-4.725782794796546,0.27832923700178597,1.3665701874324965
1.4446056283117004,-4.873111264388808,0.29199493887611094,1.6003957161627518
1.3958745156678123,-5.033604776510769,0.30799889603773845,1.8543705376624657
1.3455384679027045,-5.2095053307979216,0.3265426014143631,2.130740962336305
1.2934434145947253,-5.403329853803163,0.3478500110377261,2.432022818872918
1.2394101160566937,-5.617794825405319,0.3721702392264553,2.7608689049011716
1.1832321678026405,-5.855607262398563,0.399778928275467,3.1197379542788037
1.124676095178655,-6.118992760453751,0.4309763078182551,3.5101801829880546
1.0634861675741174,-6.408733190581478,0.4660781096481356,3.9314166344913954
0.9993988356683026,-6.722357656929342,0.5053922759930496,4.3777101327470715
0.9321752590990091,-7.05106864941739,0.5491693773205203,4.833945818354744
0.8616645726048352,-7.3753647161517994,0.5975088355040677,5.269390890520075
0.7879109254433172,-7.661015941119931,0.6502027444092685,5.632025425209726
0.7113007660321179,-7.860777239007963,0.7065229986613658,5.85113887079371
0.6326929936420382,-7.9296960586595295,0.7650343873693028,5.8593882468964855
0.5533960330554429,-7.852116153931622,0.8236282698382678,5.631641996699278
0.47487487151612673,-7.656499261178688,0.8799446898052605,5.206636649673307
0.39830987890433983,-7.39773006476821,0.9320110563019935,4.662260203938727
0.32433257825665773,-7.126057132141982,0.9786336583413808,4.071286396418558
0.2530720069352379,-6.87199661905654,1.0193465223055664,3.4793283074738577
0.18435204074467249,-6.648504805805632,1.054139805380305,2.9073496699012513
0.11786699268661617,-6.4581643707090945,1.0832133020793175,2.36158073330777
0.05328534897952522,-6.2987079458111905,1.1068291094123952,1.8413076538270687
-0.00970173047858669,-6.166044878122785,1.1252421859506658,1.3432302406398788
-0.07136217925981453,-6.055657086492291,1.1386744883570645,0.8635376226131908
-0.13191875012473744,-5.963156598574463,1.1473098645831965,0.39879024122130124
-0.19155031611048207,-5.8844609333612645,1.1512977669954094,-0.05375838362698088
-0.2503949254440947,-5.815811048688103,1.1507601831591396,-0.4960861383230945
-0.3085530359309757,-5.753734756804053,1.1457993217759086,-0.9294290032425558
-0.36609038349901624,-5.695000415718398,1.136505031743483,-1.3543474882914084
-0.4230403876562002,-5.636579150488828,1.1229615568605689,-1.7708075943142036
-0.4794061791610885,-5.575621931766889,1.1052534809174268,-2.1782673337978746
-0.5351623984787575,-5.509452478387831,1.0834708075794481,-2.575766404757859
-0.5902569232626358,-5.435574481914012,1.0577131435318696,-2.962018747184851
-0.6446126680817759,-5.351690450451505,1.0280929560600212,-3.335507882098388
-0.6981295725862909,-5.255728849156046,0.9947378772390373,-3.694584313319699
-0.7506868610778514,-5.145875904775039,0.9577920341058404,-4.037563443075067
-0.8021456201256019,-5.0206083465177755,0.9174163996750897,-4.36282171037825
-0.8523517035907796,-4.878723446070139,0.8737881825713072,-4.668888151046661
-0.901138938051481,-4.71936298372619,0.8270993010608406,-4.954528357478983
-0.948332567888743,-4.54202819391621,0.7775540174860508,-5.218817889406335
-0.9937528498279051,-4.3465833175786,0.7253658385919874,-5.461202529742769
-1.0372186830036911,-4.133246093832781,0.6707538132945597,-5.681543357355549
-1.078551143942019,-3.9025643371537053,0.6139383797210043,-5.880145383864313
-1.117576787313556,-3.655378635393176,0.5551369258823612,-6.057769434798347
-1.1541305736674878,-3.3927721167749105,0.4945592315343777,-6.215627997335857
-1.188058294835237,-3.1160090969347216,0.43240295156101916,-6.355366840362984
-1.2192183858045842,-2.8264651402041117,0.3688492831573893,-6.479035250061338
-1.2474830372066252,-2.525551561333707,0.3040589306567759,-6.589048613926114
-1.2727385528199624,-2.214637584533283,0.2381684445175148,-6.688147727061127
-1.2948849286652953,-1.8949732409907725,0.1712869672469035,-6.779359503359215
-1.313834661075203,-1.5676156638130991,0.10349337221331135,-6.865963693593694
-1.329510817713334,-1.2333608495136885,0.034833735277374406,-6.951469701101069
-1.3418444262084708,-0.8926824098208628,-0.03468096173363629,-7.0396065765059905
-1.3507712503066793,-0.5456786725089494,-0.1050770274986962,-7.134327585409494
-1.3562280370317688,-0.1920302421747393,-0.17642030335279113,-7.239827921850426
-1.358148339453516,0.1690272843462512,-0.2488185825712954,-7.36056916267789
-1.3564580666100536,0.5387046853635483,-0.3224242741980743,-7.501294796602699
-1.3510710197564182,0.918611177232803,-0.39743722216410127,-7.667003411554495
-1.3418849079840902,1.3106089475354978,-0.4741072562796462,-7.862811944188427
-1.3287788185087352,1.7164750572848388,-0.5527353757215305,-8.093576797705676
-1.3116140679358868,2.137192105210168,-0.6336711436985873,-8.363024474436427
-1.290242146883785,2.571556760677775,-0.7173013884429517,-8.671956770364543
-1.2645265792770073,3.013643459776801,-0.8040209561465971,-9.014875108065025
-1.2343901446792394,3.448692767320642,-0.8941697072272473,-9.374390271098605
-1.1999032170060329,3.847886826347381,-0.9879136099382334,-9.713981354129984
-1.161424348742559,4.165508989604449,-1.0850534234795333,-9.973828231620653
-1.1197692588465147,4.34694384287735,-1.1847917057957398,-10.081308648611436
-1.0762998204177412,4.354425311158984,-1.285604792281854,-9.985707147134447
-1.0327555673061513,4.196069538278645,-1.3854618637531986,-9.697368612795465
-0.9907948719233648,3.9244703152432794,-1.4824355498811532,-9.285345566749935
-0.951550168770932,3.6029155280016525,-1.5752890055486526,-8.831552056074477
-0.9155210134909155,3.2770455319770333,-1.6636045261093972,-8.39322559196535
-0.8827505581711452,2.970175081350637,-1.7475367820290508,-7.997662534102828
-0.8530488073576389,2.6905983767834387,-1.8275134073700792,-7.652667892788601
-0.8261428235898045,2.439034451927571,-1.9040400862979652,-7.356700150988762
-0.8017524790705288,2.2130993600507516,-1.9776070878078529,-7.104775497204956
-0.7796214854700213,2.0094768172288573,-2.0486548427799023,-6.891221157133502
-0.7595267172977327,1.8248408044939972,-2.1175670543512375,-6.710769023678257
-0.7412783092527927,1.6561920704829969,-2.18467474458802,-6.55889609088311
-0.7247163885479627,1.5009418058275608,-2.250263705496851,-6.43185610056842
-0.7097069704896871,1.3568955765331832,-2.3145822665025353,-6.326600234672298
-0.6961380147243553,1.2222042898978387,-2.377848268849258,-6.240669295802065
-0.6839159718253769,1.095309923366861,-2.4402549618072786,-6.172088957588969
-0.6729628725917083,0.9748966621977497,-2.5019758513831682,-6.119278117707294
-0.6632139059697307,0.8598508766816315,-2.563168632560241,-6.080971666036264
-0.6546153972029144,0.7492305179903223,-2.6239783492206037,-6.056155727039902
-0.6471230920230112,0.6422435601350428,-2.6845399064910027,-6.044012430083245
-0.6407006564216607,0.5382349684482476,-2.7449800307918353,-6.043871118969502
-0.6353183067371783,0.4366818437962485,-2.8054187419815304,-6.0551630545182045
-0.6309514882992158,0.33719665151639155,-2.8659703725267125,-6.07737687278029
-0.6275795217840519,0.23953867629921247,-2.9267441412545154,-6.110012285830919
-0.6251841350210597,0.14363396086804395,-2.9878442641128244,-6.1525297926495615
-0.6237477954123793,0.04960388994345917,-3.04936956203932,-6.204294610994006
-0.6232517565129447,-0.04219785733342554,-3.11141250814926,-6.26451381573153
-0.623673735086279,-0.13114121192429254,-3.1740576463065753,-6.332167002474737
-0.6249851472055219,-0.21627135416797635,-3.2373793163313227,-6.405932953944242
-0.6271478607472016,-0.2962614870070574,-3.301438645870765,-6.484118009273933
-0.6301104756172722,-0.36937555220825014,-3.3662798259635043,-6.564596190028882
-0.6338042311393547,-0.4334536713596411,-3.431925787863793,-6.644776264900247
-0.6381387678529511,-0.485936697101235,-3.4983735505127953,-6.721615725252639
-0.6429981348239634,-0.5239477434215459,-3.5655897077653216,-6.791703945791033
-0.6482376122581789,-0.5444454431303852,-3.633506747223232,-6.8514335183294985
-0.6536820666894827,-0.5444534800243804,-3.7020210824065267,-6.897266728172695
-0.6591266014897265,-0.521352801077338,-3.7709937496882535,-6.926082205582423
-0.6643401295004998,-0.47319963986516006,-3.8402545717440777,-6.9355582830880484
-0.6690721258991514,-0.3990116464243908,-3.909610154574958,-6.9245238006353285
-0.6730622423633953,-0.29895653842225745,-3.9788553925813113,-6.893196986810844
-0.6760518077476179,-0.1743908830581561,-4.047787362449419,-6.843248619468109
-0.6777957165781994,-0.02773032436573486,-4.116219848644101,-6.777666246347818
-0.6780730198218567,0.13782461210260888,-4.183996511107579,-6.700447875769043
-0.6766947737008306,0.31864816681394,-4.251000989865269,-6.616195453914686
-0.6735082920326912,0.5110617829508903,-4.317162944404416,-6.529694822521954
-0.6683976742031823,0.7116563880938275,-4.382459892629635,-6.445557215991341
-0.661281110322244,0.9175265730702785,-4.446915464789549,-6.367967704288477
-0.6521058445915412,1.1264068311097224,-4.510595141832433,-6.300552944523693
-0.6408417762804439,1.3367217690721453,-4.57360067127767,-6.246355387060803
-0.6274745585897225,1.5475738091853095,-4.636064225148278,-6.2078880417980065
-0.6119988204978694,1.758694424396826,-4.698143105566258,-6.187241692780798
-0.5944118762539011,1.9703817401682358,-4.760015522494066,-6.186221089659857
-0.5747080588522188,2.1834418081727565,-4.821877733390664,-6.206494182332834
-0.5528736407704912,2.399145408319394,-4.8839426752139925,-6.249746196699823
-0.5288821866872973,2.6192080854156337,-4.946440137180991,-6.317836965380509
-0.5026901058331409,2.8457986183207566,-5.009618506834796,-6.412965113423913
-0.47423211964993334,3.081580069894951,-5.073748157969035,-6.537846623488479
-0.4434163189509838,3.329787461864954,-5.13912662420392,-6.695918137922672
-0.4101184443323343,3.594346026815714,-5.206085805583147,-6.891576727768063
-0.37417498406417715,3.8800319826509817,-5.275001572860828,-7.130465902376451
-0.3353746642376673,4.192669328796003,-5.346306231884593,-7.419806742715815
-0.2934479709497073,4.539330091999712,-5.420504299311751,-7.768738281230879
-0.24805467002971018,4.928433783586908,-5.49819168212406,-8.188534319762567
-0.1987703321938411,5.369455326885057,-5.580077025321685,-8.692308874803622
-0.14507577892499052,5.871484816548901,-5.6670001140697215,-9.293179753736311
-0.0863609307595015,6.4387918198961,-5.759931911607085,-9.998343894723853
-0.021973012560540503,7.059381300146845,-5.859915350554323,-10.793485139651148
0.04862080044092795,7.680287267884987,-5.967850201950835,-11.608736832817343
0.1254236731197778,8.171138519334502,-6.083937570279009,-12.268093463430144
0.20713505831312284,8.325246449181895,-6.20661850491331,-12.490424702430476
0.2903875228049418,8.005201638975008,-6.331522751937615,-12.090360718015338
0.37043953919469186,7.332345403312944,-6.452426359117768,-11.238062653837984
0.4437629932278213,6.564104276160027,-6.564806985656149,-10.28623376662108
0.5094040359894216,5.855583265302002,-6.667669323322359,-9.44299913135241
0.5679598686424416,5.245298593089522,-6.762099314635884,-8.756689133602805
0.6204128545733368,4.724561264400307,-6.849666205971912,-8.212788189717672
0.6676584672173399,4.274725935428009,-6.931794087869088,-7.784745790188993
0.7104057265716199,3.878524353564874,-7.009641545770978,-7.448941117001232
0.7491909701072687,3.5221885934270327,-7.0841309569409905,-7.187181755661731
0.784412856041539,3.1951455029014864,-7.156002774497608,-6.986028539701096
0.8163643110705538,2.8892965470728993,-7.225863059894619,-6.835640962812663
0.8452572765412828,2.5983838888291273,-7.294219469522746,-6.7287804020719975
0.871241115429574,2.3175249362890504,-7.361507273543466,-6.6600529491662375
0.8944163647924646,2.042897102422963,-7.428107803035128,-6.625346816559434
0.9148453358166941,1.7715398116004593,-7.494361271200722,-6.621405145622139
0.9325607339326988,1.5012459862657794,-7.560575322656943,-6.645486198113751
0.9475731937953565,1.2305224333731528,-7.62703018463808,-6.695076975661264
0.959878418129088,0.9586032279935577,-7.693980954394693,-6.767638904065653
0.9694644504090236,0.6855014282087527,-7.761657343435349,-6.860375631818475
0.9763194646911112,0.41208222473643524,-7.830261099753534,-6.970024342027869
0.9804402869384755,0.14013536212198063,-7.899961343173812,-7.092683901875108
0.9818416405596954,-0.12758242665836705,-7.970888182192564,-7.2237050761922275
0.9805658162931117,-0.38737061385128635,-8.043125232954486,-7.357677440137825
0.9766921101545988,-0.6347108193462099,-8.116702007355864,-7.48854995348624
0.9703450019611367,-0.8645239445274128,-8.191587506890725,-7.6099116027054245
0.9616997625158625,-1.0715639894041689,-8.267686622917779,-7.715430860181278
0.9509841226218209,-1.2509175503783505,-8.344840931519592,-7.799409804020032
0.9384749471180374,-1.3985369042387064,-8.422835029559792,-7.857362270772081
0.9244895780756504,-1.5117055348409116,-8.501408652267513,-7.886495626981226
0.9093725227272412,-1.5893352027252634,-8.580273608537325,-7.885982294213718
0.8934791706999886,-1.632029771869611,-8.659133431479463,-7.856955560051368
0.8771588729812925,-1.6419116189334513,-8.737702987079976,-7.802238233554577
0.8607397567919579,-1.6222666356308744,-8.81572536941552,-7.725881408940214
0.8445170904356492,-1.5770995940360264,-8.892984183504923,-7.632626595614546
0.8287460944952889,-1.5106933982329525,-8.96931044946107,-7.5273993166525965
0.8136391605129594,-1.4272408737380433,-9.044584442627595,-7.414907630602904
0.7993667517755789,-1.330582468142686,-9.118733518933624,-7.299375468787066
0.7860609270941521,-1.2240521280075969,-9.191727273621494,-7.184405035646077
0.7738204058140761,-1.1104139649345186,-9.263571323977954,-7.072942023289235
0.7627162661647309,-0.9918644329335228,-9.334300744210847,-6.967311019845951
0.7527976218353957,-0.8700751802728034,-9.403973854409307,-6.869291347199025
0.7440968700326677,-0.7462564352571774,-9.472666767881297,-6.780210566686339
0.7366343056800959,-0.621226651853506,-9.54046887354816,-6.701040504100729
0.7304220391615609,-0.4954794418080442,-9.607479278589167,-6.632487065712825
0.7254672447434805,-0.36924287829814123,-9.673804149246296,-6.5750697891466325
0.7217748159604991,-0.24252901946317,-9.739554847137763,-6.529190112708786
0.7193495257658674,-0.11517319238026028,-9.80484674826485,-6.495189126404161
0.7181977938420648,0.013136508356607485,-9.869798639528891,-6.473396486094348
0.7183291589256309,0.1428386555852288,-9.934532604389835,-6.464172557856295
0.7197575454814832,0.274485922740542,-9.999174329968398,-6.467945948694663
0.7225024047088886,0.4087396686125727,-10.063853789455344,-6.485248524846226
0.7265898013950143,0.5463709902520193,-10.128706274703806,-6.51674990579514
0.7320535112975345,0.6882677257264371,-10.193873773761757,-6.563293282742738
0.7389361885547988,0.835446985979683,-10.259506706589184,-6.625934224804106
0.7472906584145956,0.9890727298149884,-10.325766048837224,-6.705983817740193
0.7571813857127455,1.1504775028510983,-10.392825887014626,-6.8050568304148475
0.7686861607412565,1.3211864264623336,-10.460876455318774,-6.925124217183768
0.7818980250058798,1.5029392357637246,-10.530127697490611,-7.068566328957958
0.796927417363517,1.6977014353852622,-10.60081336078019,-7.238217116405164
0.8139044317173696,1.907646157049291,-10.673195531944241,-7.4373772154245295
0.8329808932878625,2.135069653349664,-10.747569304098487,-7.669749029798132
0.8543315898213591,2.3821674411940044,-10.824266794396468,-7.939198470267347
0.8781532642332992,2.650531254997359,-10.903658779099143,-8.2491565634633
0.9046585767832728,2.940110966586711,-10.986150344733776,-8.601313263799849
0.9340596864491398,3.24721514407447,-11.072163477371774,-8.993015046639433
0.9665318378898845,3.560984812418346,-11.162093627838168,-9.412569737190303
1.002141686014068,3.85808233335494,-11.25621932521007,-9.832051204768707
1.0407225093476173,4.097246687362426,-11.354539837257757,-10.199775292750122
1.0816949762212416,4.220302753721572,-11.456537590185258,-10.441372601035912
1.1238980037584572,4.170740068581599,-11.560951316195617,-10.48461172276825
1.1656054044442732,3.929180793801823,-11.665797433423299,-10.306934493736646
1.2048972123822914,3.5330556516091747,-11.768866778360666,-9.961001811172096
1.2402277688983832,3.0514796478941,-11.868476796472386,-9.539512043931579
1.270742565377324,2.544285364899443,-11.963871916911701,-9.120012041833103
1.2961854190263185,2.0453450313051236,-12.055072037330032,-8.743815517199264
1.3166388693393696,1.5678585869992288,-12.142510192502025,-8.424395182687876
1.332317455209362,1.1139931529263345,-12.226754144328904,-8.160868766644866
1.3434573867386252,0.6813709984522118,-12.308362831995353,-7.946724166479733
1.3502710967231473,0.26631475645250935,-12.387830073660151,-7.773992846151208
1.3529342442876724,-0.1347658972549831,-12.465570002121662,-7.634900530133579
1.3515865853151225,-0.5248615696026763,-12.541919007422997,-7.52237404481103
1.3463379696190958,-0.906221524203754,-12.617142747871108,-7.430090717053186
1.3372757543770584,-1.2803567803366294,-12.69144365504164,-7.352372456880428
1.3244721865736921,-1.64809342698434,-12.764967379610445,-7.284048393562735
