th1 (rad),w1 (rad/s),th2 (rad),w2 (rad/s),a1 (rad/s^2),a2 (rad/s^2)
5.856405598859184,1.5258339645857164,2.139983503030971,-0.1386580425646611,0.10273153104349035,-9.434510531350526
5.8716639385050415,1.5268612798961514,2.1385969226053243,-0.23300314787816637,-0.051391012154307504,-9.604803717338104
5.886932551304003,1.5263473697746084,2.1362668911265428,-0.3290511850515474,-0.19054193573997788,-9.763636107377668
5.902196025001749,1.5244419504172086,2.1329763792760272,-0.4266875461253241,-0.3131674685366723,-9.909884205831105
5.917440444505921,1.521310275731842,2.128709503814774,-0.5257863881836352,-0.41781228072157617,-10.04263707676479
5.932653547263239,1.5171321529246262,2.123451639932938,-0.6262127589512831,-0.5031449234190006,-10.161231176075253
5.947824868792486,1.5121007036904361,2.1171895123434252,-0.7278250707120357,-0.5679797641586667,-10.26528000564888
5.96294587582939,1.5064209060488494,2.109911261636305,-0.8304778707685245,-0.6112944027090169,-10.354697493058532
5.9780100848898785,1.5003079620217592,2.1016064829286196,-0.9340248456991098,-0.6322417193346248,-10.429714318479617
5.993013164510096,1.493985544828413,2.0922662344716287,-1.038321988883906,-0.6301559266995738,-10.490886792162609
6.0079530199583795,1.4876839855614172,2.0818830145827896,-1.143230856805532,-0.6045522512106941,-10.539098304710631
6.022829859813994,1.4816384630493102,2.0704507060147344,-1.2486218398526383,-0.5551201395294528,-10.575553798670985
6.037646244444487,1.4760872616540157,2.057964487616208,-1.3543773778393482,-0.48171014952607605,-10.601768113277512
6.052407117061027,1.471270160158755,2.0444207138378143,-1.4603950589721233,-0.3843149209374264,-10.619549407328462
6.067119818662615,1.4674270109493808,2.029816763248093,-1.5665905530454078,-0.263044811030036,-10.630979146945455
6.081794088772109,1.4647965628390804,2.014150857717639,-1.6729003445148625,-0.11809891080003156,-10.638390342340456
6.0964420544005,1.46361557373108,1.9974218542724904,-1.7792842479382671,0.0502677805794197,-10.644345827004457
6.11107821013781,1.4641182515368742,1.9796290117931077,-1.8857277062083118,0.24178025352760157,-10.651618399361622
6.125719392653179,1.4665360540721504,1.9607717347310245,-1.992243890201928,0.4561817638188893,-10.663174604282782
6.140384753193901,1.4710978717103393,1.9408492958290053,-2.0988756362447556,0.6932739268259622,-10.682163839205508
6.155095731911005,1.478030610978599,1.9198605394665578,-2.205697274636811,0.9529582539229695,-10.711914349620475
6.169876038020791,1.4875601935178286,1.8978035667201896,-2.3128164181330155,1.235278973669255,-10.755937554688414
6.184751639955969,1.4999129832545213,1.8746754025388594,-2.4203757936798995,1.540467221637122,-10.817942037108613
6.199750769788515,1.5153176554708925,1.8504716446020604,-2.5285552140509857,1.8689869326221018,-10.901858458910782
6.214903946343224,1.5340075247971134,1.8251860924615506,-2.6375737986400933,2.22158301314704,-11.011876636265468
6.230244021591195,1.5562233549285838,1.7988103544751497,-2.747692565002748,2.5993325938148724,-11.152496020932993
6.245806255140481,1.5822166808667324,1.7713334288251221,-2.859217525212078,3.0037003369949113,-11.328590877436671
6.2616284219491485,1.6122536842366815,1.7427412535730014,-2.9725034339864447,3.436598868965741,-11.545491473554815
6.277750958791516,1.646619672926339,1.7130162192331368,-3.087958348721993,3.900455354843112,-11.809082538923954
6.294217155520779,1.68562422647477,1.6821366357459169,-3.2060491741112327,4.398284930885386,-12.125919949481998
6.311073397785527,1.729607075783624,1.6500761440048046,-3.3273083736060527,4.933770961581684,-12.503365810307264
6.328369468543363,1.7789447853994407,1.6168030602687442,-3.4523420317091253,5.511350564383214,-12.949740389673499
6.346158916397357,1.8340582910432728,1.582279639951653,-3.5818394356058603,6.136300959278803,-13.474485919816342
6.36449949930779,1.8954213006360607,1.5464612455955944,-3.7165842948040235,6.814816934611672,-14.088330751902863
6.383453712314151,1.9635694699821775,1.5092954026475542,-3.857467602323052,7.5540602966373935,-14.803430324909396
6.403089407013973,2.0391100729485516,1.4707207266243236,-4.005501905572146,8.362145487563911,-15.633439653441057
6.4234805077434585,2.122731527824191,1.4306657075686022,-4.161836302106557,9.24799621670621,-16.593433153009286
6.444707823021701,2.215211489991253,1.3890473445475366,-4.32777063363665,10.22095660063421,-17.69951869743516
6.466859937921614,2.317421055997595,1.3457696382111701,-4.504765820611001,11.28995094024072,-18.967871610409567
6.490034148481589,2.430320565400002,1.30072198000506,-4.694444536715097,12.461832115667333,-20.41270343292523
6.51433735413559,2.554938886556675,1.253777534637909,-4.898571571044349,13.738297051599485,-22.042319780866517
6.539886743001157,2.69232185707267,1.2047918189274656,-5.118994768853014,15.110317715888394,-23.85182440373334
6.566809961571884,2.843425034231554,1.1536018712389353,-5.357513012890347,16.548371713295005,-25.81009611248128
6.595244211914199,3.008908751364504,1.1000267411100317,-5.61561397401516,17.985860560811997,-27.83739530034669
6.625333299427845,3.188767356972624,1.0438706013698802,-5.893987927018626,19.29230098038885,-29.768779875175927
6.657220972997571,3.381690366776512,0.9849307220996939,-6.191675725770386,20.23351183666706,-31.299269429466385
6.6910378766653364,3.5840254851431825,0.92301396484199,-6.50466842006505,20.42198628200698,-31.914768729700825
6.726878131516768,3.7882453479632523,0.8579672806413395,-6.823816107362058,19.280255683382588,-30.839726240355485
6.7647605849964005,3.9810479047970784,0.789729119567719,-7.132213369765613,16.082930578123825,-27.091862569458925
6.804571064044372,4.141877210578317,0.7184069858700628,-7.403131995460202,10.193853952393761,-19.804972460063773
6.845989836150155,4.243815750102254,0.6443756659154608,-7.60118172006084,1.5694543103384762,-8.918555281822037
6.888427993651177,4.259510293205638,0.5683638487148523,-7.69036727287906,-8.71758329648035,4.105724948115042
6.931023096583234,4.172334460240835,0.49146017598606173,-7.649310023397909,-18.599262940984328,16.458757054747224
6.972746441185642,3.986341830830992,0.41496707575208264,-7.484722452850437,-26.086474648218633,25.467110192731496
7.012609859493952,3.7254770843488054,0.34011985122357824,-7.230051350923122,-30.375652527706887,30.101234732648177
7.04986463033744,3.4217205590717366,0.267819337714347,-6.929039003596641,-31.905933117393225,31.025624258288055
7.084081835928158,3.102661227897804,0.1985289476783806,-6.61878276101376,-31.63870564453421,29.59168321467407
7.1151084482071365,2.786274171452462,0.132341120068243,-6.322865928867019,-30.44401641165073,26.998691434450443
7.142971189921661,2.481834007335955,0.06911246077957281,-6.052879014522515,-28.896616386439323,24.026496744715015
7.16778952999502,2.1928678434715616,0.00858367063434766,-5.812614047075365,-27.312032193445734,21.09541146620184
7.189718208429736,1.9197475215371043,-0.04954246983640599,-5.601659932413346,-25.838723675904998,18.39805484419143
7.208915683645107,1.6613602847780542,-0.10555906916053945,-5.417679383971432,-24.53246595196477,16.003281562619176
7.225529286492887,1.4160356252584065,-0.15973586300025377,-5.2576465683452405,-23.402367468729025,13.919483529605142
7.239689642745471,1.1820119505711162,-0.2123123286837062,-5.118451733049189,-22.43612699750808,12.128779397370545
7.251509762251183,0.9576506805960354,-0.2634968460141981,-4.997163939075484,-21.61296684809068,10.604156782489072
7.261086269057143,0.7415210121151287,-0.3134684854049529,-4.891122371250593,-20.909899082389185,9.317504712102165
7.268501479178295,0.5324220212912368,-0.36237970911745887,-4.797947324129572,-20.30456471712444,8.24302350793778
7.273825699391208,0.32937637411999243,-0.41035918235875457,-4.715517089050194,-19.77637690944416,7.358380318478831
7.277119463132408,0.13161260502555083,-0.4575143532492565,-4.641933285865406,-19.306860197182775,6.644814758867198
7.2784355891826635,-0.06145599694627693,-0.5039336861079106,-4.575485138276734,-18.879634786946525,6.086791793624289
7.277821029213201,-0.2502523448157422,-0.5496885374906779,-4.514617220340491,-18.480266556759176,5.6714904248462155
7.275318505765044,-0.43505501038333394,-0.5948347096940828,-4.457902316092029,-18.09608729368663,5.388262765045841
7.27096795566121,-0.6160158833202003,-0.6394137328550031,-4.40401968844157,-17.71603113024804,5.228122646171201
7.264807796828008,-0.7931761946226807,-0.6834539297394189,-4.351738461979858,-17.330503916846958,5.183286967018029
7.256876034881781,-0.9664812337911504,-0.7269713143592175,-4.299905592309678,-16.93128792668999,5.246776637600079
7.24721122254387,-1.1357941130580502,-0.7699703702823142,-4.247437825933677,-16.511477502796005,5.412077170127592
7.235853281413289,-1.3009088880860102,-0.8124447485416509,-4.193317054232401,-16.065438325630563,5.67285659563152
7.2228441925324285,-1.461563271342316,-0.854377919083975,-4.136588488276086,-15.588782054917933,6.022737885995883
7.2082285598190055,-1.6174510918914953,-0.8957438039667358,-4.076361109416127,-15.07834826270138,6.4551231635598425
7.192054048900091,-1.768234574518509,-0.9365074150608971,-4.011809877780529,-14.532186368690079,6.963067091291104
7.174371703154906,-1.9135564382054098,-0.9766255138387023,-3.9421792068676176,-13.949531470298236,7.539196723955267
7.155236138772851,-2.053051752908392,-1.0160473059073785,-3.866787239628065,-13.330769375586794,8.175674730318955
7.134705621243768,-2.1863594466642597,-1.054715178303659,-3.7850304923248754,-12.67738767472541,8.864202340468848
7.112842026777125,-2.3131333234115137,-1.0925654832269078,-3.696388468920187,-11.991911208645188,9.596057753174588
7.08971069354301,-2.4330524354979657,-1.1295293679161098,-3.600427891388441,-11.277821701022846,10.362165188304376
7.06538016918803,-2.545830652508194,-1.1655336468299942,-3.496806239505397,-10.539462514200867,11.153189400592955
7.039921862662948,-2.651225277650203,-1.200501709225048,-3.3852743454994676,-9.781930400594941,11.959650353037608
7.013409609886446,-2.7490445816561526,-1.2343544526800427,-3.2656778419690915,-9.010956716470723,12.772052895566285
6.985919164069884,-2.83915414882086,-1.2670112310997337,-3.1379573130134286,-8.2327808567542,13.581026666285512
6.957527622581675,-2.921481957388402,-1.298390804229868,-3.0021470463505735,-7.454018711705901,14.37747194207171
6.928312803007791,-2.996022144505461,-1.3284122746933738,-2.858372326929856,-6.681528824021624,15.15270770060043
6.898352581562737,-3.062837432745677,-1.3569959979626722,-2.706845249923852,-5.922278737529169,15.898618605553779
6.8677242072352795,-3.122060220120969,-1.3840644504619108,-2.547859063868314,-5.183213869296801,16.607797905850415
6.8365036050340695,-3.1738923588139367,-1.409543041100594,-2.38178108480981,-4.471131173459358,17.27368331147861
6.80476468144593,-3.2186036705485304,-1.4333608519486922,-2.209044251695024,-3.7925599258006444,17.890682795658684
6.772578644740445,-3.2565292698065367,-1.4554512944656424,-2.030137423738437,-3.153652126276497,18.45428705685316
6.7400133520423795,-3.2880657910693016,-1.4757526687030267,-1.8455945531699054,-2.5600852340254225,18.961165180101695
6.707132694131687,-3.313666643409556,-1.4942086142347257,-1.6559829013688885,-2.016980129323148,19.409240010230793
6.673996027697592,-3.3338364447027873,-1.5107684432484145,-1.4618905012665806,-1.5288372436387252,19.797740023350485
6.640657663250564,-3.3491248171391743,-1.5253873482610802,-1.2639131010330757,-1.0994936294303108,20.127225149834487
6.607166415079172,-3.3601197534334775,-1.538026479271411,-1.0626408495347308,-0.7321033048970927,20.39958508895524
6.573565217544838,-3.3674407864824483,-1.5486528877667582,-0.8586449986451784,-0.4291425002243682,20.61801011370373
6.5398908096800135,-3.371732211484692,-1.55723933775321,-0.6524648975081411,-0.19244049430951993,20.78693607270848
6.5061734875651664,-3.3736566164277875,-1.5637639867282915,-0.44459553678105623,-0.02323564952521125,20.91196707810211
6.472436921400889,-3.3738889729230395,-1.5682099420961022,-0.23547586600003514,0.07774486311174961,20.99978101925631
6.438698031671659,-3.373111524291922,-1.5705647007561025,-0.025478055807472033,0.11018419240132017,21.05802436037903
6.404966916428739,-3.3720096823679087,-1.5708194813141774,0.18510218779631826,0.0740572008671045,21.095203490552407
6.37124681960506,-3.3712691103592376,-1.568968459436214,0.3960542227018423,-0.030501807972828913,21.120580064162105
6.337534128501467,-3.371574128438966,-1.5650079172091957,0.6072600233434634,-0.2033404914945507,21.144077199718684
6.303818387217078,-3.3736075333539115,-1.5589353169757612,0.8187007953406502,-0.444434065187612,21.176202005471982
6.270082311883539,-3.3780518740057874,-1.5507483090223546,1.03046281539537,-0.7540296129535075,21.22798753376843
6.236301793143481,-3.3855921701353227,-1.540443680868401,1.2427426907330543,-1.132782553271107,21.31095366076266
6.202445871442127,-3.396919995668034,-1.5280162539610704,1.4558522273406809,-1.5818765122166305,21.43708100267611
6.168476671485447,-3.4127387607902,-1.5134577316876636,1.670223037367442,-2.103113619116582,21.618783797764067
6.134349283877545,-3.433769896981366,-1.4967555013139893,1.8864108753450828,-2.6989544877406937,21.868854888770585
6.100011584907731,-3.460759441858773,-1.4778913925605384,2.1050994242327885,-3.3724734949432476,22.200335401775497
6.065403990489144,-3.4944841768082053,-1.4568403983182105,2.3271027782505436,-4.12717154673265,22.626228161332936
6.030459148721062,-3.5357558922755317,-1.433569370535705,2.553365059863873,-4.9665490503624925,23.15891862037103
5.995101589798306,-3.5854213827791566,-1.4080357199370663,2.784954246067583,-5.893276295492097,23.809076179130702
5.959247375970515,-3.6443541457340776,-1.3801861774763906,3.02304500785889,-6.907691617821018,24.583660833451784
5.922803834513174,-3.7134310619122877,-1.3499557273978018,3.2688816161934082,-8.005188175091977,25.482425028212276
5.885669523894051,-3.7934829436632076,-1.3172669112358677,3.523705866475531,-9.171793618457952,26.491943946666066
5.847734694457419,-3.8852008798477873,-1.2820298525711125,3.7886253059421917,-10.37689351158466,27.57571429568856
5.808882685658941,-3.988969814963634,-1.2441435995116905,4.064382448899077,-11.561660725509995,28.658315865684695
5.7689929875093044,-4.104586422218734,-1.2034997750226997,4.350965607555924,-12.621617403962377,29.601430403440293
5.727947123287117,-4.230802596258358,-1.1599901189471404,4.646979911590327,-13.382740800711984,30.170864745045233
5.685639097324533,-4.364630004265478,-1.1135203198312371,4.948688559040779,-13.574684159775785,29.999495291871305
5.641992797281879,-4.500376845863236,-1.0640334342408293,5.2486835119594915,-12.815643758520796,28.566304058748496
5.596989028823247,-4.628533283448443,-1.0115465991212345,5.534346552546976,-10.64396951741085,25.24034371615196
5.550703695988762,-4.734972978622552,-0.9562031335957647,5.786749989708496,-6.652291834111399,19.467279061919854
5.503353966202536,-4.801495896963666,-0.8983356336986797,5.981422780327694,-0.7565806106950463,11.14337951820411
5.4553390072329,-4.809061703070617,-0.8385214058954028,6.092856575509735,6.503635771674328,1.0314369937709789
5.407248390202194,-4.744025345353873,-0.7775928401403055,6.103170945447445,13.935499346114813,-9.202560706674635
5.359808136748655,-4.604670351892725,-0.716561130685831,6.0111453383806985,20.165125621567686,-17.65272967264856
5.313761433229728,-4.403019095677048,-0.6564496773020241,5.834618041654213,24.325339216176324,-23.131570833907862
5.269731242272957,-4.159765703515284,-0.5981034968854819,5.603302333315135,26.351793620991792,-25.575291884611946
5.228133585237805,-3.8962477673053666,-0.5420704735523306,5.347549414469015,26.73236621066599,-25.6859515344317
5.189171107564751,-3.6289241051987067,-0.48859497940764046,5.0906898991246985,26.092015695734002,-24.349153560360715
5.152881866512764,-3.3680039482413666,-0.43768808041639345,4.847198363521091,24.94036356472336,-22.283257447211184
5.11920182703035,-3.118600312594133,-0.3892160967811825,4.624365789048979,23.610295408386538,-19.95638393121687
5.088015823904409,-2.8824973585102676,-0.34297243889069273,4.4248019497368105,22.289532487347206,-17.63253255830901
5.059190850319307,-2.6596020336367956,-0.2987244193933246,4.248476624153721,21.070651828843978,-15.442529075875022
5.032594829982939,-2.448895515348356,-0.2562396531517874,4.094051333394971,19.991032302220024,-13.440290336175055
5.008105874829456,-2.2489851923261557,-0.21529913981783771,3.95964843003322,19.058627724491384,-11.638988269237162
4.985616022906194,-2.058398915081242,-0.17570265551750552,3.8432585473408487,18.266947506904817,-10.032013266642135
4.9650320337553815,-1.8757294400121935,-0.13727007004409703,3.7429384146744273,17.603226681484763,-8.604382554464689
4.9462747393552595,-1.6996971731973458,-0.09984068589735276,3.6568945891297804,17.05265875134799,-7.338640617850561
4.929277767623286,-1.529170585683866,-0.06327174000605496,3.5835081829512747,16.600461892078393,-6.217735387975818
4.9139860617664475,-1.363165966763082,-0.027436658176542207,3.5213308290715166,16.232793204791108,-5.226288969820215
4.900354402098817,-1.2008380347151708,0.007776650114172959,3.4690679393733146,15.937070648526262,-4.351042810482416
4.888346021751665,-1.041467328229908,0.042467329507906104,3.4255575112684906,15.702004093312318,-3.5808957173135916
4.877931348469366,-0.8844472872967849,0.076722904620591,3.389748554095355,15.517494847399156,-2.9067546605195687
4.869086875596397,-0.7292723388227933,0.11062039016154455,3.360681007490159,15.374486157920165,-2.3213111922747576
4.861794152208169,-0.5755274772435917,0.14422720023644614,3.3374678955674115,15.264806112131675,-1.8187992435659293
4.856038877435734,-0.42287941612227486,0.17760187919212025,3.3192799031317524,15.181022672210105,-1.3947600605491743
4.851810083274511,-0.27106918940017377,0.21079467822343778,3.3053323025262604,15.116319290499169,-1.0458245933163535
4.849099391380509,-0.11990599649518208,0.24384800124870037,3.294874056593097,15.064393810773481,-0.7695159814317043
4.847900331415557,0.03073794161255275,0.2767967418146313,3.28717889677878,15.019380538048344,-0.5640712450957991
4.848207710831683,0.18093174699303619,0.3096685307824191,3.281538184327822,14.9757940405833,-0.4282799263036886
4.850017028301613,0.33068968739886917,0.34248391262569733,3.277255385064785,14.928492676027124,-0.3613371758272322
4.8533239251756015,0.47997461415914044,0.3752564664763452,3.273642013306513,14.872659609607881,-0.36270908117130246
4.858123671317193,0.6287012102552193,0.40799288660941035,3.2700149224948,14.803799011907886,-0.4320085701933426
4.864410683419745,0.7767392003742981,0.44069303583435837,3.2656948367928664,14.717745090814415,-0.5688808356940686
4.872178075423488,0.9239166512824423,0.473349984202287,3.260006028435926,14.610681589963372,-0.7728978121733594
4.881417241936313,1.070023467182076,0.5059500444866463,3.2522770503141922,14.479169370097019,-1.043461740591167
4.892117476608133,1.2148151608830462,0.5384728149897882,3.2418424329082804,14.320179692411164,-1.37971824637166
4.904265628216963,1.358016957807158,0.570891239318871,3.228045250444564,14.131130862643808,-1.7804796112458947
4.917845797795035,1.499328266433596,0.6031716918233166,3.210240454332105,13.909925989059408,-2.24415903501889
4.932839080459371,1.63842752632419,0.6352740963666377,3.187798863981916,13.65498976836935,-2.7687166661300204
4.949223355722613,1.7749774240078837,0.6671520850064568,3.160111697320616,13.365302443179232,-3.3516180505052775
4.966973129962692,1.908630448439676,0.698753201979663,3.1265955168155632,13.040429363375617,-3.9898054400932144
4.986059434447088,2.039034742073432,0.7300191571478186,3.086697462414631,12.680544910918705,-4.679682159586206
5.006449781867823,2.1658401911826193,0.760886131771965,3.039900640818769,12.286449882164222,-5.4171100020860985
5.028108183779649,2.2887046900042614,0.7912851381801527,2.985729540797908,11.859581728063036,-6.197419461109073
