th1 (rad),w1 (rad/s),th2 (rad),w2 (rad/s),a1 (rad/s^2),a2 (rad/s^2)
3.200930086222867,0.7170318637688656,4.791744667845639,-1.7079810513308191,2.132529844365306,9.29781428882022
3.2081004048605557,0.7383571622125187,4.774664857332331,-1.615002908442617,1.9358760341857562,9.227643768266816
3.215483976482681,0.7577159225543763,4.758514828247905,-1.5227264707599488,1.7551314349521923,9.166938714010913
3.2230611357082246,0.7752672369038982,4.743287563540306,-1.4310570836198397,1.5897951646297415,9.114689784127286
3.2308138080772637,0.7911651885501956,4.728976992704107,-1.339910185778567,1.4394223326104147,9.069901892939086
3.2387254599627657,0.8055594118762998,4.715577890846321,-1.249211166849176,1.3036210439086662,9.031598452476285
3.2467810540815285,0.8185956223153864,4.703085779177829,-1.1588951823244134,1.18204873684245,8.998825080481978
3.254967010304682,0.8304161096838109,4.691496827354585,-1.0689069315195936,1.0744080452266476,8.970652890099508
3.26327117140152,0.8411601901360773,4.680807758039389,-0.9792004026185985,0.980442347208842,8.946181434987878
3.271682773302881,0.8509646136081658,4.671015754013204,-0.8897385882687198,0.8999311388883562,8.924541349465128
3.2801924194389627,0.8599639249970493,4.662118368130517,-0.8004931747740685,0.8326853505057277,8.904896695948946
3.288792058688933,0.8682907785021066,4.654113436382776,-0.711444207814579,0.7785427052015577,8.88644701103238
3.2974749664739544,0.8760762055541221,4.64699899430463,-0.6225797377042551,0.7373632042661514,8.868429026555557
3.306235728529496,0.8834498375967836,4.640773196927587,-0.5338954474386995,0.7090248077989735,8.850118032518255
3.3150702269054637,0.8905400856747734,4.635434242453201,-0.445394267113517,0.693419365346662,8.830828844061656
3.3239756277622114,0.89747427932824,4.630980299782066,-0.35708597867290043,0.6904488371649591,8.809916334391652
3.3329503705554937,0.9043787676998896,4.627409439995337,-0.26898681532898394,0.7000218332019037,8.786775498709595
3.3419941582324926,0.9113789860319086,4.624719571842047,-0.181119060341888,0.7220504838185815,8.760841020189483
3.3511079480928117,0.9185994908700944,4.622908381238628,-0.09351065013999316,0.7564476438463928,8.731586316993269
3.3602939430015124,0.9261639673085583,4.621973274737228,-0.00619478697006047,0.8031244200889616,8.698522058452548
3.369555582674598,0.934195211509448,4.621911326867528,0.08079043361446502,0.8619880020994588,8.661194148112482
3.3788975347896923,0.9428150915304425,4.622719231203672,0.16740237509558983,0.9329397672742928,8.619181180663642
3.388325685704997,0.9521444892031854,4.6243932549546285,0.25359418690222624,1.0158736242297015,8.572091388328008
3.397847130597029,0.9623032254454824,4.62692919682365,0.3393151007855063,1.1106745532265816,8.519559099611483
3.407470162851484,0.9734099709777482,4.630322347831505,0.42451069178162115,1.2172172991537924,8.461240739242532
3.4172042625612615,0.9855821439692861,4.634567454749321,0.5091230991740465,1.3353651712542967,8.396810402507299
3.427060084000954,0.9989357956818291,4.639658685741062,0.5930912031991196,1.464968904282324,8.325955040143885
3.4370494419577726,1.0135854847246524,4.6455895977730535,0.6763507536005584,1.6058655379438003,8.248369291689176
3.447185296805019,1.0296441401040903,4.652353105309059,0.7588344465174501,1.7578772750805003,8.163750006004829
3.45748173820606,1.0472229128548953,4.659941449774234,0.8404719465774985,1.9208102838723349,8.071790488043154
3.467953967334609,1.0664310156936188,4.668346169240008,0.92118985145793,2.094453415118423,7.972174511184105
3.4786182774915453,1.087375549844803,4.677558067754588,1.000911596569771,2.2785768122142174,7.864570135115742
3.489492032989993,1.1101613179669452,4.687567183720286,1.0795572979209285,2.4729303986189195,7.7486233706455385
3.5005936461696625,1.1348906219531343,4.6983627566994945,1.157043531627384,2.6772422353253136,7.62395173536069
3.511942552389194,1.1616630443063873,4.709933192015768,1.233283048980991,2.891216749101575,7.490137747964968
3.523559182832258,1.190575211797403,4.722266022505578,1.3081844264606406,3.114532841152756,7.346722414576698
3.535464934950232,1.2217205402089306,4.7353478667701845,1.3816516506064076,3.3468418955056247,7.193198767346482
3.5476821403523213,1.2551889591639869,4.7491643832762485,1.4535836382798724,3.58776571707674,7.029005524412317
3.560234029943961,1.2910666163347542,4.763700219659047,1.5238736935239956,3.836894441309798,6.853520950321096
3.5731446961073083,1.329435560747852,4.7789389565942875,1.5924089030272066,4.093784470759415,6.666057007379257
3.586439051714787,1.3703734054554462,4.79486304562456,1.6590694731009992,4.357956509349229,6.465853900623304
3.6001427857693415,1.4139529705489384,4.81145374035557,1.7237280121072323,4.628893782508859,6.252075131795271
3.614282315474831,1.460241908374027,4.828691020476643,1.786248763425185,4.906040551206389,6.023803190332215
3.628884734558571,1.5093023138860908,4.846553508110895,1.8464867953285071,5.188801050163922,5.780036021273062
3.643977757697432,1.56119032438773,4.86501837606418,1.9042871555412377,5.476539005282331,5.519684420348084
3.659589660941309,1.6159557144405534,4.884061247619592,1.9594839997447187,5.7685779123757674,5.241570514374366
3.6757492180857145,1.6736414935643111,4.90365608761704,2.0118997048884624,6.064202288429252,4.944427489265357
3.6924856330213576,1.7342835164486037,4.923775084665924,2.0613439797811157,6.3626601372608755,4.62690072707611
3.7098284681858438,1.7979101178212125,4.944388524463736,2.1076129870518767,6.6631669030090706,4.2875505058967045
3.7278075693640558,1.8645417868513032,4.965464654334254,2.150488492110844,6.964911216381772,3.924856400151076
3.7464529872325687,1.9341908990151209,4.986969539255362,2.1897370561123544,7.267062768997072,3.537223491759646
3.76579489622272,2.0068615267050918,5.0088669098164855,2.225109291029951,7.568782679122502,3.122990462230404
3.785863511489771,2.082549353496317,5.031118002726785,2.256339195652255,7.869236736233243,2.6804395793993536
3.806689005024734,2.161241720858649,5.0536813946833075,2.2831435914462483,8.167611930507816,2.2078085174814515
3.8283014222333205,2.2429178401637273,5.07651283059777,2.3052216766210627,8.463136685092696,1.7033038525823123
3.8507306006349578,2.327549207014654,5.099565047363981,2.3222547151468858,8.755105212215234,1.1651159553627635
3.874006092705104,2.4151002591368065,5.12278759451545,2.3339058747005135,9.04290640775412,0.5914348561697997
3.8981570952964724,2.505529323214348,5.146126653262455,2.3398202232622114,9.326057681818652,-0.019533515418608493
3.923212388528616,2.5987899000325343,5.1695248554950775,2.3396248881080255,9.604244094912872,-0.6695515147021145
3.9492002875289414,2.6948323409816632,5.192921104376158,2.3329293729610043,9.877363130703538,-1.3603354119444888
3.976148610938758,2.793605972288699,5.2162503981057675,2.3193260188415596,10.145575388299195,-2.0935437339166785
4.004084670661645,2.895061726171691,5.239443658294183,2.298390581502393,10.409361420831308,-2.8707698349488275
4.033035287923362,2.999155340380004,5.262427564109207,2.2696828831529046,10.669584884535215,-3.693540462250625
4.063026841327162,3.105851189225356,5.2851243929407365,2.2327474785303982,10.927562093773357,-4.563322297529134
4.094085353219416,3.2151268101630897,5.307451867726041,2.187114255555107,11.185137999330774,-5.481538609112355
4.126236621321047,3.3269781901563973,5.329323010281592,2.1322988694639835,11.444768509000086,-6.449598182078555
4.15950640322261,3.441425875246398,5.350645998976232,2.067802887643198,11.709608925280959,-7.468938526437982
4.193920661975074,3.558521964499208,5.371324027852664,1.9931135023788182,11.983608032173002,-8.541084868742006
4.229505881620066,3.678358044820938,5.391255162876452,1.9077026536913981,12.271606920995506,-9.667725411614395
4.266289462068276,3.801074114030893,5.410332189413366,1.811025399575254,12.579440820822777,-10.85080147976993
4.304300203208585,3.9268685222391206,5.428442443409119,1.7025173847775548,12.914040668352033,-12.092607940982699
4.343568888430976,4.056008928922641,5.445467617256894,1.5815913053677277,13.283528351198493,-13.395893840118784
4.384128977720203,4.188844212434626,5.461283530310571,1.4476323669665399,13.697294518709818,-14.76394408914871
4.426017419844549,4.325817157621724,5.475759853980237,1.2999929260750527,14.166038921912264,-16.200607932616165
4.469275591420766,4.467477546840847,5.488759783240988,1.137986846748891,14.701737615054723,-17.710214763430162
4.5139503668891745,4.614494922991394,5.500139651708476,0.9608846991145893,15.317474304419058,-19.297276031019052
4.560095316119089,4.767669666035585,5.509748498699622,0.7679119388043988,16.02702680764816,-20.965802440913766
4.607772012779445,4.927939934112066,5.517427618087666,0.5582539143952612,16.844021172157742,-22.717950540270646
4.657051412120565,5.096380145833644,5.523010157231619,0.3310744089925547,17.78033536343425,-24.55152432745806
4.708015213578902,5.274183499467986,5.526320901321545,0.08555916571797406,18.843222221555656,-26.45555575547794
4.7607570485735815,5.462615721683543,5.527176492978724,-0.17899639183680532,20.0302914973711,-28.402725222073993
4.815383205790417,5.6629186366572535,5.5253865290603565,-0.46302364405754526,21.321019439536663,-30.336732682467172
4.87201239215699,5.87612883105262,5.520756292619781,-0.766390970882217,22.6628987145185,-32.151986394237106
4.930773680467516,6.102757818197805,5.513092382910959,-1.087910834824588,23.950033926518028,-33.66263528466394
4.991801258649494,6.342258157462985,5.502213274562713,-1.4245371876712274,24.992995331352898,-34.55958376352944
5.055223840224124,6.592188110776514,5.487967902686001,-1.7701330253065217,25.483688328461177,-34.361461915763265
5.121145721331889,6.847024994061126,5.470266572432935,-2.1137476444641545,24.972649670163264,-32.385364916410154
5.1896159712725,7.096751490762759,5.449129095988294,-2.437601293628256,22.902461819047986,-27.80095499051834
5.260583486180127,7.325776108953239,5.424753083052011,-2.7156108435334394,18.76783357606861,-19.869631304352733
5.3338412472696595,7.513454444713925,5.397596974616677,-2.914307156576967,12.442868083421388,-8.426271292667975
5.408975791716799,7.6378831255481385,5.3684539030509075,-2.9985698695036467,4.541731199636298,5.590794074181042
5.48535462297228,7.683300437544501,5.338468204355871,-2.942661928761836,-3.563213925145154,20.106103573641683
5.562187627347725,7.647668298293049,5.309041585068252,-2.7416008930254194,-10.325793198412882,32.751552625966816
5.638664310330655,7.54441036630892,5.281625576137998,-2.414085366765751,-14.822742650764427,42.03558101019819
5.714108413993744,7.3961829398012755,5.25748472247034,-1.9937295566637692,-17.046925149146748,47.80005515558534
5.788070243391757,7.225713688309808,5.237547426903703,-1.5157290051079158,-17.581967121240243,50.77690577489444
5.860327380274855,7.049894017097405,5.222390136852623,-1.0079599473589713,-17.133486556660444,51.91558368107847
5.930826320445829,6.878559151530801,5.212310537379033,-0.4888041105481866,-16.265398541848022,51.990678629022405
5.999611911961137,6.7159051661123215,5.207422496273551,0.0311026757420374,-15.345633194034859,51.50936012623459
6.06677096362226,6.562448834171973,5.207733523030972,0.5461962770043833,-14.58562093500579,50.75891576600617
6.13239545196398,6.416592624821916,5.213195485801015,1.053785434664445,-14.094796583213364,49.881467459125055
6.196561378212199,6.275644658989782,5.2237333401476596,1.5526001092556956,-13.922388502743843,48.93416372204825
6.259317824802097,6.136420773962343,5.239259341240216,2.041941746476178,-14.083639933758983,47.929010954795814
6.32068203254172,5.9955843746247535,5.259678758704978,2.5212318560241362,-14.574619853974388,46.85716325214139
6.380637876287968,5.84983817608501,5.284891077265219,2.98980348854555,-15.380025085219298,45.703287148416116
6.439136258048817,5.696037925232817,5.314789112150675,3.446836360029711,-16.47709056002881,44.454019112321134
6.496096637301146,5.531267019632529,5.349257475750972,3.8913765511529226,-17.83754075354381,43.102957572250446
6.551409307497471,5.352891612097091,5.3881712412625005,4.322406126875427,-19.42871406914629,41.65355516006217
6.604938223618442,5.158604471405628,5.4313953025312545,4.738941678476048,-21.214498672776124,40.12063797815989
6.656524268332498,4.946459484677867,5.478784719316015,5.1401480582576475,-23.15641771564107,38.53093300631849
6.705988863179276,4.714895307521456,5.5301861998985915,5.525457388320833,-25.21501022219874,36.92281725046959
6.75313781625449,4.462745205299468,5.5854407737818,5.894685560825528,-27.351521222925655,35.34543567349026
6.797765268307485,4.189229993070212,5.644387629390055,6.24813991756043,-29.52981391700426,33.85731768067767
6.839657568238187,3.8939318539001695,5.706869028565659,6.586713094367207,-31.71833261306212,32.524615497364316
6.8785968867771885,3.5767485277695483,5.772736159509331,6.91195924934085,-33.89186538169705,31.419057275468116
6.914364372054884,3.237829873952578,5.84185575200274,7.226149822095531,-36.03276072810371,30.615612943687314
6.94674267079441,2.8775022666715406,5.914117250223695,7.532305951532404,-38.131106530151236,30.18965411077602
6.975517693461125,2.4961912013700283,5.989440309739019,7.8342024926401646,-40.18311194256692,30.212955808511744
7.000479605474825,2.094360081944359,6.067782334665421,8.136332050725281,-42.1864169400363,30.747071167130922
7.021423206294269,1.6724959125439958,6.149145655172674,8.44380276239659,-44.1300752614686,31.831123425986647
7.03814816541971,1.2311951599293098,6.23358368279664,8.762113996656456,-45.975199207676305,33.45846122975111
7.050460117019003,0.7714431678525469,6.321204822763205,9.096698608953968,-47.61942113800443,35.53245131632193
7.0581745486975285,0.2952489564725026,6.412171808852745,9.452023122117188,-48.834808871513076,37.786336911414644
7.061127038262254,-0.19309913224262815,6.506692040073917,9.829886491231335,-49.16821980904328,39.65017915641562
7.059196046939827,-0.684781330333061,6.60499090498623,10.22638828279549,-47.80883482796332,40.067696025032824
7.052348233636496,-1.1628696786126942,6.707254787814184,10.627065243045818,-43.49486163178668,37.35558852380598
7.04071953685037,-1.597818294930561,6.813525440244643,11.000621128283878,-34.69573347028253,29.422083281761395
7.024741353901064,-1.9447756296333865,6.923531651527481,11.294841961101492,-20.47408704351043,14.8962142518681
7.00529359760473,-2.149516500068491,7.036480071138496,11.443804103620172,-2.0250791170564066,-4.823625702290189
6.983798432604045,-2.169767291239055,7.150918112174698,11.39556784659727,16.64871975259709,-24.675970531575285
6.962100759691655,-2.003280093713084,7.264873790640671,11.148808141281517,30.9236543922523,-38.86170836062537
6.942067958754524,-1.6940435497905613,7.376361872053486,10.760191057675263,38.833147453950254,-45.13898014048532
6.925127523256619,-1.3057120752510587,7.483963782630238,10.30880125627041,41.46612296539506,-45.19866762445112
6.912070402504108,-0.8910508455971081,7.587051795192942,9.8568145800259,40.956737392543054,-41.92476055948165
6.903159894048137,-0.48148347167167754,7.685619940993202,9.437566974431082,38.992892793608334,-37.47790761834059
6.898345059331421,-0.09155454373559418,7.779995610737513,9.062787898247675,36.53536270517431,-33.01169750415009
6.897429513894065,0.2737990833161489,7.870623489719989,8.732670923206175,34.034866513800004,-29.01074196590007
6.900167504727226,0.6141477484541489,7.957950198952051,8.442563503547175,31.6674120997505,-25.618233668588818
6.906308982211767,0.9308218694516539,8.042375833987522,8.186381166861286,29.4798105369914,-22.828304731667746
6.915617200906284,1.225619974821568,8.124239645656136,7.9580981195446086,27.46441466454611,-20.579838338771058
6.9278734006545,1.500264121467029,8.203820626851583,7.752299736156898,25.594290578317043,-18.79764005698388
6.94287604186917,1.7562070272501993,8.281343624213152,7.564323335587059,23.838822045316608,-17.40876172012837
6.960438112141673,1.9945952477033653,8.356986857569023,7.390235718385775,22.170157052755236,-16.347894023069784
6.980384064618707,2.2162968182309175,8.430889214752881,7.226756778155077,20.56550123820847,-15.558265958881684
7.002547032801016,2.4219518306130023,8.503156782534433,7.07117411856626,19.00758052849255,-14.990901149025404
7.026766551107146,2.612027635897928,8.573868523720096,6.921265107076006,17.484328904683345,-14.603441387136078
7.052886827466125,2.786870924944761,8.643081174790856,6.775230693204645,15.988272815283905,-14.359016782288258
7.080755536715572,2.9467536530976,8.710833481722903,6.631640525381763,14.515818386394393,-14.22532262731615
7.110223073246548,3.091911836961544,8.77714988697672,6.489387299108602,13.066529659876219,-14.173927964809122
7.141142191616163,3.222577133560306,8.842043759967805,6.34764801946051,11.642435637300856,-14.179787432981787
7.173367962951766,3.339001489933315,8.90552024016241,6.205850145130692,10.247383648871837,-14.220910671432618
7.206757977851099,3.4414753264220335,8.967578741613718,6.063641038416366,8.886449112736482,-14.27814204410518
7.24117273111532,3.530339817549398,9.02821515199788,5.920859617975314,7.565409057464766,-14.33500864947079
7.276476129290814,3.6059939081240455,9.087423748177633,5.7775095314806055,6.290285276506907,-14.377602441578333
7.312536068372054,3.6688967608891145,9.14519884349244,5.6337335070648225,5.066961271583887,-14.394470833402888
7.349225035980946,3.7195663736049536,9.201536178563087,5.489788798730793,3.9008748838081737,-14.376498382978921
7.386420699716996,3.7585751224430353,9.256434066550394,5.346023814901004,2.7967858547165183,-14.316769493635158
7.424006450941426,3.7865429809902005,9.309894304699403,5.202856119964653,1.7586148304138374,-14.210408155747416
7.461871880751328,3.804129129294339,9.36192286589905,5.060752038407179,0.7893478559164064,-14.05439545753634
7.4999131720442715,3.812022607853503,9.412530386283121,4.920208083831815,-0.10900153914334666,-13.847368880612763
7.538033398122806,3.8109325924620694,9.46173246712144,4.781734395025687,-0.9353818427012988,-13.589409375011305
7.576142724047427,3.8015787740350566,9.509549811071697,4.645840301275574,-1.6896544105377593,-13.281823067288787
7.614158511787778,3.784682229929679,9.556008214084452,4.513022070602686,-2.3725153626290387,-12.926924432189859
7.652005334087075,3.7609570763033884,9.601138434790478,4.383752826280787,-2.9853976344079194,-12.527827105672836
7.689614904850109,3.7311030999593093,9.644975963053286,4.258474555224059,-3.530361321027432,-12.088247472065817
7.726925935849702,3.695799486749035,9.687560708605526,4.137592080503401,-4.009979248941554,-11.612324923544884
7.763883930717193,3.6556996942596194,9.72893662941056,4.021468831267952,-4.42722340572737,-11.104461424253214
7.800440927659789,3.6114274602023455,9.76915131772324,3.9104242170254198,-4.785356563953926,-10.56918182627978
7.836555202261812,3.5635738945628064,9.808255559893494,3.804732398762622,-5.087832226651182,-10.011015350403975
7.872190941207441,3.5126955722962947,9.84630288388112,3.7046222452585824,-5.338204950979061,-9.434397796367104
7.907317896930404,3.459313522786504,9.883349106333707,3.610278267294911,-5.5400521993301055,-8.84359339475829
7.941911032158269,3.403913000793203,9.919451889006655,3.5218423333473283,-5.696908130762235,-8.242634746804391
7.9759501621662015,3.3469439194855806,9.954670312340129,3.4394159858792843,-5.812209174347266,-7.635278999880032
8.009419601361058,3.2888218277421077,9.989064472198923,3.363063195880484,-5.889250805094073,-7.024978250268855
8.042307819638479,3.229929319691167,10.022695104157727,3.2928134133777958,-5.93115465316646,-6.414862123730514
8.074607112835391,3.1706177731595027,10.055623238291505,3.2286647921404907,-5.940844896913816,-5.807730532658091
8.106313290566986,3.1112093241903644,10.087909886212909,3.17058748681391,-5.921032798680094,-5.206054722229108
8.137425383808889,3.0519989962035634,10.119615761081048,3.118526939591619,-5.874208219804947,-4.611984876194972
8.167945373770925,2.993256914005514,10.150801030476964,3.0724070908296692,-5.802636980203069,-4.0273627383892165
