th1 (rad),w1 (rad/s),th2 (rad),w2 (rad/s)
1.6797101623872865,-1.699233373596281,1.3098257964909847,-0.5173357945084582
1.6627178286513238,-1.8029402256757936,1.3046524385459002,-0.5048862967851643
1.6446884263945658,-1.908194902623996,1.2996035755780486,-0.4894647471021854
1.6256064773683259,-2.0149890901481697,1.2947089281070268,-0.47106737498619455
1.6054565864668442,-2.123286380566145,1.2899982543571649,-0.44974256362948367
1.5842237226611828,-2.233015766286312,1.28550082872087,-0.42560240173521524
1.5618935649983197,-2.3440639625287774,1.2812448047035179,-0.3988360286736134
1.538452925373032,-2.4562665483544563,1.2772564444167818,-0.36972472877235846
1.5138902598894874,-2.5693980362993605,1.273559197129058,-0.33865853180827826
1.4881962795264938,-2.6831611672454296,1.2701726118109753,-0.30615377938788624
1.4613646678540395,-2.7971759917391386,1.2671110740170963,-0.27287070228793586
1.433392907936648,-2.9109696459661345,1.264382366994217,-0.23962951715145037
1.4042832114769868,-3.0239681448338294,1.2619860718227025,-0.20742291652056977
1.3740435300286484,-3.135491947913825,1.259911842657497,-0.17742216763538546
1.3426886105495102,-3.2447574113110917,1.258137620981143,-0.1509734958826444
1.3102410364363992,-3.350886371447747,1.2566278860223166,-0.12958123038084082
1.2767321727219219,-3.4529258265457496,1.255332073718508,-0.11487461380988524
1.2422029144564644,-3.5498788056841613,1.2541833275804093,-0.10855649958819608
1.2067041263996228,-3.6407459532746094,1.2530977625845274,-0.11233451541187664
1.1702966668668766,-3.7245752195204767,1.2519744174304086,-0.12783850602259528
1.1330509146716718,-3.8005147288241203,1.2506960323701826,-0.15653160545925235
1.0950457673834306,-3.867862053967159,1.24913071631559,-0.19962516518616144
1.056367146843759,-3.926102490785574,1.2471344646637283,-0.25800888447477927
1.0171061219359032,-3.974930008917268,1.2445543758189805,-0.3322060860051581
0.9773568218467306,-4.014247312940798,1.241232314958929,-0.42236016433159806
0.9372143487173226,-4.044145212217614,1.2370087133156131,-0.5282527533837356
0.8967728965951465,-4.0648651803265645,1.2317261857817758,-0.6493486832700098
0.8561242447918809,-4.07675153916678,1.2252326989490758,-0.7848588723235634
0.8153567294002131,-4.08020055256545,1.2173841102258403,-0.9338108152194773
0.7745547238745586,-4.075612924542187,1.2080460020736454,-1.095117246101225
0.7337985946291368,-4.063354327774568,1.1970948296126331,-1.2676361092424582
0.6931650513513911,-4.043726368634159,1.1844184685202086,-1.4502181164222065
0.6527277876650495,-4.016948429040642,1.1699162873559865,-1.6417410258500602
0.612558303374643,-3.9831494393744684,1.1534988770974859,-1.8411318403446455
0.5727268089808983,-3.9423678903314876,1.1350875586940394,-2.047379273762598
0.5333031300775835,-3.8945581718918088,1.1146137659564135,-2.259539210633943
0.49435754835866536,-3.839601455860473,1.092018373850074,-2.476735725675424
0.4559615338000606,-3.777319646183226,1.0672510165933198,-2.698159773997445
0.41818833733822836,-3.7074912857843856,1.0402694188533452,-2.9230670879622394
0.3811134244803845,-3.6298686592301572,1.0110387479737228,-3.150776232020208
0.3448147378880829,-3.5441956389489713,0.9795309856535208,-3.3806672234630786
0.3093727814985932,-3.450226090094489,0.9457243134188901,-3.612180635486891
0.2748705205976483,-3.3477428938213416,0.9096025070640211,-3.8448166453486263
0.2413930916594349,-3.2365778981120585,0.8711543406105349,-4.07813304739097
0.20902731267831431,-3.116633390265564,0.8303730101366251,-4.311740784116388
0.17786097877565868,-2.987906036337238,0.7872556022954612,-4.54529502134652
0.1479819184122863,-2.850514675912102,0.741802652081996,-4.778479170602354
0.11947677165316528,-2.7047339079533628,0.6940178603759725,-5.010978519156059
0.09242943257363165,-2.55103603688216,0.6439080751844118,-5.242439274008657
0.06691907220481005,-2.390144584925951,0.5914836824443253,-5.472407944709946
0.043017626355550544,-2.2231030083962153,0.5367596029972258,-5.700245324708982
0.02078659627158839,-2.051362044109872,0.479757149750136,-5.925009425348473
0.0002729758304896718,-1.8768874418967685,0.4205070554966513,-6.1453036243789345
-0.018495898588478013,-1.7022853564086755,0.35905401925286196,-6.359091812437634
-0.03551875215256477,-1.530933459857051,0.2954631011284856,-6.563494076273058
-0.050828086751135274,-1.3670899060164818,0.22982816036575504,-6.754597286887978
-0.06449898581130009,-1.2159292642564719,0.16228218749687526,-6.927345691445083
-0.0766582784538648,-1.083429394481045,0.09300873058242443,-7.075611122808759
-0.08749257239867525,-0.9760212616015271,0.02225261935433684,-7.192560749770531
-0.09725278501469052,-0.8999421689426803,-0.04967298814336847,-7.271406084827783
-0.10625220670411732,-0.8603284068721423,-0.1223870489916463,-7.3064942660397465
-0.11485549077283874,-0.8602372075047212,-0.19545199165204377,-7.294502023078266
-0.12345786284788596,-0.8999211956744797,-0.26839701188282644,-7.235318505426032
-0.13245707480463076,-0.9766671147876429,-0.34075019693708675,-7.1322193486969585
-0.1422237459525072,-1.0853002039197386,-0.4120723904240563,-6.991210766374189
-0.1530767479917046,-1.2191600969644742,-0.4819844980877982,-6.81980515378064
-0.16526834896134934,-1.37117943017857,-0.5501825496256046,-6.625706878396413
-0.17898014326313505,-1.5347422046969204,-0.6164396184095687,-6.415813770027016
-0.19432756531010426,-1.704181676162202,-0.6805977561098389,-6.195694611707553
-0.21136938207172629,-1.8749484095203237,-0.7425547022269143,-5.969483138978583
-0.23011886616692953,-2.043559970195224,-0.8022495336167002,-5.740032528133291
-0.25055446586888175,-2.207445048472271,-0.859649858898033,-5.509181317922165
-0.2726289163536045,-2.364760477313489,-0.9147416720772547,-5.278031765895652
-0.29627652112673936,-2.5142228841983227,-0.9675219897362112,-5.0471913483413795
-0.3214187499687226,-2.6549708676940864,-1.017993903219625,-4.816961529599356
-0.34796845864566345,-2.786459344043246,-1.0661635185156186,-4.58747539071228
-0.3758330520860959,-2.908381529809253,-1.1120382724227413,-4.3587926059092466
-0.4049168673841884,-3.020612330855317,-1.155626198481834,-4.13096157409171
-0.4351229906927416,-3.1231672760891844,-1.196935814222751,-3.9040574576937095
-0.4663546634536334,-3.216172229633936,-1.2359763887996882,-3.6782031381531373
-0.49851638574997276,-3.2998403047129194,-1.2727584201812197,-3.453578406532091
-0.5315147887971019,-3.3744534374893527,-1.3072942042465405,-3.2304213190550666
-0.5652593231719955,-3.440346893660219,-1.3395984174370912,-3.009024589931437
-0.5996627921085976,-3.497895585328333,-1.3696886633364056,-2.789729116621515
-0.634641747961881,-3.547501506288657,-1.3975859545026208,-2.5729161671295464
-0.6701167630247675,-3.589581889545958,-1.4233151161739164,-2.358999343458889
-0.7060125819202271,-3.624557886553579,-1.4469051096085053,-2.14841712227521
-0.7422581607857629,-3.652843692291218,-1.4683892808312573,-1.9416265284971683
-0.7787865977086751,-3.674836117418909,-1.487805546116229,-1.7390982956291525
-0.8155349588828642,-3.6909046575725464,-1.5051965290725204,-1.541313690881261
-0.8524440054585897,-3.70138214633547,-1.520609665981333,-1.3487630205894028
-0.8894578269219444,-3.706556115883885,-1.534097296187227,-1.1619456718012
-0.9265233880807833,-3.7066610387950423,-1.545716752905239,-0.9813713804503482
-0.9635899984687337,-3.7018716944262424,-1.5555304667097425,-0.8075622385232978
-1.0006087154129961,-3.6922979983257322,-1.5636060890949754,-0.6410547586712838
-1.0375316953962535,-3.6779817523411595,-1.5700166366816883,-0.48240110791171725
-1.074311512919665,-3.658895906765978,-1.5748406477608055,-0.3321684164206409
-1.1109004719873248,-3.634947051856197,-1.5781623319250118,-0.19093489349794635
-1.1472499425058869,-3.6059819361600076,-1.5800716808599913,-0.05928139286848455
-1.1833097618674868,-3.5717987877836976,-1.580664494788676,0.06222286063183004
-1.2190277497453237,-3.532164023438876,-1.5800422661823579,0.17304134833472906
-1.2543493899797125,-3.4868345015698456,-1.5783118526990105,0.2726984394700189
-1.2892177349954108,-3.435584770958845,-1.5755848683043103,0.36081392305078314
-1.3235735827049993,-3.378237811846817,-1.5719767290738025,0.4371417385103779
-1.3573559608234673,-3.314696692683287,-1.5676053116886988,0.5016092086400536
-1.3905029277503003,-3.2449736187093228,-1.5625892196022981,0.5543517439430622
-1.4229526639373935,-3.169212355312213,-1.5570457021628674,0.5957373315798347
-1.4546447874905157,-3.0877002756398086,-1.5510883288470692,0.6263755762469945
-1.4855217902469138,-3.000867451642765,-1.5448245730845993,0.6471078162293588
-1.5155304647633414,-2.9092721416308436,-1.5383534949223057,0.6589776787446835
-1.5446231861796498,-2.81357428927951,-1.531763718134859,0.6631847221922214
-1.5727589290724449,-2.714500635159154,-1.5251318709129367,0.6610266622679832
-1.5999039354240363,-2.612806212245195,-1.5185216042902567,0.6538373173152116
-1.6260319975464883,-2.5092370897859437,-1.5119832311171046,0.6429274671720618
-1.6511243684443477,-2.404498345109223,-1.505553956445384,0.6295344557554304
-1.67516935189544,-2.2992297589098185,-1.4992586118878297,0.6147841397673529
-1.6981616494845382,-2.193990118602647,-1.4931107704901563,0.5996663865100855
-1.7201015506705646,-2.08924966312869,-1.4871141066250555,0.5850233178294117
-1.7409940473018515,-1.9853893158968674,-1.4812638734467614,0.5715481829715611
-1.7608479404608202,-1.8827049533478832,-1.4755483916170458,0.5597921530188593
-1.779674989994299,-1.781414947202809,-1.469950470086857,0.550176319062233
-1.797489139466327,-1.6816694545592543,-1.4644487068962349,0.5430065323921461
-1.8143058340119196,-1.5835602765099501,-1.4590186415723134,0.5384892477737292
-1.830141436777019,-1.4871304644070584,-1.453633749094576,0.5367470738774169
-1.8450127414210895,-1.392383166134723,-1.448266278355802,0.537833212451925
-1.8589365730824368,-1.299289449133461,-1.4428879462312827,0.5417443436370596
-1.8719294675737714,-1.2077950106493578,-1.4374705027949122,0.5484317852473675
-1.884007417680265,-1.1178257984058593,-1.4319861849424385,0.5578109325014085
-1.8951856756643237,-1.0292926303709926,-1.4264080756174244,0.5697690915286446
-1.9054786019680336,-0.9420949341066118,-1.420710384702138,0.5841718750894721
-1.9148995513090998,-0.8561237357727939,-1.4148686659512433,0.6008683493284463
-1.9234607886668278,-0.7712640249315372,-1.4088599824579588,0.6196951191615426
-1.931173428916143,-0.6873966100118057,-1.4026630312663435,0.6404795264642256
-1.938047395016261,-0.6043995647483098,-1.3962582360017013,0.6630421158972756
-1.9440913906637443,-0.5221493506240943,-1.3896278148427286,0.6871985019847023
-1.9493128841699852,-0.44052168578174533,-1.3827558298228815,0.7127607503064358
-1.9537181010278026,-0.3593922177510333,-1.375628222319817,0.7395383666515869
-1.957312023205313,-0.27863704595281336,-1.3682328386533011,0.7673389712579799
-1.960098393664841,-0.19813313029561602,-1.3605594489407213,0.7959687209790753
-1.9620797249677973,-0.11775861415528124,-1.3525997617309307,0.8252325302714985
-1.96325731110935,-0.03739308342605038,-1.3443474364282157,0.8549341320677045
-1.9636312419436106,0.04308222205914121,-1.3357980951075388,0.8848760116253751
-1.9632004197230193,0.12378423282745782,-1.326949334991285,0.9148592400605402
-1.9619625773947447,0.204827901440858,-1.3178007425906797,0.94468322922619
-1.9599142983803362,0.2863260761165927,-1.3083539102984179,0.9741454256722042
-1.9570510376191703,0.3683893932567653,-1.2986124560416958,1.0030409584279714
-1.9533671436866027,0.4511261878341124,-1.288582046457416,1.0311622531301967
-1.9488558818082615,0.5346424222422518,-1.278270423926114,1.0582986234489935
-1.943509457585839,0.619041635621809,-1.267687437691624,1.0842358497465112
-1.9373190412296208,0.7044249168636869,-1.256845079194159,1.108755754360197
-1.930274792060984,0.7908909054923446,-1.245757521650557,1.1316357827869983
-1.9223658830060606,0.8785358254506214,-1.234441163822687,1.1526486003287189
-1.9135805247515545,0.9674535574275528,-1.2229146778194,1.1715617144407
-1.903905989177279,1.057735755752033,-1.211199060674993,1.1881371341332865
-1.8933286316197586,1.149472015949815,-1.1993176893336601,1.2021310793705098
-1.8818339114602605,1.2427500987256808,-1.187296378539955,1.2132937556004062
-1.8694064104730037,1.3376562152381288,-1.175163440983951,1.2213692115027572
-1.8560298483206223,1.4342753768736587,-1.1629497488689235,1.2260953019982614
-1.8416870945518857,1.5326918100177287,-1.150688795848941,1.2272037838802616
-1.8263601764517083,1.6329894321735592,-1.1384167580101383,1.224420578602271
-1.8100302821299727,1.7352523796756918,-1.1261725522241155,1.2174662464721602
-1.7926777583332159,1.8395655684782055,-1.1139978897593938,1.2060567297184266
-1.774282102648434,1.9460152571211409,-1.1019373224622095,1.189904439904835
-1.7548219500772224,2.0546895637259643,-1.0900382780631612,1.1687197897348307
-1.7342750544399628,2.1656788650557526,-1.078351080165813,1.1422133027597263
-1.7126182657894053,2.2790759730743146,-1.0669289471382157,1.1100984799929317
-1.6898275060586623,2.394975940157078,-1.0558279623382865,1.0720956639689225
-1.6658777466570915,2.513475284457972,-1.0451070056985972,1.0279372234702118
-1.6407429938125118,2.6346703473742057,-1.034827633463895,0.9773744921840959
-1.6143962903387696,2.7586543902647973,-1.0250538885420541,0.9201870390303497
-1.5868097464361217,2.8855129019546384,-1.0158520181517507,0.8561950340013835
-1.5579546174165753,3.0153164173643074,-1.007290067811737,0.785275706458477
-1.5278014532429323,3.1481099395629624,-0.9994373107471521,0.7073851725855826
-1.4963203538473027,3.2838978197913296,-0.9923634590212963,0.6225872215703334
-1.4634813756493894,3.422622707110569,-0.9861375868055929,0.5310909560357832
-1.4292551485782836,3.5641369884091283,-0.9808266772452351,0.4332993927414236
-1.3936137786941922,3.7081651135269773,-0.9764936833178208,0.3298710739204114
-1.3565321275589224,3.8542555398231495,-0.9731949725786168,0.22179611987485542
-1.317989572160691,4.001722057511297,-0.9709770113798682,0.11048649762954085
-1.2779723515855779,4.149576427872607,-0.9698721464035729,-0.0021230726983339915
-1.2364765873068517,4.296458111086412,-0.9698933771305562,-0.11347295914623484
-1.1935120061959876,4.440572750889691,-0.9710281067220186,-0.2202933614821777
-1.1491062786870907,4.579658706943935,-0.9732310403368404,-0.3185653347447958
-1.1033096916176512,4.711008423267076,-0.9764166936842883,-0.40356837066067575
-1.0561996073849804,4.831574505210883,-0.9804523773908951,-0.470059081682965
-1.0078838623328716,4.938182473656972,-0.9851529682077247,-0.5126135425376819
-0.9585020375963019,5.027847264196782,-0.9902791036331015,-0.5261288157258736
-0.9082235649543341,5.098149554592339,-0.9955403917903601,-0.506418412050716
-0.8572420694084107,5.147585353509666,-1.0006045759108673,-0.4507728712676836
-0.8057662158733141,5.175784190083662,-1.0051123046235442,-0.35832858592093464
-0.7540083739724774,5.183519358749229,-1.0086955904827535,-0.230127476860678
-0.7021731803849851,5.172503065570389,-1.0109968652513603,-0.0688509130951647
-0.6504481497292812,5.145034418204552,-1.011685374382312,0.12167769522236746
-0.5989978055472357,5.10360778118586,-1.0104685974300882,0.3370662091210269
-0.5479617277353771,5.0505780044043584,-1.007097935338878,0.5728599704980939
-0.4974559476913335,4.98793519754497,-1.001369335633897,0.8248994312296414
-0.4475765957158838,4.9171951388863215,-0.9931203413216007,1.089515253480832
-0.3984046443270206,4.839381811693498,-0.9822251887867923,1.3635912622387607
-0.3500108262100856,4.755069015569532,-0.9685892761644047,1.6445413282163812
-0.30246013605439026,4.664451697890913,-0.952143862882241,1.9302424272920018
-0.2558156190754811,4.567426454000548,-0.9328414386093209,2.2189542493581746
-0.21014135453547564,4.4636692821449415,-0.9106518961157392,2.5092434909737054
-0.16550466171402622,4.352705033510651,-0.8855594612060022,2.799921611342347
-0.12197761137891971,4.233966888063497,-0.8575602450925787,3.0899988134292737
-0.07963794249828474,4.106846204063692,-0.8266602569582859,3.3786536219246757
-0.03856948045764781,3.970733934448554,-0.7928737207390392,3.6652157485968955
0.0011378588868377337,3.8250550354926434,-0.7562215632530702,3.9491592155517754
0.03938840924176417,3.6692972895973703,-0.7167299710975524,4.230102441190095
0.07608138213773788,3.503035960477914,-0.6744289466856515,4.507811867106746
0.11111174174251702,3.325955842757246,-0.629350828014584,4.78220551952032
0.14437130017008948,3.1378726618530326,-0.5815287728193808,5.053352512616495
0.1757500267886198,2.9387565127262096,-0.5309952476932158,5.321463777300575
0.2051375919158819,2.728761189250685,-0.4777806099202101,5.586868079993608
0.23242520380838877,2.5082649446149436,-0.42191192912027403,5.849965498512123
0.2575078532545382,2.277930503845582,-0.3634122741351528,6.11114777322073
0.280287158292994,2.038794959948041,-0.3023007964029455,6.370671320827965
0.3006751078924744,1.7924030890819542,-0.23859408319466585,6.6284646237554705
0.318599138783294,1.5409992867526336,-0.17230943695711115,6.883848804887571
0.3340091316508203,1.2877905669592646,-0.10347094890823544,7.13515258806221
0.3468870373204129,1.0372794011652884,-0.032119423027613336,7.379219179939689
0.3572598313320658,0.7956296982094856,0.04167276877178355,7.610847802582925
0.36521612831416067,0.5709588329493833,0.1177812467976128,7.822305151796809
0.3709257166436545,0.37334091198674596,0.1960042983155809,8.00318691621794
0.37465912576352195,0.21420206151724389,0.2760361674777603,8.141054245744549
0.3768011463786944,0.10481172844604572,0.3574467099352058,8.223248880963624
0.37784926366315486,0.053906030907760485,0.439679198744842,8.23985859014921
0.3783883239722325,0.0651429199657295,0.5220777846463341,8.186927756310633
0.37903975317188976,0.13564153589122846,0.6039470622094405,8.068278736806425
0.38039616853080205,0.2565705263778949,0.6846298495775047,7.894700557002521
0.382961873794581,0.4155532503240488,0.7635768551475299,7.680847773528052
0.3871174062978215,0.5995923632320239,0.8403853328828105,7.441569715592955
0.39311332993014175,0.7972400767864041,0.91480103003874,7.189305752887116
0.4010857306980058,0.9995626936613136,0.9866940875676112,6.933069544855654
0.41108135763461895,1.200164470991143,1.0560247830161678,6.678618272549392
0.4230830023445304,1.3947470462217197,1.1228109657416616,6.42916207265569
0.43703047280674756,1.58056178707668,1.1871025864682185,6.186153003605852
0.45283609067751435,1.7559302621203106,1.248964116504277,5.949942366557274
0.47039539329871743,1.9198836211818477,1.30846354016985,5.720257157036948
0.4895942295105359,2.0719133326582693,1.3656661117402193,5.496517659499126
0.5103133628371186,2.2118076490797054,1.4206312883352106,5.278036834908862
0.5324314393279156,2.3395479717238836,1.4734116566842992,5.0641388731670265
0.5558269190451545,2.4552447166812077,1.5240530454159695,4.854225081254576
0.5803793662119665,2.559098195553236,1.5725952962285152,4.647806477499563
0.6059703481674988,2.651374794421031,1.6190733610035108,4.444515779513663
0.6324840961117092,2.7323921649913117,1.6635185187986474,4.244106885284705
0.6598080177616223,2.802509473669739,1.7059595876514946,4.046446960353068
0.6878331124983197,2.8621202929411678,1.7464240572550254,3.8515043570072263
0.7164543154277314,2.9116467173332823,1.7849391008250977,3.65933441734468
0.7455707826010642,2.9515339251715345,1.8215324449985444,3.47006448420886
0.7750861218527796,2.982244810266923,1.856233089840633,3.283878988880346
0.8049085699554488,3.00425455550456,1.8890718797294364,3.10100519303682
0.8349511155104944,3.0180451658139673,1.9200819316598046,2.9216999683999427
0.865131567168634,3.0241000558694284,1.949298931343804,2.7462378611364855
0.8953725677273283,3.0228988212236043,1.9767613099551689,2.574900586700941
0.9256015559395644,3.014912326190176,2.002510315822178,2.4079680217723496
0.9557506792014662,3.000598228640856,2.0265899960399016,2.2457106965828766
0.9857566614878748,2.980397038722111,2.0490471030057305,2.088383739925427
