th1 (rad),w1 (rad/s),th2 (rad),w2 (rad/s),a1 (rad/s^2),a2 (rad/s^2)
5.029855633901195,0.14787649174311057,4.0240891315593625,0.8471465549527488,8.143289839100785,3.2270230295374165
5.031334398818626,0.22930939013411844,4.03256059710889,0.879416785248123,8.091391058311444,3.2853393521724734
5.033627492719967,0.3102233007172329,4.041354764961371,0.9122701787698477,8.030353697433965,3.364827884452006
5.036729725727139,0.3905268376915726,4.0504774667490695,0.9459184576143678,7.959852978553191,3.465213366676445
5.040634994104055,0.47012536747710454,4.059936651325213,0.9805705912811322,7.879566055382052,3.586169169168103
5.045336247778826,0.548921028030925,4.069742357238024,1.0164322829728132,7.789170354051539,3.7273163820011086
5.050825458059135,0.6268127315714405,4.079906680067752,1.0537054467928242,7.688341389681749,3.8882230267870863
5.05709358537485,0.703696145468258,4.09044373453568,1.092587677060695,7.576750144595789,4.06840340519424
5.064130546829532,0.7794636469142159,4.1013696113062865,1.1332717111126374,7.45406010151712,4.267317606406178
5.071925183298674,0.8540042479293871,4.112702328417413,1.175944887176699,7.319924032646158,4.484371205219923
5.080465225777968,0.9272034882558486,4.12446177728918,1.2207885992288983,7.173980653384945,4.718915193422759
5.0897372606605265,0.9989432947896981,4.136669663281469,1.2679777511631258,7.015851257819779,4.970246199006592
5.099726693608424,1.069101807367896,4.149349440793101,1.3176802131531917,6.845136461914476,5.237607060275538
5.110417711682103,1.1375531719870406,4.162526242924632,1.3700562837559471,6.6614131896154944,5.520187834641898
5.121793243401973,1.2041673038831955,4.176226805762192,1.425258162102366,6.464232046500804,5.817127334588516
5.133834916440804,1.2688096243482034,4.190479387383215,1.4834294354482513,6.253115234882508,6.127515295589997
5.146523012684287,1.3313407766970284,4.205313681737698,1.5447045884041513,6.027555172984432,6.450395292339294
5.159836420451257,1.3916163284268728,4.220760727621739,1.6092085413275443,5.787013988510995,6.784768529862756
5.173752583735526,1.4494864683119828,4.236852813035014,1.677056226626172,5.530924063178216,7.129598644208829
5.188247448418646,1.504795708943765,4.2536233753012755,1.7483522130682603,5.258689809265727,7.483817652184288
5.203295405508084,1.5573826070364223,4.271106897431958,1.8231903895901032,4.9696908618336595,7.846333189437951
5.218869231578448,1.6070795156547588,4.289338801327859,1.9016537214844826,4.663286871098004,8.216037168819792
5.2349400267349955,1.6537123843657389,4.308355338542704,1.9838140931726806,4.33882407918813,8.591815973425915
5.251477150578653,1.6971006251576202,4.328193479474431,2.06973225290694,3.995643865369853,8.972562267267822
5.268448156830229,1.7370570638113187,4.3488908020035,2.1594578755796183,3.6330934459323094,9.357188456221657
5.285818727468342,1.7733879982706418,4.3704853807592965,2.253029760141835,3.2505389226266392,9.744641756661483
5.303552607451048,1.805893387496908,4.393015678360715,2.3504761777084497,2.847380891742638,10.133920721151505
5.321611541326018,1.8343671964143344,4.4165204401378,2.4518153849199646,2.4230728617146737,10.524092919795635
5.339955213290161,1.8585979250314812,4.441038593987,2.5570563141179212,1.977142790546514,10.914313269461378
5.358541192540476,1.8783693529369463,4.466609157128179,2.666199446812535,1.5092181591480662,11.303842224319839
5.377324886069845,1.893461534528427,4.493271151596304,2.779237869055734,1.0190551617362515,11.692062667777442
5.396259501415129,1.9036520861457895,4.521063530286861,2.8961584957335083,0.5065728451925042,12.078493848276263
5.4152960222765865,1.9087178145977146,4.550025115244196,3.016943434216271,-0.028106600392949137,12.462800039766394
5.434383200422563,1.9084367485937852,4.580194549586359,3.141571434613935,-0.5846096631265609,12.84479072828918
5.453467567908501,1.9025906519625195,4.611610263932499,3.270019341896827,-1.1622529488308497,13.224407957265758
5.472493474428126,1.890968122474211,4.644310457351467,3.4022634214694842,-1.759970691664734,13.601694910882053
5.491403155652868,1.8733684155575636,4.678333091566162,3.538280370578305,-2.3762233482649773,13.976737754957453
5.510136839808444,1.849606182074914,4.713715895271945,3.6780477481278795,-3.0088803527772248,14.349570036158024
5.5286329016291935,1.8195173785471417,4.750496372753224,3.82154344848946,-3.655067565864978,14.72002538836124
5.546828075414665,1.782966702888492,4.788711807238118,3.9687437023730725,-4.310966697608279,15.08751973470359
5.564657742443551,1.739857035912409,4.828399244261849,4.119618899720108,-4.9715499888976264,15.450738490936327
5.582056312802675,1.6901415360234329,4.86959543325905,4.274126284629472,-5.630228836935605,15.807197546470569
5.598957728162909,1.6338392476540768,4.912336696105345,4.432198260094178,-6.2783903599197775,16.15263955052844
5.615296120639449,1.5710553440548791,4.956658678706287,4.593724655599463,-6.9047923666153075,16.48022072275083
5.631006674079998,1.5020074203887261,5.002595925262281,4.758526862826971,-7.494787450085166,16.77944128060393
5.6460267482838855,1.4270595458878745,5.050181193890551,4.9263212756330095,-8.029355950901653,17.034781019178144
5.660297343742764,1.346765986378858,5.099444406646881,5.096669085824791,-8.483954104161752,17.224032111993786
5.673765003606553,1.2619264453372403,5.1504110975051285,5.268909406944729,-8.827241930561334,17.316392783357237
5.686384268059925,1.173654026031627,5.203100191574576,5.442073334778302,-9.01986555031255,17.270525808924987
5.698120808320241,1.0834553705285015,5.257520924922359,5.614778592867552,-9.013653814860835,17.03302767664294
5.7089553620255264,0.9933188323798932,5.313668710851034,5.785108869633981,-8.751863010959005,16.53811926840322
5.718888550349325,0.9058002022703031,5.371519799547373,5.950490062318013,-8.171438101750775,15.709825310399664
5.727946552372028,0.8240858212527954,5.431024700170553,6.10758831542201,-7.208527621926086,14.468294251350978
5.736187410584556,0.7520005450335345,5.492100583324773,6.2522712579355195,-5.80839694398297,12.741832646052972
5.7437074160348915,0.6939165755937048,5.554623295904128,6.379689584396049,-3.939964524804054,10.485062445990756
5.7506465817908285,0.6545169303456643,5.618420191748089,6.4845402088559565,-1.6130263698030598,7.700793792750334
5.757191751094285,0.6383866666476337,5.683265593836649,6.56154814678346,1.1069175118313097,4.45905289502021
5.763575617760761,0.6494558417659467,5.7488810753044834,6.606138675733662,4.093831124144496,0.9033839000865984
5.770070176178421,0.6903941530073917,5.81494246206182,6.615172514734528,7.172941871996375,-2.7641767363973577
5.776974117708495,0.7621235717273555,5.8810941872091655,6.587530747370555,10.149592939094575,-6.319827225892654
5.784595353425768,0.8636195011183012,5.946969494682871,6.5243324751116285,12.846503255045043,-9.564909013281378
5.793231548436951,0.9920845336687516,6.012212819433987,6.4286833849788145,15.135304908749845,-12.364520586464558
5.803152393773639,1.14343758275625,6.076499653283776,6.3050381791141685,16.951188971429975,-14.663661658136716
5.814586769601202,1.3129494724705497,6.139550035074917,6.158401562532801,18.288747662845033,-16.47914507398693
5.8277162643259075,1.495836949099,6.2011340507002455,5.993610111792932,19.185516725845144,-17.87641510401861
5.842674633816897,1.6876921163574514,6.261070151818175,5.814845960752746,19.702326756003576,-18.943384423894383
5.859551554980472,1.8847153839174873,6.319218611425702,5.625412116513802,19.90702862376382,-19.76964552165796
5.878398708819647,2.0837856701551254,6.375472732590841,5.427715661297222,19.86406559762042,-20.4338665446529
5.899236565521199,2.2824263261313296,6.429749889203813,5.2233769958506935,19.629415855625723,-20.998366417834447
5.922060828782512,2.478720484687587,6.48198365916232,5.013393331672349,19.249240565836008,-21.508458706196137
5.946848033629388,2.671212890345947,6.532117592479043,4.798308744610387,18.760571540602125,-21.994296167903958
5.973560162532848,2.858818605751968,6.580100679925147,4.578365782931348,18.19283763056772,-22.473647852040983
6.002148348590367,3.0407469820576454,6.625884337754461,4.353629304410938,17.569522829881347,-22.954725801621073
6.032555818410944,3.2164422103564587,6.66942063079857,4.124082046394728,16.909610747702924,-23.438656612528824
6.064720240514508,3.385538317833488,6.710661451262518,3.8896954802694395,16.228687831281338,-23.921466385789785
6.0985756236928435,3.5478251961463014,6.749558406065212,3.6504808164115414,15.539689717429692,-24.39557760164118
6.134053875654306,3.703222093320598,6.786063214229327,3.4065250403951297,14.85332248307806,-24.850863071782996
6.171086096587512,3.851755318151379,6.820128464633278,3.1580164096772996,14.178203144427554,-25.27530694749328
6.209603649769026,3.9935373495956545,6.851708628730051,2.905263340202367,13.520759678118567,-25.655310282192758
6.249539023264982,4.12874494637684,6.880761262132074,2.648710237380439,12.884920274825973,-25.97566209183077
6.29082647272875,4.2575941491251,6.907248364505878,2.3889536164621314,12.271610335936508,-26.219183507001624
6.333402414220002,4.380310252484465,6.9311379006705,2.126761781392115,11.678068260770187,-26.36604779664521
6.377205516744846,4.497090935092167,6.9524055184844205,1.8631013034256632,11.096992404906366,-26.39278913977151
6.422176426095768,4.608060859141231,6.971036531518677,1.5991734120279482,10.51554924863131,-26.271047909939444
6.468257034687181,4.713216351627544,6.987028265638957,1.3364629329285538,9.914318186851869,-25.966175186687934
6.515389198203456,4.812359533496063,7.000392894968242,1.0768011810616744,9.266336897490854,-25.43595501583298
6.5635127935384165,4.9050229024709715,7.011160906778859,0.8224416309033447,8.536559257352488,-24.629921048688136
6.612563022563126,4.990388495044496,7.019385323087893,0.5761424204164634,7.682251124938817,-23.490050279713156
6.662466907513571,5.067211006293885,7.025146747292058,0.34124191761933176,6.655097618445492,-21.953963460075546
6.71313901757651,5.133761982478339,7.028559166468251,0.1217022830185763,5.405968155920417,-19.96198674108935
6.764476637401294,5.187821664037544,7.0297761892984365,-0.07791758439231722,3.8931445996383593,-17.46918853992845
6.816354854041669,5.226753110033927,7.028997013454513,-0.2526094697916017,2.0940102023898755,-14.462295675054818
6.868622385142008,5.247693212057826,7.026470918756598,-0.39723242654214985,0.018447158301502148,-10.978830567123584
6.921099317262587,5.247877683640842,7.022498594491176,-0.5070207322133857,-2.280234738366925,-7.122303390548788
6.973578094098995,5.225075336257173,7.017428387169042,-0.5782437661188736,-4.702792635265002,-3.0647687994223833
7.025828847461566,5.178047409904523,7.011645949507853,-0.6088914541130974,-7.114892729723676,0.970365534813924
7.077609321560612,5.106898482607287,7.005557034966722,-0.5991877987649582,-9.371140743826151,4.744928015746537
7.128678306386685,5.013187075169025,6.999565156979073,-0.5517385186074928,-11.34500970101125,8.05119332296094
7.178810177138375,4.899736978158913,6.994047771792998,-0.4712265853778834,-12.95323573662948,10.748867668366055
7.227807546919965,4.770204620792618,6.989335505939219,-0.36373790869422284,-14.165863882438545,12.78076820554276
7.275509593127891,4.628545981968232,6.985698126852276,-0.23593022663879523,-15.000742593368198,14.165239315671158
7.321795052947573,4.47853855603455,6.983338824585888,-0.09427783348208366,-15.508158087317254,14.973524919508439
7.366580438507919,4.323456975161378,6.9823960462510675,0.055457415713000724,-15.753387009274045,15.30354415492372
7.409815008259533,4.165923105068638,6.9829506204081975,0.20849285726223793,-15.802712659305977,15.258393906448799
7.451474239310219,4.007895978475577,6.98503554898082,0.36107679632672596,-15.714891551340926,14.932732627386814
7.491553199094975,3.850747062962168,6.988646316944087,0.5104041226005941,-15.537490617726514,14.40638830808083
7.530060669724596,3.695372156784903,6.993750358170093,0.6544680056814024,-15.306501986879562,13.742959093023893
7.567014391292445,3.5423071369161074,7.000295038226907,0.7918975966116413,-15.047686810211497,12.991162288512013
7.602437462661606,3.3918302688139925,7.008214014193023,0.9218092194967614,-14.778556299762627,12.187309704199558
7.636355765349746,3.2440447058163664,7.017432106387991,1.043682316538757,-14.510368762861182,11.357958259140299
7.66879621240791,3.0989410181877544,7.027868929553379,1.15726189913016,-14.249860105097076,10.52228016617579
7.699785622589788,2.956442417136784,7.039441548544681,1.262484700791918,-14.00062435313967,9.69399584596653
7.729350046761156,2.816436173605387,7.0520663955526,1.3594246592515833,-13.764159055749356,8.882865818615668
7.75751440849721,2.6787945830478934,7.065660642145116,1.4482533174377399,-13.540628744811453,8.095802037896359
7.784302354327688,2.543388295599779,7.080143175319494,1.5292113378167034,-13.329407152729301,7.337676282357701
7.809736237283686,2.410094224072486,7.095435288697661,1.6025881006402805,-13.12945298326112,6.611898813155661
7.833837179524411,2.2787996942398747,7.1114611697040635,1.6687070887718372,-12.939563835978332,5.920828286477062
7.85662517646681,2.1494040558800913,7.1281482405917815,1.7279153716366078,-12.758542591738331,5.266060458278578
7.878119217025612,2.021818629962708,7.145427394308148,1.7805759762193936,-12.585301777852331,4.648631254108308
7.898337403325239,1.8959656121841846,7.163233154070341,1.8270622887604766,-12.418924506736895,4.0691601006369185
7.917297059447081,1.7717763671168156,7.181503776957946,1.8677538897668458,-12.258695364481452,3.5279519906404895
7.935014823118249,1.649189413472001,7.200181315855614,1.9030334096732506,-12.10411079620318,3.0250712357006337
7.951506717252969,1.5281483055099694,7.219211649952347,1.933284122030257,-11.954875764821901,2.5603958458437983
7.966788200308069,1.4085995478617503,7.238544491172649,1.958888080488695,-11.81089146879199,2.13365859533592
7.980874195786686,1.2904906331738304,7.258133371977536,1.9802246664420542,-11.672237473110023,1.7444787889054845
7.993779102118425,1.1737682584427303,7.277935618641957,1.997669454331109,-11.539150572981592,1.392387300644822
8.005516784702852,1.0583767527129144,7.297912313185268,2.0115933273375575,-11.412001952219795,1.0768464443045167
8.01610055222998,0.9442567331907165,7.318028246458644,2.0223617917806025,-11.29127363407849,0.7972655196522841
8.025543119561888,0.8313439968499315,7.33825186437645,2.0303344469771254,-11.17753479079284,0.553012370330459
8.033856559530388,0.7195686489420031,7.358555208846221,2.03586457068043,-11.071418137080146,0.3434209148658605
8.041052246019808,0.6088544675712017,7.3789138545530255,2.039298779829089,-10.973596351912446,0.16779432335572653
8.04714079069552,0.4991185040520772,7.399306842351316,2.0409767230626463,-10.884758230207423,0.025403270743345162
8.05213197573604,0.390270921750003,7.4197166095819425,2.04123075577008,-10.805584046069947,-0.08452152320379402
8.056034684953541,0.2822150812893035,7.440128917139643,2.040385540538042,-10.736719401151301,-0.16280347522575536
8.058856835766434,0.1748478872777905,7.460532772545023,2.0387575057857843,-10.678746629543253,-0.21034227473924064
8.060605314639211,0.06806042098235796,7.480920347602881,2.0366540830383917,-10.632152633780995,-0.22814544238866
8.061285918849036,-0.038261105355452005,7.501286888433265,2.034372628614505,-10.597291841713139,-0.2173710106656278
8.060903307795481,-0.14423402377258338,7.5216306147194105,2.032198918507849,-10.574342818529702,-0.17938323018096544
8.059460967557756,-0.2499774519578804,7.541952603904489,2.030405086206039,-10.563256974979188,-0.11582333152419019
8.056961193038177,-0.3556100217076723,7.56225665476655,2.029246852890797,-10.563697836966847,-0.02869733951867627
8.0534050928211,-0.46124700007734076,7.582549123295458,2.0289598794956105,-10.57496956952621,0.07951738287794781
8.048792622820326,-0.5669966957726029,7.6028387220904134,2.02975505332439,-10.595934006512318,0.20574597574864398
8.0431226558626,-0.6729560358377261,7.623136272623658,2.0318125130818765,-10.6249165023341,0.3461709448883443
8.036393095504224,-0.7792052008610671,7.643454397754477,2.03527422253076,-10.659602721030744,0.4960712660457148
8.028601043495613,-0.8858012280713746,7.6638071399797845,2.040234935191217,-10.696931276387915,0.649652984964223
8.0197430312149,-0.9927705408352537,7.684209489331697,2.046731465040859,-10.732991193711456,0.7998844344156187
8.009815325806546,-1.1001004527723683,7.704676803982106,2.054730309385015,-10.762938635284186,0.9383571273830853
7.9988143212788225,-1.2077298391252103,7.725224107075956,2.064113880658846,-10.78095409583298,1.0552032396583475
7.986737022887571,-1.31553938008354,7.745865245882545,2.0746659130554295,-10.780268664801726,1.139111434234673
7.973581629086735,-1.4233420667315573,7.766611905013099,2.0860570273977763,-10.753294416391718,1.1774924065371415
7.95934820841942,-1.5308750108954745,7.787472475287077,2.0978319514631476,-10.691896775157984,1.1568500248635074
7.944039458310465,-1.6377939786470543,7.808450794801709,2.1094004517117826,-10.58784181299856,1.0634075745460898
7.927661518523995,-1.74367239677704,7.8295447993188265,2.1200345274572436,-10.433434202378743,0.8840146668457435
7.910224794556225,-1.8480067388008274,7.850745144593399,2.128874674125701,-10.222328323760813,0.607313476936255
7.891744727168216,-1.9502300220384357,7.872033891334656,2.1349478088950637,-9.950446026674832,0.22507320081483667
7.872242426947832,-2.049734482305184,7.893383369423606,2.137198540903212,-9.616877284059965,-0.26648064839993907
7.85174508212478,-2.1459032551457837,7.914755354832638,2.134533734419213,-9.224591204485138,-0.8655866889380667
7.830286049573322,-2.238149167190635,7.93610069217683,2.125877867529832,-8.780768119603342,-1.5643891588142946
7.807904557901416,-2.3259568483866686,7.957359470852128,2.110233975941689,-8.296600247790577,-2.3491230409873585
7.78464498941755,-2.4089228508645744,7.978461810611545,2.086742745531815,-7.7865048621625625,-3.2011318001044176
7.760555760908904,-2.4867878994862,7.9993292380668635,2.054731427530771,-7.266830135970857,-4.098615182405851
7.735687881914042,-2.5594562008459083,8.019876552342172,2.0137452757067127,-6.75426589710748,-5.018816580793716
7.7100933199055826,-2.626998859816983,8.04001400509924,1.9635571098987756,-6.264249051455264,-5.940246223470987
7.683823331307413,-2.6896413503315357,8.059649576198227,1.9041546476640658,-5.809645464310588,-6.844542509757031
7.656926917804098,-2.7477378049746415,8.078691122674869,1.8357092225664955,-5.399902052883887,-7.717692949284212
7.629449539754352,-2.8017368255034802,8.097048214900534,1.7585322930736533,-5.040732839470521,-8.550515973567354
7.601432171499317,-2.8521441538981853,8.11463353783127,1.6730271333379798,-4.73427997926161,-9.338476688312914
7.572910729960335,-2.8994869536908014,8.13136380916465,1.5796423664548507,-4.479611603466693,-10.081022175766016
7.543915860423427,-2.9442830697254685,8.147160232829199,1.4788321446971906,-4.273393893696943,-10.780658782131036
7.514473029726172,-2.987017008662438,8.16194855427617,1.3710255568758802,-4.110594406528338,-11.441969144799893
7.484602859639548,-3.0281229527277214,8.17565880984493,1.2566058654278813,-3.9851164979411227,-12.070709088025652
7.45432163011227,-3.0679741177071325,8.188224868499208,1.1358987745476248,-3.890311267060065,-12.673060982313732
7.423641888935199,-3.1068772303777332,8.199583856244685,1.0091681647244874,-3.8193515085271095,-13.255067867095745
7.3925731166314215,-3.1450707454630042,8.209675537891929,0.87661748605353,-3.7654772377062105,-13.822238028042335
7.361122409176791,-3.1827255178400664,8.218441712752464,0.7383951057731066,-3.722135251697044,-14.379291853288482
7.32929515399839,-3.219946870357037,8.225825663810195,0.5946021872402218,-3.6830391453905826,-14.930017317708199
7.29709568529482,-3.2567772618109427,8.231771685682597,0.44530201406313985,-3.642174776957773,-15.477202501803111
7.26452791267671,-3.2931990095805204,8.23622470582323,0.29052998904510874,-3.5937722219074617,-16.022619222573933
