th1 (rad),w1 (rad/s),th2 (rad),w2 (rad/s),a1 (rad/s^2),a2 (rad/s^2)
5.199793074868166,0.273314822030273,3.8706454213956736,1.0473590486052673,7.552705023402576,4.793542247058755
5.202526223088469,0.3488418722642988,3.8811190118817263,1.0952944710758548,7.4626496126604565,4.880647382884334
5.206014641811112,0.42346836839090335,3.892071956592485,1.1441009449046982,7.363718018726047,4.986269296530707
5.210249325495021,0.4971055485781638,3.9035129660415318,1.1939636378700051,7.255423236697421,5.109927473946264
5.215220380980803,0.569659780945138,3.9154526024202316,1.2450629126094679,7.137256692281891,5.2510927194916555
5.220916978790254,0.6410323478679569,3.9279032315463263,1.2975738398043843,7.008687619266751,5.40918669560169
5.227327302268933,0.7111192240606244,3.9408789699443703,1.3516657067604012,6.869162280262454,5.583581810623965
5.23443849450954,0.779810846863249,3.9543956270119742,1.407501524866641,6.718103132611975,5.77360154742743
5.242236602978172,0.8469918781893687,3.9684706422606406,1.4652375403409152,6.554908048777635,5.978521332977295
5.250706521760066,0.9125409586771451,3.9831230176640497,1.5250227536706882,6.3789497066788945,6.197570058598127
5.259831931346838,0.9763304557439341,3.9983732452007565,1.5869984542566695,6.189575269996988,6.429932371820298
5.269595235904277,1.038226208443904,4.0142432297433235,1.6512977779748725,5.986106480982643,6.674751873115595
5.279977497988717,1.0980872732537303,4.030756207523072,1.7180452967060285,5.767840288371246,6.931135363911396
5.2909583707212535,1.1557656761374429,4.047936660490132,1.7873566503451424,5.534050130180601,7.198158305298995
5.3025160274826275,1.2111061774392489,4.065810226993583,1.8593382333981323,5.283987985003687,7.474871658905371
5.31462708925702,1.2639460572892858,4.084403609327564,1.934086949987186,5.01688729552225,7.760310291362924
5.327266549829913,1.3141149302445083,4.103744478827436,2.011690052900815,4.731966854063591,8.053503130352633
5.340407699132358,1.3614345987851442,4.123861379356445,2.0922250842043413,4.428435721981954,8.353485261732219
5.354022045120209,1.4057189560049637,4.144783630198488,2.1757599368216636,4.1054992326218676,8.659312151934985
5.368079234680259,1.4467739483311823,4.166541229566705,2.2623530583410134,3.7623661021811454,8.970076165453403
5.382546974163571,1.4843976093529938,4.189164760150115,2.3520538199955476,3.398256645103818,9.284925521212822
5.3973909502571,1.518380175804032,4.21268529835007,2.4449030752076757,3.0124120627144793,9.603085790865117
5.41257475201514,1.5485042964311768,4.2371343291021475,2.5409339331163268,2.6041047488511713,9.923883982604055
5.428059794979452,1.5745453439196886,4.2625436684333105,2.640172772942367,2.1726495390848823,10.246775171033153
5.443805248418649,1.5962718393105375,4.288945396162734,2.742640524652699,1.7174158277732536,10.571371520250837
5.4597679668117545,1.61344599758827,4.316371801409261,2.8483542398552073,1.2378404997712558,10.897473394469133
5.475902426787637,1.6258244025859825,4.344855343807813,2.9573289737998985,0.7334416853724084,11.225102045086631
5.4921606708134965,1.6331588194397066,4.374428633545812,3.069579994250765,0.2038334680013403,11.554533086201495
5.508492259007894,1.63519715411972,4.40512443348832,3.18512532511278,-0.35125811765482373,11.886329594082472
5.524844230549091,1.631684572943172,4.436975686739448,3.303988621053605,-0.9319771247733636,12.221373148539962
5.541161076278523,1.6223648016954384,4.4700155729499835,3.4262023525390046,-1.5383165823933984,12.560890413563637
5.557384724295477,1.6069816358715043,4.504277596475373,3.551811256674641,-2.1700922689692237,12.906471839003556
5.5734545406541915,1.585280713181812,4.53979570904212,3.6808759750646765,-2.826908265367582,13.260077618255732
5.58930734778601,1.5570116305281363,4.576604468792767,3.813476751247234,-3.508109516875413,13.624023958628165
5.604877464091291,1.5219305353593822,4.6147392363052395,3.9497169908335157,-4.212714232132269,14.000939719864826
5.620096769444885,1.4798033930380594,4.654236406213575,4.089726388032164,-4.939315507549638,14.39367913399545
5.634894803375266,1.430410237962563,4.695133670093896,4.233663179372119,-5.685936678074647,14.805170048536754
5.649198905754892,1.3735508711818165,4.737470301887617,4.381714879857486,-6.449818015630871,15.238168135173012
5.66293441446671,1.3090526910255078,4.781287450686192,4.534096561209216,-7.22710284762145,15.694874744835221
5.676024941376965,1.2367816625492933,4.826628416298284,4.691045308657568,-8.012378200757393,16.17635835952424
5.688392758002458,1.1566578805417194,4.87353886938486,4.85280889225281,-8.798008092550383,16.68169576754307
5.699959336807875,1.0686777996162156,4.922066958307388,5.01962584992824,-9.573176725834811,17.206718859118393
5.710646114804037,0.9729460323578675,4.97226321680667,5.191693038519424,-10.322536268902596,17.742218516986195
5.7203755751276155,0.8697206696688415,5.024180147191864,5.369115223689286,-11.024336594731045,18.271426858382277
5.729072781824304,0.7594773037215311,5.077871299428757,5.551829492273108,-11.647919330815348,18.766594788800987
5.73666755486152,0.6429981104133776,5.133389594351488,5.739495440161118,-12.150521997674897,19.18455101503647
5.743097535965654,0.5214928904366286,5.1907845487531,5.9313409503114825,-12.473528335294182,19.461363247507055
5.74831246487002,0.3967576070836868,5.250097958256214,6.125954582786553,-12.538730956064821,19.50677653927331
5.752280040940857,0.27137029752303854,5.3113575040840795,6.321022348179286,-12.245989317087323,19.20018330069494
5.754993743916087,0.1489104043521653,5.374567727565872,6.5130241811862355,-11.474963024725223,18.391626215756116
5.756482847959608,0.034160774104913055,5.439697969377734,6.696940443343797,-10.095151277941543,16.91346835596483
5.756824455700658,-0.06679073867450237,5.506667373811172,6.8660751269034455,-7.989214753198272,14.609480365919543
5.756156548313912,-0.1466828862064851,5.5753281250802065,7.012169930562641,-5.092129816239053,11.385003364831507
5.754689719451847,-0.1976041843688756,5.645449824385833,7.126019964210957,-1.4402260791647479,7.270598323931978
5.752713677608159,-0.21200644516052308,5.716710024027942,7.198725947450277,2.7899586357098114,2.472747480461072
5.750593613156553,-0.18410685880342498,5.788697283502445,7.223453422254888,7.283153740044335,-2.6282639902585854
5.748752544568519,-0.11127532140298163,5.860931817724993,7.197170782352302,11.646410144633503,-7.5583856472502156
5.747639791354489,0.005188780043353394,5.932903525548516,7.1215869258798,15.512634565777066,-11.884190302578318
5.747691679154922,0.16031512570112405,6.004119394807314,7.002745022854017,18.635023607282797,-15.332730690678959
5.749294830411934,0.346665361773952,6.0741468450358544,6.849417715947228,20.92521536773817,-17.83545076313615
5.752761484029674,0.5559175154513337,6.142641022195327,6.671063208315866,22.429019410025514,-19.4904868115063
5.758320659184187,0.7802077095515889,6.2093516542784855,6.476158340200803,23.26995017596164,-20.485339123629586
5.766122736279702,1.0129072113112052,6.274113237680494,6.271304948964508,23.59508774087335,-21.025743394615922
5.776251808392814,1.2488580887199388,6.336826287170139,6.061047515018348,23.54046303566947,-21.29224208020927
5.788740389280013,1.4842627190766335,6.397436762320322,5.848125094216256,23.216254755765824,-21.423401475495336
5.80358301647078,1.7164252666342918,6.455918013262485,5.633891079461303,22.70488923534531,-21.515656724463792
5.820747269137123,1.943474158987745,6.512256924057098,5.418734512216664,22.065181744088022,-21.630435098833864
5.840182010727,2.164125976428625,6.566444269179265,5.2024301612283255,21.33815252163607,-21.802864306707963
5.8618232704912865,2.3775075016449856,6.618468570791548,4.9844015181612455,20.552425694289255,-22.049503655069874
5.885598345507736,2.583031758587878,6.668312585973161,4.7639064816105465,19.72850164826835,-22.37435832521919
5.911428663093615,2.7803167750705615,6.7159516507892665,4.540162898358354,18.88185082213159,-22.77325509026674
5.93923183084432,2.9691352832918776,6.76135327977285,4.312430347455687,18.02501694500602,-23.236919963602762
5.968923183677239,3.149385452741938,6.804477583247407,4.080061147819659,17.168963005588925,-23.753113113233066
6.000417038204659,3.3210750827978273,6.845278194725604,3.842530016687329,16.323865058961577,-24.308106391740097
6.033627789032637,3.484313733387443,6.883703494892478,3.599448952769928,15.49951267622725,-24.88770519438665
6.068470926366511,3.6393088601497157,6.919697984420177,3.3505719008260617,14.705431275891629,-25.477944238894906
6.104864014968008,3.786363172908632,6.9532037034284375,3.0957924584371126,13.950806104305425,-26.065531494833934
6.142727646697095,3.9258712339516864,6.984161628012808,2.8351371434887733,13.244259609616265,-26.63807377483475
6.181986359036611,4.058313830047849,7.012512999447696,2.5687564057404257,12.593510940680229,-27.18408733178779
6.22256949733709,4.184248939454651,7.0382005635051,2.2969155324225476,12.004925732623217,-27.692773065919816
6.264411986731636,4.304298196780883,7.061169718829325,2.0199878017633495,11.482944120228137,-28.153515161682293
6.307454968699445,4.4191276379831645,7.081369596846959,1.7384526501465265,11.029353728273113,-28.555041701259604
6.3516462450792766,4.529421175265895,7.098754123348424,1.4529022331339305,10.64235214124479,-28.884165319948607
6.396940456831936,4.635844696678343,7.113283145679763,1.1640605799344446,10.315322267223115,-29.12400387828729
6.443298903798719,4.738997919350574,7.124923751479108,0.8728205411515717,10.035230817142404,-29.25157459733585
6.490688882992225,4.839350227521998,7.133651956890624,0.5803047951782132,9.780570236657308,-29.234681827736523
6.539082385267444,4.937155929888571,7.139455004842406,0.28795797690084796,9.518828747779542,-29.028122372319647
6.58845394456633,5.032344217366367,7.142334584611415,-0.0023232468223485236,9.203646899854082,-28.569491112166524
6.638777386739994,5.1243806863649075,7.142311352143191,-0.28801815794401375,8.772187154851911,-27.775402817078117
6.690021193603643,5.212102557913426,7.139431170563752,-0.5657721861147949,8.143903953223127,-26.539889248249608
6.742142219182777,5.293541597445658,7.133773448702604,-0.831171078597291,7.222886664471509,-24.738119831950463
6.7950776351572335,5.365770464090373,7.1254617379166305,-1.0785522769167957,5.907009804398399,-22.240063831717478
6.848735339798138,5.4248405621343565,7.114676215147463,-1.3009529152339705,4.107378165217337,-18.93898523142512
6.902983745419482,5.46591434378653,7.101666685995123,-1.4903427675482217,1.7792320735149614,-14.796216673138115
6.957642888857347,5.483706664521679,7.086763258319641,-1.6383049342796028,-1.0412983158831166,-9.893847460506406
7.012479955502563,5.473293681362848,7.070380208976845,-1.7372434088846669,-4.21050028719116,-4.4721871449376
7.067212892316192,5.431188678490936,7.053007774887998,-1.781965280334043,-7.482655744534478,1.0800303833937162
7.121524779101102,5.356362121045591,7.035188122084658,-1.7711649765001056,-10.56053021482074,6.300763354123123
7.175088400311558,5.250756818897384,7.0174764723196565,-1.7081573429588743,-13.176040709585589,10.773585974528071
7.227595968500531,5.118996411801528,7.000394898890068,-1.6004214832135937,-15.161623937865947,14.233110569548383
7.278785932618547,4.967380172422868,6.984390684057932,-1.4580903775181098,-16.477016462466366,16.605463163526565
7.3284597343427755,4.802610007798204,6.969809780282751,-1.2920357458828442,-17.187278974023453,17.977240378793194
7.376485834420758,4.63073721805797,6.956889422823923,-1.1122633420949122,-17.415734224692088,18.52690615445901
7.422793206601337,4.456579875811049,6.945766789402974,-0.9269942805503221,-17.29921650783666,18.458511949086162
7.467359005359448,4.283587710732682,6.93649684659747,-0.7424091610594604,-16.95966352845349,17.958630549144782
7.510194882466775,4.113991075448148,6.929072754986875,-0.5628228555680126,-16.49242370025427,17.177596435412287
7.5513347932212564,3.949066838445605,6.9234445264311955,-0.3910468912138897,-15.965527937010634,16.227031110408472
7.5908254616057125,3.7894115590754986,6.919534057519057,-0.22877658010980498,-15.424058417097408,15.185219290070084
7.628719577196468,3.6351709749045247,6.917246291717959,-0.07692438720910413,-14.895821951658103,14.104769159915023
7.665071286945513,3.486212755387944,6.916477047845867,0.0641233043900461,-14.39650854945958,13.019805905926331
7.699933414499393,3.342247669893348,6.917118280889768,0.19432136344930942,-13.933741025994701,11.951733298647108
7.733355891198326,3.2029102596334007,6.919061494524261,0.3138386964357805,-13.510008749664918,10.913476747951304
7.76538499379466,3.0678101721367517,6.922199881488619,0.42297346391529356,-13.124689177653295,9.912453499462906
7.796063095516027,2.9365632803602186,6.926429616127772,0.5220979989099226,-12.775393337658345,8.952583273980597
7.825428728319629,2.8088093469836353,6.931650596116871,0.6116238316497286,-12.458837217375265,8.035616697440501
7.853516821789466,2.6842209748098824,6.9377668344333685,0.6919799986241335,-12.171391827373387,7.161995803630879
7.880359031537565,2.5625070565361487,6.94468663441961,0.7635999566604423,-11.90942031334767,6.331401159822946
7.905984102102926,2.443412853402672,6.952322633986214,0.8269139682586718,-11.669476183603098,5.543092778991145
7.930418230636953,2.326718091566641,6.960591773668801,0.8823448960485832,-11.448412119441468,4.7961173478091865
7.953685411552619,2.2122339703722265,6.969415222629287,0.9303060695266752,-11.243431929426594,4.089430084936323
7.975807751256341,2.0997996510779604,6.978718283324554,0.9712003703760383,-11.052106879417913,3.4219630451059673
7.996805747767121,1.9892785822837813,6.988430287028314,1.005420000827098,-10.87237015759753,2.7926606148737445
8.01669853358996,1.880554880707806,6.998484487036585,1.0333466069758355,-10.702498353372455,2.2004955890423172
8.035504082397038,1.7735298971740816,7.008817953106343,1.0553515628662586,-10.54108566105737,1.6444743578109509
8.05323938136878,1.668119040563508,7.019371468735005,1.071796306444368,-10.38701446975544,1.1236365411396456
8.069920571774414,1.5642488958659535,7.030089431799449,1.0830326718557646,-10.239424676591591,0.6370523186475082
8.085563060733074,1.4618546491000375,7.040919758518006,1.0894031950422396,-10.09768320415402,0.1838193475477613
8.100181607224075,1.3608778170584972,7.051813790468429,1.0912413885177172,-9.961354647766818,-0.23693970970994416
8.11379038539466,1.261264270580829,7.062726204353606,1.0888719914206177,-9.830173616423851,-0.6260785761667286
8.126403028100468,1.1629625344165906,7.073614924267812,1.0826112056589505,-9.704019093797442,-0.9844275349652784
8.138032653444634,1.0659223434786163,7.084441036324401,1.0727669303092977,-9.58289098855793,-1.3127924509138362
8.14869187687942,0.9700934335930369,7.095168705627494,1.0596390058001592,-9.466888938200412,-1.6119528081646488
8.15839281121535,0.8754245442110328,7.105765095685496,1.0435194777185128,-9.356193359826683,-1.8826589802982794
8.16714705665746,0.781862610612766,7.116200290462681,1.0246928879155301,-9.251048693553733,-2.125628959152505
8.174965682763588,0.6893521236772286,7.126447219341836,1.003436598324005,-9.151748752211956,-2.3415447564485707
8.18185920400036,0.5978346361551091,7.136481585325076,0.9800211507595193,-9.058624070133735,-2.531048667562721
8.187837550361913,0.5072483954537718,7.146281796832671,0.9547106640838922,-8.972031131091276,-2.6947395562895613
8.19291003431645,0.417528084142859,7.15582890347351,0.9277632685209966,-8.892343348773448,-2.833169287509402
8.197085315157878,0.32860465065512456,7.16510653615872,0.8994315756459025,-8.81994367114055,-2.946839404113492
8.200371361664429,0.24040521394371905,7.1741008519151785,0.8699631816047676,-8.755218681457956,-3.036198117110903
8.202775413803867,0.1528530271291395,7.182800483731226,0.8396012004336586,-8.698554072884752,-3.101637654576357
8.204303944075159,0.06586748640029198,7.1911964957355625,0.808584823887895,-8.650331379393585,-3.143491996578041
8.204962618939161,-0.020635827393643863,7.199282343974441,0.7771499039221146,-8.61092585278743,-3.162035009758222
8.204756260665224,-0.10674508592151817,7.207053843013663,0.7455295538245323,-8.580705382932189,-3.1574789870138305
8.203688809806009,-0.19255213975084007,7.214509138551908,0.7139547639543941,-8.560030365284932,-3.1299735949303895
8.2017632884085,-0.2781524434036894,7.221648686191452,0.6826550280050901,-8.549254425539877,-3.079605234565362
8.198981763974464,-0.36364498765908815,7.228475236471503,0.6518589756594365,-8.548725914789257,-3.006396830387739
8.195345314097873,-0.4491322468069807,7.234993826228098,0.6217950073555591,-8.558790088866411,-2.9103080785403956
8.190853991629803,-0.5347201476956448,7.241211776301653,0.5926919265701552,-8.579791881086306,-2.7912362104752035
8.185506790152846,-0.6205180665065079,7.2471386955673545,0.5647795644654032,-8.61207916660822,-2.6490173634692225
8.179301609487782,-0.7066388581725901,7.252786491212008,0.538289390830711,-8.656006396735258,-2.483428698528039
8.172235220906057,-0.7931989221399427,7.258169385120316,0.5134551038454307,-8.711938449473307,-2.294191472906039
8.164303231684658,-0.8803183066346758,7.26330393615877,0.4905131891163703,-8.780254494357637,-2.080975364749521
8.155500048618311,-0.9681208515782522,7.268209068049933,0.4697034354688751,-8.86135159920974,-1.8434044692064804
8.145818840102528,-1.0567343675703496,7.272906102404622,0.4512693907768103,-8.955647706413714,-1.5810655496642023
8.135251496426825,-1.1462908446344866,7.27741879631239,0.43545873528016826,-9.063583466138597,-1.2935193493334394
8.12378858798048,-1.2369266792958726,7.2817733836651914,0.4225235417868339,-9.185622219785667,-0.9803160669918047
8.11141932118752,-1.3287829014937294,7.28599861908306,0.41272038111691584,-9.322247160294763,-0.6410165026307034
8.098131492172584,-1.422005373096677,7.290125822894229,0.4063102160906088,-9.47395433238657,-0.2752209185376482
8.083911438441618,-1.5167449164205429,7.294188925055135,0.4035580069052323,-9.64123964361925,0.11739161645301094
8.068743989277412,-1.6131573128567354,7.298224505124187,0.4047319230697624,-9.82457739596673,0.5370096710584713
8.052612416148845,-1.7114030868164027,7.302271824354885,0.4101020197803471,-10.024386967915415,0.9836166880567935
8.03549838528068,-1.8116469564955568,7.306372844552689,0.41993818666091504,-10.24098312116702,1.456892365251025
8.017381915715726,-1.914056787707227,7.310572226419298,0.43450711031342526,-10.47450391323065,1.9560794170328375
7.998241347838653,-2.0188018268395336,7.314917297522432,0.4540679044837536,-10.72480831664109,2.479804311999606
7.978053329570258,-2.1260499100059445,7.31945797656727,0.4788659476037497,-10.991333363854606,3.0258374155484535
7.9567928304701985,-2.2359632436444907,7.324246636043307,0.5091243217592342,-11.272898031961528,3.5907744124678875
7.934433198033753,-2.348692223964106,7.329337879260899,0.5450320658839131,-11.567438420835119,4.169617365196949
7.910946275794112,-2.4643666081724573,7.334788199919738,0.5867282395358826,-11.8716566891478,4.755231230079169
7.886302609712388,-2.583083175063935,7.340655482315097,0.6342805518366743,-12.180565955448314,5.337651982816016
7.860471777961749,-2.7048888346184183,7.346998287833464,0.6876570716648345,-12.486917248882026,5.90322908056079
7.833422889615565,-2.829758007107239,7.353874858550112,0.7466893624704424,-12.780506482957458,6.4336034602335435
7.805125309544493,-2.9575630719368133,7.361341752174816,0.8110253970727778,-13.04738529776822,6.904561277850547
7.775549678825125,-3.0880369249144954,7.3694520061455435,0.8800710098512833,-13.269047616416959,7.284874827703003
7.74466930957598,-3.220727401078665,7.378252716244057,0.9529197581283133,-13.421742840018847,7.535358264386027
7.712462035565193,-3.3549448294788533,7.38778191382534,1.0282733407721736,-13.476181834281446,7.608533817863654
7.678912587270404,-3.489706647821668,7.398064647233062,1.1043586789508102,-13.398043846251534,7.449509996847081
7.644015520792188,-3.6236870862841832,7.40910823402257,1.178853778919281,-13.149819290172033,6.998855587488131
