th1 (rad),w1 (rad/s),th2 (rad),w2 (rad/s),a1 (rad/s^2),a2 (rad/s^2)
0.1831284361257642,2.254332109916976,0.044842029210938,1.298525472280629,-3.9847417242425123,4.207933032344681
0.20567175722493397,2.214484692674551,0.05782728393374429,1.3406048026040758,-4.327925113956195,4.436702173694856
0.22781660415167948,2.171205441534989,0.07123333195978505,1.3849718243410243,-4.649910529647958,4.630668165231154
0.24952865856702938,2.1247063362385097,0.0850830502031953,1.4312785059933357,-4.950344483433851,4.78978054236749
0.27077572192941446,2.0752028914041714,0.09939583526312866,1.4791763114170107,-5.229087157571185,4.914441217384844
0.29152775084345617,2.0229120198284596,0.11418759837729876,1.5283207235908591,-5.486162373220677,5.005420100291224
0.31175687104174077,1.9680503960962528,0.12947080561320734,1.5783749245937715,-5.721709269099842,5.063769962328809
0.3314373750027033,1.9108333034052543,0.14525455485914507,1.6290126242170595,-5.935937944401357,5.090744431267716
0.3505457080367559,1.8514739239612408,0.16154468110131567,1.6799200685297366,-6.129090613056486,5.087721992703125
0.3690604472763683,1.790183017830676,0.17834388178661303,1.730797288456768,-6.301409187234822,5.056137942148104
0.38696227745467504,1.7271689259583276,0.1956518546711807,1.781358667878249,-6.4531097010854515,4.997425460020123
0.4042339667142583,1.662637828947473,0.2134654413499632,1.8313329224784503,-6.584363618436477,4.912966397536009
0.42086034500373304,1.5967941927631082,0.23177877057474772,1.8804625864538103,-6.695285836880648,4.804051966856105
0.4368282869313641,1.5298413343943018,0.25058339643928584,1.9285031061223714,-6.785929087402903,4.671853302545443
0.4521267002753071,1.4619820435202728,0.26986842750050954,1.975221639147826,-6.856284406785111,4.517401769018972
0.4667465207105098,1.3934191994524217,0.28962064389198783,2.0203956568380157,-6.906287398373521,4.341578888376953
0.48068071270503404,1.3243563254686865,0.30982460046036797,2.063811445721785,-6.9358300627191705,4.145115810188742
0.4939242759597209,1.254998024841495,0.33046271491758583,2.1052626038236726,-6.944778040446569,3.928602294134105
0.5064742562081358,1.1855502444370292,0.35151534095582254,2.1445486267650136,-6.9329931339180435,3.6925051838112175
0.5183297586525061,1.1162203130978487,0.3729608272234727,2.1814736786031257,-6.90036093246303,3.437196273845035
0.5294919617834846,1.0472167037732185,0.3947755640095039,2.215845641341576,-6.84682323262152,3.1629892758069618
0.5399641288212168,0.9787484714470033,0.41693402042291966,2.247475534099646,-6.77241470113358,2.870185242964233
0.5497516135356868,0.9110243244356675,0.4394087757639161,2.2761773865292882,-6.677302866130384,2.5591253050675697
0.5588618567800435,0.8442512957743636,0.462170549629209,2.301768639579964,-6.561830048897103,2.2302488989679525
0.5673043697377872,0.7786329952853926,0.48518823602500866,2.324071128569644,-6.426555293917155,1.8841548945545081
0.5750906996906411,0.7143674423462211,0.5084289473107051,2.342912677515189,-6.2722937738898805,1.5216621796891854
0.5822343741141033,0.6516445046073223,0.531858074085857,2.358129299312081,-6.100150621590331,1.1438654919963847
0.5887508191601765,0.590642998391419,0.5554393670789778,2.3695679542320445,-5.911545777475668,0.7521817122785243
0.5946572491440907,0.5315275406166623,0.5791350466212982,2.3770897713548296,-5.708226357774787,0.3483816245851675
0.5999725245502573,0.4744452770389144,0.6029059443348466,2.380573587600681,-5.492263350502479,-0.06539754677453896
0.6047169773206464,0.4195226435338896,0.6267116802108533,2.3799196121329356,-5.266030209021582,-0.4866625860963982
0.6089122037559853,0.3668623414436738,0.6505108763321827,2.3750529862719714,-5.032162143463041,-0.9125999124643401
0.6125808271704221,0.3165407200090434,0.6742614061949025,2.365926987147328,-4.793496533202105,-1.340136450482958
0.6157462343705125,0.2686057546770223,0.6979206760663758,2.3525256226424984,-4.552996730558186,-1.7660233524684312
0.6184322919172827,0.22307578737144046,0.7214459322928007,2.334865389117814,-4.313663352668827,-2.1869377050509784
0.6206630497909971,0.17993915384475218,0.7447945861839789,2.3129960120673045,-4.078438683870278,-2.5995952423400706
0.6224624413294446,0.1391547670060494,0.7679245463046519,2.287000059643904,-3.850110773047309,-3.0008656959815565
0.6238539889995051,0.1006536592755763,0.790794546901091,2.2569914026840885,-3.6312240264814486,-3.387881993713506
0.6248605255922608,0.06434141901076182,0.8133644609279318,2.2231125827469533,-3.4240025087882584,-3.7581351618908134
0.6255039397823684,0.030101393922879235,0.8355955867554014,2.1855312311280453,-3.2302908568485327,-4.109548393672498
0.6258049537215972,-0.002201514645606091,0.8574508990666818,2.1444357471913205,-3.0515158932282,-4.4405260448281085
0.6257829385751411,-0.03271667357788809,0.878895256538595,2.1000304867430395,-2.8886699828760976,-4.749975939145607
0.6254557718393622,-0.061603373406649065,0.8998955614060254,2.0525307273515834,-2.7423152107007986,-5.037305908693818
0.6248397381052957,-0.08902652551365706,0.9204208686795413,2.0021576682646454,-2.612605822682958,-5.302397622784226
0.6239494728501591,-0.11515258374048663,0.9404424453621878,1.9491336920368032,-2.4993252357446263,-5.545562251056327
0.6227979470127543,-0.1401458360979329,0.9599337822825559,1.8936780695262398,-2.401933343245991,-5.76748327615882
0.6213964886517749,-0.1641651695303928,0.9788705629778183,1.8360032367646517,-2.319619789656096,-5.969151861776402
0.6197548369564709,-0.18736136742695378,0.9972305953454648,1.7763117181468877,-2.2513592566861917,-6.151799725140162
0.6178812232822014,-0.2098749599938157,1.0149937125269337,1.714793720895486,-2.195965456012494,-6.316833638888237
0.6157824736822632,-0.23183461455394064,1.0321416497358886,1.6516253845066036,-2.1521413192292234,-6.465774679097825
0.6134641275367239,-0.2533560277462329,1.0486579035809547,1.5869676377156252,-2.1185236921017103,-6.600204302553353
0.6109305672592615,-0.27454126466725,1.0645275799581109,1.5209655946900917,-2.093721587943772,-6.721718392678678
0.608185154612589,-0.2954784805466877,1.0797372359050117,1.453748410763305,-2.076347679553022,-6.831889629883529
0.6052303698071222,-0.3162419573422179,1.0942747200126448,1.3854295144644697,-2.0650431874046107,-6.93223794739999
0.6020679502337,-0.33689238921626397,1.1081290151572896,1.3161071349904698,-2.0584966543553826,-7.024208426156844
0.5986990263415374,-0.3574773557598178,1.1212900865071942,1.2458650507289013,-2.0554573000272005,-7.109155740141645
0.5951242527839392,-0.37803192876008984,1.1337487370144832,1.174773493327485,-2.0547437453509176,-7.188334155300692
0.5913439334963383,-0.398579366213599,1.145496471947758,1.102890151774478,-2.0552489156865192,-7.262892076065855
0.5873581398342023,-0.4191318553704642,1.1565253734655028,1.0302612310138195,-2.0559418941019385,-7.3338701921981455
0.5831668212804976,-0.4396912743114836,1.166827985775641,0.9569225290918381,-2.0558674256973415,-7.4022023779540636
0.5787699085373827,-0.460249948568457,1.1763972110665593,0.8829005053122975,-2.0541436857051747,-7.468718614747623
0.5741674090516982,-0.48079138542550875,1.1852262161196823,0.8082133191648212,-2.049958830445178,-7.534149332455426
0.5693594951974431,-0.5012909737299606,1.1933083493113306,0.7328718258402669,-2.0425667591453442,-7.599130683301767
0.5643465854601435,-0.521716641321414,1.2006370675697333,0.6568805190072492,-2.0312824310948296,-7.664210369905419
0.5591294190469294,-0.5420294656323623,1.2072058727598058,0.580238415308195,-2.0154770091534293,-7.729853742606417
0.5537091243906057,-0.5621842357238966,1.2130082569128877,0.5029398778821308,-1.9945730382189926,-7.796449959739808
0.5480872820333668,-0.5821299661060866,1.218037655691709,0.4249753782847327,-1.9680398156730405,-7.864318068539048
0.5422659823723059,-0.601810364262817,1.2222874094745564,0.3463321975993422,-1.9353890692576836,-7.933712915058607
0.5362478787296778,-0.6211642549553938,1.2257507314505498,0.2669950684487561,-1.896171025124364,-8.004830830489846
0.5300362361801239,-0.6401259652066374,1.2284206821350374,0.18694676014385764,-1.8499709236644182,-8.07781507018212
0.5236349765280575,-0.6586256744432817,1.230290149736476,0.10616860944203643,-1.7964060219393243,-8.152761002164077
0.5170487197836247,-0.6765897346626749,1.2313518358308964,0.02464099942039566,-1.7351231079441247,-8.22972105539866
0.5102828224369979,-0.6939409657421162,1.2315982458251002,-0.05765621113359094,-1.6657965425884127,-8.308709445578078
0.5033434127795767,-0.7105989311680003,1.2310216837137644,-0.1407433055893717,-1.5881268393716668,-8.389706698904403
0.49623742346789673,-0.7264801995617169,1.2296142506578707,-0.22464037257841574,-1.5018397886526493,-8.472663992694013
0.48897262147227954,-0.7414985974482434,1.2273678469320866,-0.30936701250535587,-1.40668613273607,-8.557507326243059
0.4815576354977971,-0.7555654587756041,1.224274176807033,-0.39494208576778644,-1.302441799468785,-8.6441415264288
0.4740019809100411,-0.768589876770292,1.2203247559493553,-0.48138350103207445,-1.1889087055689336,-8.732454080023723
0.46631608214233816,-0.7804789638259814,1.2155109209390345,-0.5687080418323117,-1.06591614659112,-8.822318768487614
0.45851129250407835,-0.7911381252918925,1.2098238405207113,-0.6569312295171879,-0.9333227985185051,-8.9135990607014
0.45059991125115945,-0.8004713532770776,1.2032545282255396,-0.7460672201242019,-0.7910193669102756,-9.006151194127936
0.4425951977183887,-0.8083815469461804,1.1957938560242976,-0.8361287320654812,-0.6389319339568157,-9.099826844418436
0.4345113822489269,-0.8147708662857486,1.1874325687036427,-0.9271270005096656,-0.4770260725558618,-9.194475246466586
0.4263636735860694,-0.8195411270113072,1.178161298698546,-1.0190717529743314,-0.30531182070688373,-9.28994458499939
0.41816826231595633,-0.8225942452183761,1.1679705811688026,-1.1119711988243253,-0.12384964047392415,-9.386082418313249
0.40994231986377255,-0.8238327416231154,1.1568508691805592,-1.2058320230074577,0.06724247488640703,-9.482734832679169
0.4017039924475414,-0.8231603168742513,1.1447925489504847,-1.3006593713342494,0.26778053238081606,-9.579743944812522
0.3934723892787989,-0.8204825115504432,1.131785955237142,-1.3964568107823745,0.47750443391685066,-9.676943272776247
0.3852675641632945,-0.8157074672112746,1.1178213871293183,-1.4932262435101369,0.696065881664777,-9.77415037852525
0.37711048949118176,-0.8087468083946269,1.102889124694217,-1.5909677472953894,0.9230138472398276,-9.871156044511938
0.3690230214072355,-0.7995166699222286,1.086979447221263,-1.6896793077405088,1.1577770436611416,-9.967709078896437
0.3610278547080132,-0.7879388994856171,1.070082654143858,-1.7893563985294731,1.399642703579505,-10.063495646069349
0.353148465713157,-0.7739424724498221,1.0521890901585633,-1.8899913549901666,1.6477308103406498,-10.158111790122215
0.34540904098865877,-0.7574651643464155,1.0332891766086616,-1.9915724728913888,1.9009627527805628,-10.251027560616514
0.3378343893451946,-0.7384555368186099,1.0133734518797477,-2.094082748497554,2.1580231879677743,-10.341540870622248
0.3304498339770085,-0.7168753049389321,0.9924326243947722,-2.1974981572037766,2.4173137145263395,-10.4287189351449
0.3232810809276192,-0.6927021677936688,0.9704576428227344,-2.3017853465552256,2.676896812247297,-10.511324889624673
0.3163540592496825,-0.6659331996711958,0.9474397893571821,-2.406898595451472,2.934428441832021,-10.587727036352657
0.30969472725297054,-0.6365889152528756,0.9233708034026674,-2.512775865814999,3.1870778034817797,-10.655788216150116
0.30332883810044176,-0.6047181372180579,0.8982430447445174,-2.6193337479765,3.4314331514908436,-10.712733219124514
0.2972816567282612,-0.5704038057031494,0.8720497072647524,-2.726461080167745,3.663393443141343,-10.75499318247897
0.29157761867122967,-0.533769871271736,0.844785096463075,-2.834011011992535,3.87804723375822,-10.778027937693748
0.2862399199585123,-0.49498939893415383,0.8164449863431497,-2.9417912913694724,4.06954297983543,-10.776130759820957
0.28129002596917074,-0.45429396913579956,0.7870270734294549,-3.049552598967682,4.230959233778065,-10.742225567496554
0.27674708627781275,-0.4119843767980189,0.756531547439778,-3.1569748546426473,4.354189609005631,-10.66767503289057
0.27262724250983256,-0.3684424807079626,0.7249617988933515,-3.263651604971553,4.429866287384391,-10.542129914488326
0.2689428177027529,-0.32414381783411866,0.692325282843636,-3.3690729041164365,4.447357317420945,-10.353465422566714
0.26570137952441175,-0.2796702446599092,0.6586345538024717,-3.4726075583421037,4.394886293755031,-10.087868715781324
0.2629046770778127,-0.2357213817223589,0.6239084782190507,-3.573486245499917,4.259835994900579,-9.730159849326855
0.2605474632605891,-0.1931230217733531,0.5881736157640516,-3.6707878439931854,4.029305602563888,-9.264440600815671
0.2586162330428556,-0.15282996574771424,0.5514657373241197,-3.763432250001342,3.6909866074699362,-8.675161385467339
0.25708793338537844,-0.11592009967301486,0.5138314148241063,-3.8501838638560155,3.2343950349112998,-7.948661886647161
0.2559287323886483,-0.08357614932390187,0.47532957618554617,-3.929670482722487,2.6524365127338525,-7.075161439807853
0.2550929708954093,-0.05705178419656334,0.4360328713583213,-4.000422097120565,1.9431808778292734,-6.051043355015298
0.2545224530534436,-0.03761997541827061,0.39602865038711565,-4.060932530670718,1.1115942685946056,-4.8811059171303475
0.25414625329926094,-0.026504032732324555,0.35541932508040847,-4.109743589842021,0.17085274773986756,-3.5802867933414415
0.2538812129719377,-0.02479550525492588,0.3143218891819882,-4.145546457775436,-0.8571991074441593,-2.1742854761766135
0.25363325791938846,-0.033367496329367474,0.2728664246042339,-4.167289312537202,-1.9428130536966628,-0.698598240045819
0.2532995829560948,-0.0527956268663341,0.23119353147886185,-4.17427529493766,-3.0504626636448573,0.8042122294005332
0.2527716266874314,-0.08330025350278267,0.18945077852948525,-4.166233172643654,-4.1421109289269875,2.2887174486743627
0.2519386241524036,-0.12472136279205254,0.1477884468030487,-4.14334599815691,-5.181043059028904,3.7115252837727994
0.25069141052448307,-0.1765317933823416,0.10635498682147959,-4.106230745319182,-6.135483830846922,5.035851807108959
0.24892609259065965,-0.2378866316908108,0.06529267936828777,-4.055872227248093,-6.981273544205266,6.234815182893604
0.24654722627375153,-0.3076993671328635,0.024733957095806836,-3.993524075419157,-7.70317057229581,7.292905123647634
0.2434702326024229,-0.3847310728558216,-0.015201283658384739,-3.920595024182681,-8.29474792702962,8.205616403843527
0.2396229218738647,-0.4676785521261178,-0.05440723390021155,-3.8385388601442454,-8.757189908036077,8.977679851215104
0.2349461363526035,-0.5552504512064785,-0.09279262250165402,-3.7487620616320942,-9.09746553404553,9.620538597015523
0.2293936318405387,-0.6462251065469338,-0.13028024311797495,-3.652556675661939,-9.326347983790019,10.14969288492479
0.22293138077506938,-0.739488586384834,-0.16680580987459434,-3.551059746812691,-9.456625302113332,10.582360369720659
0.21553649491122104,-0.8340548394059673,-0.20231640734272124,-3.4452361431154848,-9.501687599117803,10.935680150881693
0.20719594651716136,-0.9290717153971453,-0.2367687687738761,-3.3358793416066677,-9.474538956065574,11.225506160705624
0.1979052293631899,-1.023817104957801,-0.27012756218994277,-3.2236242799996115,-9.387193464930139,11.465720649763409
0.1876670583136119,-1.1176890396071024,-0.30236380498993887,-3.1089670735019777,-9.250373285323995,11.66794792403581
0.17649016791754088,-1.2101927724603423,-0.33345347572495865,-2.9922875942616196,-9.073418892658072,11.841542741083323
0.16438824019293746,-1.300926961386923,-0.36337635166757487,-2.8738721668507865,-8.8643327007159,11.993745927284632
0.15137897057906824,-1.389570288394082,-0.39211507333608275,-2.7539347075779403,-8.629895391015129,12.12992622058676
0.13748326769512742,-1.4758692423042332,-0.4196544204118622,-2.6326354453720726,-8.375812623685718,12.253852982131885
0.12272457527208509,-1.5596273685410904,-0.4459807748655829,-2.5100969155507538,-8.106865120664533,12.367965259971768
0.10712830158667419,-1.6406960197477358,-0.47108174402109043,-2.386417262951036,-7.827046523253487,12.473617849395303
0.09072134138919682,-1.7189664849802706,-0.4949459166506008,-2.261681084457083,-7.539681240582042,12.571295118511868
0.07353167653939412,-1.794363297386091,-0.5175627274951716,-2.135968133271964,-7.247519473572063,12.660789613662553
0.05558804356553321,-1.8668384921218117,-0.5389224088278912,-2.0093602371353385,-6.952809517504229,12.741345986499166
0.03691965864431509,-1.936366587296854,-0.5590160111992446,-1.8819467772703469,-6.657348991236804,12.811772546406832
0.01755599277134655,-2.0029400772092223,-0.5778354789719481,-1.7538290518062785,-6.362517325236883,12.870523443969539
-0.002473408000745674,-2.0665652504615912,-0.5953737694900109,-1.6251238173665832,-6.069292027905865,12.91575462259686
-0.023139060505361585,-2.12725817074065,-0.6116250076636767,-1.4959662711406145,-5.778251189548429,12.94535656230158
-0.04441164221276808,-2.185040682636134,-0.6265846703750828,-1.3665127055175987,-5.489564545571288,12.956966696919382
-0.06626204903912943,-2.239936328091847,-0.6402497974302588,-1.2369430385484048,-5.202975324928901,12.947964360150495
-0.0886614123200479,-2.291966081341136,-0.6526192278157428,-1.1074633949469,-4.917775148356344,12.915451315626125
-0.11158107313345926,-2.3411438328246996,-0.6636938617652117,-0.9783088817906387,-4.632774492307036,12.856221443921243
-0.13499251146170627,-2.38747157774777,-0.6734769505831181,-0.8497466673514262,-4.346271772152179,12.76672408104123
-0.15886722723918398,-2.430934295469292,-0.6819744172566323,-0.722079426541014,-4.056024990380811,12.6430269081506
-0.1831765701938769,-2.4714945453731,-0.6891952115220424,-0.595649157459508,-3.759231196302526,12.48078624143743
-0.20789151564760788,-2.509086857336125,-0.6951517030966375,-0.47084129504513367,-3.452520731311331,12.275235074001102
-0.23298238422096915,-2.5436120646492384,-0.6998601160470889,-0.34808894430512266,-3.1319753325377753,12.021202184560305
-0.25841850486746154,-2.5749318179746163,-0.7033410054901401,-0.2278769224595196,-2.793181450855363,11.713178772005271
-0.2841678230472077,-2.60286363248317,-0.7056197747147354,-0.11074513473946689,-2.4313322128257395,11.345451831444693
-0.31019645937203943,-2.627176954611427,-0.70672722606213,0.0027093835749800455,-2.0413926368444058,10.912324883482803
-0.3364682289181537,-2.6475908809798714,-0.7067001322263802,0.11183263240980808,-1.6183419701999044,10.408445249407603
-0.3629441377279524,-2.6637743006818706,-0.7055818059022821,0.21591708490388412,-1.1575029916722566,9.829250936567538
-0.3895818807347711,-2.675349330598593,-0.7034226350532433,0.3142095942695595,-0.6549593432043708,9.171537313399043
-0.41633537404075704,-2.681898924030637,-0.7002805391105478,0.40592496740354994,-0.10804727541756522,8.434122581833755
-0.4431543632810634,-2.6829793967848126,-0.6962212894365123,0.49026619322188747,0.48411239236590037,7.618561701033842
-0.4699841572489115,-2.6781382728611534,-0.6913186275042934,0.5664518102322259,1.1201006575091461,6.729824034626706
-0.49676553997752304,-2.666937266286062,-0.6856541094019711,0.633750050578493,1.795786655798571,5.77681794999559
-0.5234349126403837,-2.648979399728076,-0.6793166088961862,0.6915182300784489,2.5041091449702977,4.772627401482334
-0.5499247066376645,-2.6239383082783734,-0.6724014265954017,0.7392445040932722,3.235143245510097,3.7343344216457024
-0.5761640897204482,-2.5915868758232725,-0.665008981554469,0.7765878483097293,3.9765115906959245,2.682347225096266
-0.6020799584786809,-2.5518217599163133,-0.6572431030713717,0.803411320560692,4.714142242578095,1.6392359974980852
-0.6275981760778441,-2.5046803374905324,-0.6492089898657648,0.8198036805356729,5.433303447804034,0.6281822497684667
-0.6526449794527494,-2.4503473030124923,-0.6410109530604081,0.8260855030333576,6.119777447339934,-0.328755793330126
-0.6771484524828743,-2.389149528539093,-0.6327500980300745,0.8227979451000563,6.760995079418238,-1.2123027356379843
