th1 (rad),w1 (rad/s),th2 (rad),w2 (rad/s)
3.245215568909788,2.4772556579620364,1.1974385572350041,-3.017946589822698
3.2699881254894083,2.433939124183715,1.167259091336777,-3.074563356865343
3.2943275167312454,2.3902210378177813,1.1365134577681237,-3.135810360282452
3.318229727109423,2.3459580651638623,1.1051553541652992,-3.201662088894041
3.3416893077610617,2.3010540559480614,1.073138733276359,-3.272058357666567
3.364699848320542,2.255475194470234,1.0404181496996932,-3.346881868000749
3.3872546002652446,2.2092697696694383,1.0069493310196858,-3.425930109878709
3.409347297961939,2.1625931202002886,0.9726900299208987,-3.5088808293787084
3.430973229163942,2.115737963986801,0.9376012216271116,-3.595250749721138
3.45213060880381,2.0691696200401104,0.9016487141299002,-3.6843481672430403
3.472822305004211,2.0235644163472863,0.8648052324574698,-3.775221655324557
3.493057949167684,1.979847705237886,0.8270530159042242,-3.866609595664864
3.5128564262200626,1.939225328103665,0.7883869199475756,-3.9568986861098487
3.532248679501099,1.9031992869011314,0.7488179330864771,-4.044103684447089
3.5512806723701105,1.873555456072806,0.7083768962420063,-4.125884560093816
3.5700162269308384,1.8523097268597253,0.6671180506410681,-4.199619188724968
3.5885393241994357,1.8416009703511125,0.6251218587538184,-4.262547140788653
3.6069553339029468,1.8435266834700073,0.5824963873459319,-4.31199025218184
3.6253906007376466,1.8599310135870464,0.5393764848241135,-4.345637346861841
3.643989910873517,1.8921730071222356,0.4959201113554951,-4.361856382612051
3.6629116409447393,1.9409194124682803,0.45230154752937457,-4.359975330335438
3.6823208350694223,2.0060125947997074,0.4087017942260202,-4.340464665102905
3.702380961017419,2.0864533115424884,0.36529714757499115,-4.304968446448988
3.723245494132844,2.1805107106650445,0.3222474631105013,-4.256167037814102
3.745050601239494,2.28593760185645,0.27968579273236027,-4.197499861109298
3.767909977258059,2.400242198417298,0.23771079412126728,-4.132812253342065
3.7919123992422317,2.5209588131492118,0.1963826715878466,-4.066002401973481
3.817121987373724,2.6458704306593246,0.1557226475681118,-4.000731076060371
3.8435806916803172,2.773157903991619,0.11571533680750809,-3.9402285538664614
3.8713122707202334,2.901473175793988,0.07631305126884347,-3.8872035716234636
3.900327002478173,3.029949909813045,0.03744101555260883,-3.8438381159600676
3.9306265015763033,3.1581719882391077,-0.0009973656069918527,-3.8118424753903777
3.9622082214586944,3.2861202091398853,-0.03911579036089563,-3.792544998617741
3.995069423550093,3.4141134260704087,-0.07704124034707305,-3.7869963546050047
4.0292105578107975,3.542755156500948,-0.11491120389312309,-3.7960750817315345
4.064638109375807,3.67289208765456,-0.15287195471043843,-3.8205875993971365
4.101367030252352,3.805587632333209,-0.1910778307044098,-3.861360724190598
4.1394229065756845,3.942111779213257,-0.2296914379463158,-3.9193280350141544
4.178844024367817,4.083947690155782,-0.2688847182964573,-3.9956135128401047
4.219683501269374,4.23281550089912,-0.3088408534248584,-4.0916171707584015
4.262011656278365,4.390714289290022,-0.3497570251324424,-4.209108235609202
4.305918799171265,4.559983920873141,-0.3918481074885344,-4.350332012518059
4.351518638379996,4.743389133767533,-0.435351427613715,-4.518136733359839
4.398952529717672,4.944228166936487,-0.4805327949473134,-4.716125780991143
4.448394811387037,5.166466076581331,-0.5276940527572248,-4.948836821449113
4.50005947215285,5.414885338385684,-0.5771824209717159,-5.221937968487649
4.554208325536707,5.695225628795313,-0.6294018006565923,-5.542401214281945
4.61116058182466,6.014232623014376,-0.6848258127994118,-5.918539387946614
4.6713029080548045,6.379410589393698,-0.744011206678878,-6.359616279875309
4.735097013948741,6.79798533937612,-0.8076073694776311,-6.874333542781935
4.803076867342503,7.273965355183123,-0.8763507049054504,-7.466627252720586
4.875816520894334,7.801072410414126,-0.9510169774326562,-8.125636376864055
4.953827244998475,8.348283480294409,-1.0322733412012968,-8.80525769587155
5.037310079801419,8.838214748323631,-1.1203259181600123,-9.393614707443968
5.125692227284656,9.13924788266709,-1.214262065234452,-9.70186886150353
5.217084706111327,9.126376108163425,-1.3112807538494873,-9.549789523350336
5.30834846719296,8.80735621683435,-1.4067786490829906,-8.943419426979258
5.396422029361304,8.334824642523358,-1.496212843352783,-8.092869745769912
5.479770275786538,7.860916013313682,-1.577141540810482,-7.2089010009434675
5.558379435919675,7.457057330743231,-1.6492305508199168,-6.390198201001814
5.632950009227107,7.138088466317015,-1.713132532829935,-5.656484415424358
5.704330893890277,6.89730320274004,-1.7696973769841786,-4.997166272554597
5.773303925917677,6.723249971508382,-1.8196690397097246,-4.394746122431187
5.840536425632761,6.605251182683103,-1.8636165009340364,-3.832604199968867
5.906588937459592,6.534619119372602,-1.901942542933725,-3.296827054881909
5.9719351286533175,6.50454321925873,-1.9349108134825441,-2.776213378969349
6.036980560845905,6.509661574330352,-1.9626729472722375,-2.261868087463057
6.102077176589209,6.545619601263871,-1.985291628146868,-1.7468087522585207
6.167533372601847,6.608689428821913,-2.002759715669453,-1.225685550704235
6.233620266890066,6.6954571710836825,-2.0150165711764956,-0.6946166680484162
6.300574838600903,6.802571449860049,-2.0219627378569798,-0.15111265631754667
6.368600553099503,6.926548525624419,-2.023473864420155,0.4059444582631274
6.437866038355747,7.0636348130392825,-2.0194144198375237,0.9763036715960507
6.508502386486139,7.2097317757673425,-2.009651383121563,1.558365252286149
6.580599704243813,7.360389061011021,-1.9940677305987018,2.149251493173024
6.654203594853923,7.510868211582828,-1.9725752156669716,2.744952344102047
6.729312276969751,7.656271513913019,-1.9451256922259512,3.3405561382335063
6.8058749921088815,7.7917201315547375,-1.9117201308436162,3.930556959787183
6.883792193424429,7.912555678818436,-1.8724145612457443,4.5092108396533375
6.962917750212614,8.014533421829839,-1.827322452849211,5.070898272889231
7.043063084430912,8.093976093273087,-1.7766134701203187,5.610445392169179
7.124002845363643,8.147865396663182,-1.720509016198627,6.123362596754367
7.205481499330275,8.173861565405323,-1.6592753902310833,6.605975697466177
7.287220114984328,8.170255995041513,-1.5932156332564216,7.055445670090723
7.368922674934743,8.135874063508426,-1.5226611765555143,7.4696928990990665
7.450281415569828,8.069952282639015,-1.4479642475645236,7.84725572092509
7.530980938396218,7.9720153639113684,-1.3694916903552727,8.18711923421988
7.610701092035332,7.8417756916522565,-1.2876204980130739,8.488549394387874
7.689118848951854,7.679071791793519,-1.202735004069195,8.75096145896462
7.765909566869789,7.483855192991312,-1.115225389479549,8.973843185604828
7.840748118799702,7.256227541481119,-1.0254869576235006,9.156743467571856
7.9133103942145135,6.996522371438738,-0.933919522947782,9.299327197199394
7.983275617928901,6.705418800056569,-0.8409262509757881,9.401487483750119
8.050329805929467,6.384068094663304,-0.746911376138287,9.463497369551304
8.1141704868761,6.034209496880708,-0.652276402442774,9.486175786321326
8.174512581844906,5.658250213006534,-0.5574146445795607,9.471038092206904
8.231095083974973,5.259287347712948,-0.4627042636574916,9.420401706135573
8.283687957452102,4.8410572763431245,-0.3685002465961359,9.33742312698972
8.332098530215534,4.407809672203876,-0.2751260153262387,9.226053686827647
8.376176626937573,3.9641167876861347,-0.18286547845796222,9.090915747272186
8.415817794814435,3.5146403526107575,-0.09195632098524036,8.937115388117686
8.450964198340543,3.0638855043845057,-0.0025851671040634933,8.77001837954475
8.481603053384388,2.6159717715989372,0.08511501669138401,8.595020846390886
8.507762771100378,2.17444556663846,0.17106522515529288,8.417343946662992
8.529507226766762,1.7421489510331738,0.2552386646219228,8.241874519135553
8.546928716277094,1.321148522455129,0.3376574098132783,8.07306367504373
8.560140201501646,0.9127187906314231,0.4183880465637156,7.914885530882161
8.56926738940796,0.5173680020228436,0.4975369018725372,7.770850759491314
8.574441069428188,0.134891463786048,0.5752454094674503,7.644065280852207
8.575789984066049,-0.2355625116126,0.6516860622759724,7.537323083743167
8.573434358949923,-0.5954268359127393,0.727059293113404,7.4532230588704795
8.567480090590795,-0.9466596932540854,0.8015915237021088,7.394301747681919
8.558013493658255,-1.291704425941207,0.875534541178928,7.363175920129154
8.545096449398843,-1.633467184139507,0.9491663003802195,7.362689631959594
8.528761777557447,-1.975308883061908,1.0227931966998154,7.396058134342598
8.509008688726828,-2.3210391917199606,1.0967537780432415,7.466992623319691
8.485798296809628,-2.6748834832714037,1.1714237042764384,7.5797691774586
8.459049461976914,-3.041359840389659,1.2472213960510243,7.739159948404715
8.428635863573017,-3.4249350863760073,1.3246129955350714,7.950050787714337
8.394386512709257,-3.8291971054569967,1.4041135034122147,8.216385709998823
8.356094541654688,-4.255050482921773,1.486277360512203,8.53875446006255
8.313544036825471,-4.697136080781677,1.5716649051128286,8.90950192671928
8.266572676017654,-5.137635367872839,1.6607599243800215,9.304157895830677
8.215196322338926,-5.538194232515403,1.7538015033383283,9.670135298900918
8.159814380013772,-5.836606844293047,1.8505028563273376,9.9218291692628
8.101448311570842,-5.963878211262018,1.9497211480199657,9.96376486446536
8.041809529458222,-5.888586715150688,2.0493587966646194,9.751452559187289
7.982923662306715,-5.649624201702705,2.1468733222564924,9.336128698625924
7.926427420289688,-5.3285905627962435,2.240234609242752,8.826463204793082
7.873141514661725,-4.995741369655144,2.328499241290683,8.314719851802225
7.8231841009651735,-4.688602790933641,2.411646439808705,7.848401099549311
7.776298073055837,-4.420039407083729,2.490130450804198,7.441957722292177
7.732097678984999,-4.190735225372753,2.56455002802712,7.093986437577416
7.690190326731272,-3.996843741224473,2.635489892402894,6.797544413397263
7.650221889319027,-3.8334709289828384,2.703465336536867,6.544718890864838
7.611887180029198,-3.6960004073240125,2.7689125254455154,6.328280999007365
7.574927175955958,-3.580490936087108,2.832195335435589,6.142115772562983
7.539122266595087,-3.4837178867679914,2.8936164931612187,5.9812002164080456
7.504285087727407,-3.403096560675732,2.953428495325299,5.841443487783716
7.470254122120649,-3.3365795789391286,3.0118429302031364,5.71950696633799
7.436888326331258,-3.282560875997075,3.0690379998665165,5.6126433571789764
7.404062717571287,-3.239795317720559,3.1251644334383064,5.518564219812915
7.371664764394082,-3.207334113213517,3.1803500756364356,5.435335155869232
7.339591423261947,-3.184473059570667,3.234703427195128,5.361295414762497
7.30774669266624,-3.17070959190716,3.288316381342753,5.294999171248757
7.276039596747168,-3.165704131471735,3.3412663730552405,5.2351773637796075
7.244382555432451,-3.1692408012319517,3.3936181466930364,5.180721015164461
7.2126901474201315,-3.181182182428443,3.445425356844681,5.130688906338984
7.180878325595847,-3.2014128121991825,3.496732245908071,5.084343642662402
7.148864197473856,-3.2297674586493086,3.547575682334695,5.041219286387987
7.1165665228873625,-3.265944235427556,3.5979878751985748,5.001218912276362
7.083907080533087,-3.309410772880054,3.648000064321338,4.964729652689357
7.0508129728042865,-3.3593241020669473,3.6976473608482316,4.932725772615865
7.017219731783617,-3.414498168166213,3.74697461857439,4.9068118481747565
6.983074750101955,-3.4734580733186387,3.796042737056138,4.8891506867874615
6.948340169368769,-3.534605398157182,3.8449342439240124,4.882241003725032
6.912994115387197,-3.5964793347645774,3.8937566539612627,4.888565297258052
6.877029322039551,-3.6580481095931012,3.942642306933843,4.910199200663727
6.84044884094362,-3.718936563738347,3.99174429894048,4.948514561880243
6.803259475306237,-3.779515184414197,4.041229444559282,5.0040822151976805
6.765464323462095,-3.840836194842728,4.091270266711259,5.076796504690658
6.727055961513668,-3.9044649613269673,4.142038231758166,5.166156194374707
6.688011311900398,-3.9722836248933575,4.193699793701913,5.271596832606085
6.648288475651465,-4.046332279953058,4.246415762027974,5.392787017616773
6.607825152851934,-4.1287209541632235,4.300343632204141,5.529847698122101
6.566537943310301,-4.221616166415083,4.3556421091853625,5.683497226509994
6.52432178164615,-4.327290188988084,4.412477081450462,5.855149718335303
6.481048879756269,-4.448218731301518,4.471028578633815,6.047001532921183
6.436566692443254,-4.587218107896633,4.531498593963027,6.262138559419213
6.390694511364288,-4.747621054808777,4.594119979557219,6.504692895584473
6.3432183008162,-4.9334983578664575,4.659166908513064,6.780075374371361
6.293883317237535,-5.149939793727745,4.726967662256778,7.09531064716271
6.2423839193002575,-5.403410098434584,4.797920768728405,7.459500667331589
6.188349818315912,-5.702186094436395,4.8725157754017205,7.884429000568137
6.131327957371548,-6.056836205539516,4.9513600654074015,8.38525931268186
6.070759595316153,-6.480554737790223,5.0352126585342205,8.981081515843574
6.005954047938251,-6.988715866041581,5.125023473692656,9.694448259415726
5.936066889277835,-7.595739454510906,5.2219679562868135,10.547287971596512
5.8601094947327255,-8.304029453340895,5.327440836002778,11.54594772101061
5.777069200199317,-9.07288392820894,5.442900313212885,12.638508706510395
5.686340360917227,-9.752645671021742,5.569285400277988,13.62364932752786
5.58881390420701,-10.029524389083756,5.705521893553267,14.073884087648041
5.488518660316172,-9.615883654331897,5.846260734429747,13.599440041946348
5.392359823772853,-8.678864881300525,5.98225513484921,12.439436908216944
5.305571174959848,-7.65763952590015,6.10664950393138,11.200847200489035
5.228994779700846,-6.770563217423719,6.218657975936271,10.179618607297613
5.161289147526609,-6.038543512504057,6.320454162009247,9.400926038496536
5.100903712401569,-5.428895164381787,6.414463422394212,8.819169786723517
5.046614760757751,-4.90733804117065,6.502655120261447,8.388621121900899
4.9975413803460444,-4.447296128489858,6.586541331480456,8.075372830178177
4.953068419061146,-4.029246259517031,6.667295059782238,7.855955755765635
4.912775956465976,-3.638778958809392,6.745854617339894,7.714363673116529
4.876388166877882,-3.2650456201110463,6.822998254071059,7.6396472563573266
4.843737710676772,-2.89974264563483,6.8993947266346325,7.624189493316984
4.814740284220424,-2.536529526585858,6.975636621567802,7.662445600486695
4.789374988954565,-2.170780520722884,7.052261077572669,7.749939759728026
4.767667183747336,-1.799605332724361,7.129760475169949,7.882367511208812
4.749671130420093,-1.4220955711046719,7.208584150282037,8.054708925956833
4.735450174709046,-1.0397481153826538,7.2891312395416055,8.260319702560814
4.725052693555219,-0.656976235289803,7.3717344365672135,8.490051036719692
4.718482931202321,-0.2815415548722953,7.45663494693441,8.731564125053957
4.715667515653599,0.07535957369896812,7.543950588184949,8.96913559239054
4.716421111390589,0.39968833911675794,7.633641944108855,9.184330359756013
4.720417994781756,0.6761011393303837,7.725485247706415,9.357828499251658
4.72717900617506,0.890403939516332,7.819063532698932,9.47232298897314
4.736083045570223,1.032401401213434,7.913786762588663,9.515810861232815
4.746407059582357,1.0981924673316905,8.008944871200992,9.484119046814701
4.757388984255674,1.0909866850470278,8.103786061669139,9.38159529371406
4.768298851106144,1.020116332829018,8.197602014606279,9.219668602326156
4.778500014434434,0.8987361468807795,8.28979870062954,9.013959477396558
4.787487375903242,0.7411703448850286,8.379938295403505,8.78111898734856
4.794899079352093,0.5607530945218386,8.467749485276991,8.536369147985956
4.800506610297312,0.3685491716143806,8.55311317675685,8.292136211000244
4.804192102013456,0.1729083574997278,8.636034538866854,8.057663234421934
4.805921185588454,-0.02040927367901474,8.716611171211072,7.839260997241539
4.805717092851664,-0.20781975772654726,8.795003781183487,7.640858839057919
4.803638895274398,-0.3874201157457088,8.871412369574067,7.464620310665855
4.7997646941169405,-0.5585284574827524,8.946058572680725,7.311498329500413
4.794179409542113,-0.721308214251257,9.01917355597573,7.181682862057233
4.7869663273996,-0.8764853829495871,9.090990384596303,7.074938152806926
4.778201473570104,-1.025148751048167,9.161739766124372,6.990845978170565
4.767949986059622,-1.1686168192788755,9.231648225906078,6.928976810599477
4.7562638178668335,-1.308355194339493,9.300937994012072,6.889009516804661
4.7431802659234386,-1.4459307481346313,9.36982808918012,6.870816505777272
4.728720958442092,-1.5829918180125568,9.438536254237892,6.874527101307484
4.712891040261966,-1.721266195984283,9.507281525250967,6.900578045254546
4.695678378302123,-1.8625701464751367,9.576287305703513,6.9497563976253725
4.677052676837372,-2.0088218051500673,9.645784869679767,7.023236130205068
4.656964458785871,-2.1620504062139467,9.716017230981818,7.122604298920613
4.635343954723732,-2.324387612220672,9.787243273971024,7.249863830809129
4.612100078601525,-2.498016383087265,9.859741912279116,7.40738411370167
4.5871199147706525,-2.685031991561073,9.933815753416132,7.597741493277571
4.560269594855042,-2.887131872849068,10.009793168348908,7.823339284651431
4.531398276126551,-3.104986677093983,10.088026561195422,8.085607411843055
4.500348409355611,-3.3370503744044546,10.168882635313853,8.383448559318992
4.466977905611567,-3.577476969203483,10.252717120907043,8.710465533634615
4.4312031359195325,-3.812895710789472,10.33982177624339,9.05060478505101
4.393074178811638,-4.018551351664237,10.4303278240939,9.372866012199943
4.352888665294995,-4.156559509766103,10.524056484215901,9.628794148904946
4.311323070197334,-4.1823561856472224,10.62034442570495,9.761048172247156
4.269499508340862,-4.064009127804735,10.717954907427421,9.729403338834816
4.228859417062814,-3.8043730865268133,10.815248940815769,9.540380553113485
4.1908156861975465,-3.4421417488398536,10.910652746346903,9.247869270904797
4.156394268709148,-3.027717796587487,11.00313143905595,8.919868875825927
4.126117090743273,-2.5997784243154687,11.09233012781421,8.607132138298363
4.100119306500119,-2.17908952700218,11.178401449197192,8.335701884643967
4.078328411230097,-1.7732311855082523,11.261758468043633,8.113979680772335
4.060596099375014,-1.3826878092484338,11.342898264851357,7.941202197572627
4.04676922128253,-1.0048826418430188,11.422310286827082,7.812862305121705
4.0367203948641,-0.6362754295872992,11.5004389098783,7.723404712771927
4.030357640568227,-0.2733163718260512,11.577672957006019,7.667353018771624
4.027624476849967,0.0871654211295938,11.654346487193735,7.6396782740110485
4.028496131061263,0.4478256839976778,11.730743269933845,7.635837394885375
4.032974387901239,0.8107702822608828,11.807101643882698,7.651683128514535
4.041082090723848,1.1775544566829226,11.883618475167843,7.6833347434801835
4.052857635290677,1.5491880686842627,11.960451822602645,7.7270471617044265
4.06834951597752,1.926137323135341,12.037722294219689,7.779094059650849
4.087610889208873,2.308322059078304,12.115513234816198,7.835671593772635
4.110694109799656,2.69511182019507,12.193869950753925,7.892826317216352
4.137645228001607,3.085325902197273,12.27279821392609,7.946410036174888
4.168498487023579,3.4772433713005553,12.352262314287838,7.992064121089377
4.203270920736585,3.8686289566289505,12.432182955498732,8.025235300733835
4.241957210302874,4.256779780313111,12.51243530850607,8.041223823518619
4.284525008106005,4.638596106819737,12.592847546741258,8.03526296574202
4.3309109691742025,5.010676779924956,12.673200176398678,8.002626363362063
4.381017736973452,5.369437072210059,12.753226440032298,7.938756950481491
4.434712107695552,5.711243790602879,12.832614009537114,7.839408986103234
4.491824545601581,6.032560258952865,12.911008099398146,7.700793344779686
4.552150148191109,6.330092765470897,12.988016032845943,7.519716349895287
