th1 (rad),w1 (rad/s),th2 (rad),w2 (rad/s)
4.1746140449412374,2.367912755864879,0.83114271139167,-2.4106311935724922
4.198293172499886,2.462172801504711,0.8070363994559451,-2.401920850254069
4.222914900514933,2.55813435160792,0.7830171909534044,-2.394692749752997
4.248496244031013,2.655133646031766,0.7590702634558744,-2.3903416091805285
4.27504758049133,2.7525746896536107,0.7351668473640691,-2.3902140474488003
4.302573327387867,2.8499655037275655,0.7112647068895811,-2.3955614649352497
4.331072982425143,2.946945281178104,0.6873090922402286,-2.407506423803299
4.3605424352369235,3.043301482474592,0.6632340280021957,-2.427024461940788
4.39097545006167,3.1389774068190874,0.6389637833827878,-2.4549412216297353
4.4223652241298606,3.234071906548031,0.6144143711664904,-2.4919431986064255
4.454705943195341,3.328833574290603,0.5894949391804262,-2.538599495229325
4.487994278938247,3.423651949128125,0.564108944228133,-2.595391687721404
4.522230798429528,3.519048171613485,0.5381550273509189,-2.6627491651793034
4.557421280145663,3.6156672113796846,0.5115275356991259,-2.741087891960837
4.5935779522594595,3.7142734291883963,0.48411665677951754,-2.8308513195981684
4.630720686551343,3.815750920960738,0.45580814358353583,-2.932553007068954
4.668878195760951,3.9211098928625603,0.4264826135128463,-3.0468213303237586
4.708089294689576,4.03150027316778,0.3960144002096087,-3.1744474538208554
4.748404297421254,4.148233898497188,0.36426992567140015,-3.3164385160667385
4.789886636406226,4.272816928224816,0.33110554051073277,-3.4740787875946064
4.832614805688474,4.406994641242523,0.2963647526347867,-3.649002436732002
4.876684752100899,4.552811433084104,0.25987472826746666,-3.843282502446018
4.92221286643174,4.712689577766587,0.22144190324300647,-4.059541651096369
4.9693397622094055,4.889530904315718,0.1808464867320428,-4.301090974960922
5.018235071252563,5.086845307371358,0.13783557698243357,-4.572102577965491
5.069103524326277,5.308907296195252,0.09211455120277866,-4.877817664275116
5.12219259728823,5.560932462487503,0.043336374560027494,-5.224778528108379
5.177801921913105,5.849239774035371,-0.0089114107210563,-5.621036175044923
5.236294319653458,6.181298832600082,-0.06512177247150552,-6.076191448551174
5.29810730797946,6.56539688007616,-0.12588368695701727,-6.600896857491911
5.363761276780221,7.009272200470469,-0.19189265553193638,-7.204901707153956
5.433853998784926,7.516210177541479,-0.26394167260347595,-7.891529619590522
5.50901610056034,8.075562628018925,-0.34285696879938116,-8.64432091862783
5.58977172684053,8.64346987719563,-0.42930017798565945,-9.399911217340389
5.676206425612486,9.116092793225814,-0.5232992901590633,-10.010386591179422
5.767367353544745,9.330559378416963,-0.6234031560708575,-10.244587403351366
5.860672947328914,9.166607731488421,-0.7258490301043712,-9.930888740398236
5.952339024643798,8.693028199258023,-0.8251579175083535,-9.162887943088434
6.0392693066363785,8.11051035574498,-0.9167867969392379,-8.219586330602521
6.120374410193828,7.566608477015553,-0.9989826602452632,-7.306492418150966
6.196040494963984,7.112343354483878,-1.0720475844267727,-6.494715697332155
6.267163928508823,6.749321973544075,-1.1369947414000943,-5.786436283814832
6.334657148244263,6.46471298876689,-1.1948591042382426,-5.163544998196374
6.399304278131932,6.244450777931945,-1.2464945542202064,-4.60605052586804
6.461748785911251,6.076700215690591,-1.2925550594788868,-4.096975564637066
6.522515788068157,5.952197333527461,-1.3335248151252574,-3.6229250761420273
6.5820377614034316,5.8638010291252645,-1.3697540658866778,-3.1735669744123585
6.640675771694684,5.805951972737406,-1.4014897356308014,-2.7409918061037626
6.698735291422058,5.774211588336464,-1.428899653691839,-2.3191912124320857
6.756477407305423,5.764902781684201,-1.45209156581616,-1.9036830474283348
6.814126435122264,5.774837549909711,-1.4711283962904433,-1.4912572484248339
6.871874810621361,5.801113190914811,-1.4860409687746916,-1.079808192660836
6.929885942530509,5.840963531785111,-1.4968390507013,-0.6682221787863094
6.98829557784836,5.8916569669938825,-1.5035212724891631,-0.2562933011940925
7.047212147518299,5.950437012231487,-1.5060842055011041,0.1553545858959124
7.1067165176406135,6.014502978909003,-1.504530659642145,0.5653575852363849
7.166861547429703,6.081028217982827,-1.4988770837897811,0.971725576523709
7.227671829609531,6.1472114580834605,-1.489159828024544,1.3719860035990419
7.289143944190366,6.210353714017804,-1.4754399679885535,1.7633559848386342
7.351247481330544,6.267950039475121,-1.4578064081401672,2.1429336212791483
7.413926981725296,6.317783160704401,-1.4363770719273756,2.5078933796570673
7.47710481333234,6.3580056927637445,-1.411298138130805,2.8556673540237547
7.540684870259978,6.38719961607853,-1.3827414645905673,3.1840948982986155
7.604556866420763,6.404405675006785,-1.3509005156075813,3.491527410053069
7.668600923170831,6.409120427242165,-1.3159852415070505,3.776881766118348
7.7326921274432525,6.4012636192675245,-1.278216423845867,4.039643302972365
7.796704763635928,6.381122334674665,-1.2378199908161434,4.279825566385602
7.860515986982675,6.349280372883008,-1.1950217351522874,4.497898155812935
7.924008790711505,6.306541537148114,-1.150042753594158,4.694695490950848
7.987074206082986,6.253854346852321,-1.1030957986846495,4.871318572479503
8.049612749551509,6.192243743279949,-1.0543826129598544,5.029039552176475
8.111535186984309,6.122753211533353,-1.0040922174380895,5.169216010254483
8.172762719099643,6.046398816334953,-0.9524000573355447,5.293218948871529
8.233226707262991,5.964135170376046,-0.8994678678468294,5.402376083755233
8.292868058966752,5.876832375945431,-0.8454441070092771,5.49793023490362
8.351636382726205,5.785262449256692,-0.7904648046602408,5.581011482536543
8.409489007218772,5.690093546221448,-0.7346546898348754,5.652621161204191
8.466389942680987,5.591890343779013,-0.6781284782228334,5.713625569390161
8.522308846118777,5.491119093316035,-0.6209922225289318,5.764757333850973
8.577220037051937,5.388156078301715,-0.5633446491904222,5.80662257216462
8.631101597834954,5.283298428405903,-0.5052784234687759,5.839712259885435
8.683934582119013,5.176776439439944,-0.44688130086992156,5.864416476086896
8.735702346513413,5.068766710306552,-0.3882371361090526,5.881040442303082
8.78639001361648,4.959405532949031,-0.32942673168602177,5.889821471493251
8.83598406894597,4.8488020635095115,-0.27052851697108926,5.890946103639924
8.884472089581065,4.737050870307562,-0.21161905593469002,5.884566827903853
8.93184259828414,4.624243505839451,-0.1527733876556515,5.870817886522611
8.978085033342534,4.510478794581606,-0.09406520879042538,5.849829732787259
9.02318982128835,4.395871573555294,-0.03556691146255278,5.8217417840329615
9.067148537023902,4.280559674039565,0.02265050637777684,5.786713178649078
9.109954133764298,4.164708993769268,0.08051763816426763,5.744931319301371
9.15160122370199,4.048516580063208,0.13796695135728135,5.696618065677222
9.192086389502622,3.932211723669163,0.19493313201405357,5.642033528972595
9.231408506739314,3.8160551465602683,0.2513534673037795,5.581477514179594
9.269569058204917,3.7003364487877133,0.30716824244557545,5.5152887500167065
9.306572422692794,3.5853700534073276,0.3623211299457425,5.443842133811319
9.342426123226867,3.4714899483320947,0.4167595512838557,5.367544293289054
9.377141022710187,3.359043564764034,0.4704349942167463,5.286827823319669
9.410731458357828,3.2483851505478127,0.523303272449943,5.202144589135619
9.443215309863307,3.139868992561376,0.5753247183412992,5.113958496521366
9.47461399978892,3.033842816627193,0.6264643033065128,5.022738114539628
9.504952427955192,2.9306416499114643,0.6766916844519091,4.928949500334378
9.534258844454307,2.830582374334393,0.7259811794552529,4.833049523006202
9.56256466819765,2.733959135818405,0.7743116746853149,4.73547992013459
9.589904259555833,2.6410397089185453,0.8216664738866608,4.636662252172432
9.616314656645018,2.552062854538157,0.8680330964083851,4.5369938522237705
9.6418352851904,2.4672366539789174,0.9134030349306228,4.436844806280735
9.666507651730189,2.386737758140509,0.9577714829934302,4.336555945239839
9.690375029311594,2.3107114575682104,1.0011370424458286,4.23643778698801
9.713482143887276,2.239272457347542,1.0435014203157087,4.136770335311174
9.735874868460751,2.1725062297175817,1.0848691236688204,4.03780362202399
9.757599930757927,2.1104708152222895,1.1252471598890603,3.9397588684406073
9.778704638910149,2.0531989483897477,1.1646447485734663,3.8428301404906673
9.799236628394047,2.000700394369747,1.203073049978373,3.747186376585923
9.819243632337743,1.9529643968142008,1.2405449137442324,3.6529736769012042
9.838773276305885,1.9099621529239101,1.2770746505132444,3.5603177553362424
9.857872897835124,1.8716492476803543,1.312677828066607,3.469326469605301
9.876589390311928,1.8379679948248693,1.3473710927626599,3.380092359485279
9.894969070260176,1.8088496464392085,1.3811720163575127,3.292695137363832
9.913057566724568,1.7842164455902347,1.414098967731151,3.2072040882665034
9.930899731180471,1.7639835072173404,1.4461710086138162,3.1236803481418995
9.948539566252645,1.748060521223149,1.4774078120952352,3.0421790391726877
9.966020171464876,1.736353278655367,1.5078296024869622,2.962751249227338
9.98338370425143,1.728765027097444,1.5374571149792355,2.8854458493433452
10.000671354522405,1.7251976651186305,1.566311573472669,2.810311148471804
10.017923331173591,1.725552788088118,1.594414684957387,2.7373963887854424
10.035178859054472,1.7297325990498662,1.6217886488452415,2.666753087840366
10.05247618504497,1.7376406988874882,1.6484561797236452,2.5984362359660165
10.069852592033845,1.7491827698641715,1.6744405420833053,2.5325053586053046
10.087344419732487,1.764267165958643,1.6997655956693583,2.469025454085396
10.104987091392074,1.7828054223669907,1.7244558502102123,2.408067817594754
10.122815145615744,1.804712695209821,1.7485365283861598,2.3497107620761986
10.140862272567842,1.829908140960696,1.7720336360069218,2.2940402463991063
10.15916135397745,1.858315243461413,1.7949740384709127,2.2411504206058934
10.177744506412063,1.8898620946619717,1.8173855426769716,2.1911440972797185
10.196643127358684,1.9244816334534967,1.8392969836497688,2.144133157177084
10.215887943693218,1.9621118451746997,1.8607383152215395,2.1002388962224394
10.235509062144965,2.0026959225812253,1.881740704183764,2.0595923197728596
10.255536021370778,2.0461823872794764,1.9023366273814926,2.0223343887215384
10.275997845243573,2.0925251688438284,1.922559971268708,1.9886162205051074
10.296923096932012,2.1416836370560546,1.942446133473759,1.9585992463932305
10.318339933302573,2.1936225809233783,1.9620321259376914,1.9324553245491132
10.340276159111808,2.248312126341022,1.9813566791831825,1.9103668062360735
10.362759280375217,2.3057275824612122,2.0004603472455433,1.8925265501901718
10.38581655619983,2.365849205010601,2.019385612747445,1.8791378775690128
10.409475048249936,2.4286618629636143,2.038176991523135,1.8704144570170054
10.433761666879573,2.494154593138749,2.0568811360933053,1.866580106263505
10.45870321281096,2.5623200254561067,2.0755469371559405,1.8678684933133163
10.48432641306552,2.6331536598075824,2.094225622089074,1.8745227167392915
10.510657949663596,2.7066529737918685,2.1129708492564667,1.8867947409088393
10.537724479401515,2.7828163390194685,2.131838796665555,1.9049446582642657
10.56555264279171,2.8616417223852646,2.1508882432481977,1.9292397471602907
10.594169060015563,2.943125147749979,2.1701806407198005,1.9599532904103176
10.623600311493062,3.027258893006409,2.1897801736239035,1.997363116819981
10.653872900423126,3.1140293976983497,2.2097538047921033,2.041749825852625
10.68501319440011,3.2034148574019508,2.2301713030506294,2.09339465448269
10.71704734297413,3.2953824831833085,2.251105249595456,2.1525769455951713
10.750001167805964,3.3898854078354206,2.272631019051408,2.2195711793551918
10.783900021884318,3.486859225490961,2.29482673084496,2.294643533180057
10.818768614139227,3.5862181577984944,2.3177731661767607,2.3780479426506664
10.854630795717211,3.6878508482811387,2.3415536456032675,2.470021645185654
10.891509304200023,3.791615796827951,2.366253862055124,2.5707802007352876
10.929425462168302,3.8973364584427017,2.391961664062477,2.680511999115366
10.968398826752729,4.004796044187113,2.4187667840536307,2.7993722816295494
11.0084467871946,4.1137320773294315,2.4467605068699263,2.9274767247514424
11.049584107967895,4.223830773489813,2.4760352741174407,3.0648946549403107
11.091822415702794,4.334721329350464,2.506684220666844,3.211641984884404
11.135169628996298,4.445970219463099,2.5388006405156878,3.367673981048234
11.17962933119093,4.557075614042843,2.5724773803261702,3.532877988627504
11.225200087331357,4.6674620417614365,2.607806160212445,3.7070662512315926
11.271874707748971,4.776475430199927,2.644876822724761,3.8899689675463196
11.31963946205097,4.883378663171134,2.6837765124002244,4.081227725401309
11.368473248682681,4.987347799819037,2.7245887896542373,4.280389445859365
11.418346726680872,5.0874691075445835,2.767392684112831,4.486900958662029
11.469221417756318,5.1827370728176625,2.812261693699451,4.700104320187305
11.521048788484494,5.272053575220889,2.859262736901324,4.919232982802514
11.573769324236704,5.354228445585743,2.908455066729349,5.14340893892392
11.627311608692562,5.427981683494697,2.9598891561185883,5.371641004284793
11.68159142552751,5.491947685827694,3.013605566161436,5.602824482808458
11.736510902385787,5.544681936172146,3.0696338109895205,5.8357425777899845
11.791957721747508,5.58467071899273,3.1279912367674205,6.0690700834126226
11.847804428937435,5.610344538710173,3.188681937601547,6.301380100980529
11.903907874324537,5.620096018314226,3.2516957386113523,6.531154757346381
11.960108834507679,5.612303089334993,3.317007286184816,6.756801124990016
12.016231865401029,5.5853582184116455,3.3845752974347163,6.976673702977675
12.072085447585145,5.537704191557874,3.454342034464493,7.189104848844425
12.127462489500724,5.467876542788978,3.5262330829529374,7.39244437751054
12.182141254928613,5.374552031042494,3.600157526728043,7.585109093259983
12.235886775239038,5.256601633649325,3.6760086176606426,7.765642248234486
12.288452791575532,5.113145385372227,3.7536650401429874,7.93278183061298
12.339584245429254,4.943605169287618,3.832992858449117,8.08553525944937
12.38902029712213,4.747750454107532,3.913848211043611,8.223256676111298
12.436497801663204,4.525731222436149,3.996080777804724,8.345721837743065
12.481755113887566,4.278092205726226,4.079537996182155,8.45319495189507
12.524536035944829,4.005763232057363,4.1640699457011054,8.546481943526038
12.564593668265402,3.7100220582685988,4.2495347651363655,8.626965812872806
12.601693888848088,3.392428352520296,4.335804423265094,8.696621938538641
12.63561817237329,3.054730158766594,4.42277064265048,8.758014195158113
12.666165473960955,2.6987466976424352,4.510350784602061,8.814276184714089
12.69315294093738,2.326233189333021,4.598493546449203,8.869085222402724
12.716415272830709,1.9387340841304852,4.68718439867323,8.926639507839138
12.735802613672014,1.5374304569405821,4.776450793751621,8.991650847154297
12.75117691824142,1.1229854854560732,4.866367302223164,9.069366272719563
12.76240677309598,0.6953893753574995,4.95706096495036,9.165631944032006
12.769360666849556,0.2538027622878076,5.04871728439068,9.287011603103396
12.771898694472434,-0.20360275636025238,5.141587400421714,9.440968464571487
12.76986266690883,-0.6798031924080328,5.235997085067429,9.636110069679905
12.76306463498475,-1.1790574970552006,5.332358185764228,9.882470364298161
12.751274060014197,-1.7069463751819123,5.43118288940721,10.19173684234545
12.734204596262378,-2.2701128882649337,5.5331002578306645,10.577161189762535
12.711503467379728,-2.875192476271203,5.63887186972829,11.0524738621259
12.682751542617016,-3.52570622231942,5.749396608349549,11.628145151270477
12.647494480393823,-4.214238510553956,5.865678059862254,12.301311238387681
12.605352095288284,-4.905238980754765,5.9886911722461305,13.032843080857532
12.556299705480736,-5.505813243860166,6.1190196030547055,13.707536880807227
12.501241573042135,-5.846021730059272,6.256094971862778,14.106257883831287
12.442781355741543,-5.747399498619774,6.397157550701091,13.997364560379493
12.385307360755345,-5.20576886783407,6.537131196304886,13.382063945379798
12.333249672077004,-4.42802587511379,6.670951835758684,12.537930457244004
12.288969413325866,-3.6190866931461843,6.796331140331124,11.72884620414139
12.252778546394405,-2.867840148819754,6.913619602372538,11.059175668954852
12.224100144906208,-2.1890885433171983,7.024211359062087,10.536683301671921
12.202209259473037,-1.5727250152857164,7.129578192078806,10.139474234838918
12.18648200932018,-1.0044508891921522,7.230972934427195,9.842618495977423
12.176437500428259,-0.47177696051543694,7.329399119386969,9.625005849688815
12.171719730823105,0.03489324680045802,7.425649177883857,9.469961141094302
12.172068663291109,0.5224970652020136,7.5203487892947996,9.364382169951543
12.177293633943128,0.9957768965196712,7.613992610994315,9.297756841329281
12.187251402908325,1.4576959490321335,7.706970179407608,9.261371475949415
12.201828362398647,1.9097623866260822,7.799583894167102,9.24773812609152
12.220925986264907,2.352280234347647,7.892061275428017,9.250206048611084
12.244448788608384,2.784555799375802,7.984563335914128,9.262718300931107
12.272294346602143,3.2050846521656418,8.07719051892344,9.279681847283063
12.3043451931238,3.611736901650559,8.16998733739627,9.295926071781704
12.340462562140305,4.00195038758927,8.262946598114087,9.30672777750216
12.380482066016198,4.372933356589225,8.35601387588911,9.307881199641901
12.42421139958209,4.72187086573625,8.449092687885528,9.295790795592238
12.471430108239453,5.046123470786347,8.54205059584145,9.267564307459173
12.521891342947317,5.343403673703458,8.634726238916043,9.22108526476226
12.575325379684351,5.611915787758742,8.726937091563666,9.155048465347502
12.631444537561938,5.850448318436575,8.81848757621714,9.068948845648832
12.689949020746305,6.058413831912765,8.90917706467363,8.963022400677898
12.750533159065432,6.235838131373028,8.998807288680409,8.838145750683378
12.812891540379162,6.383306738306424,9.087188746187243,8.695706916959782
12.876724607762226,6.501880866292231,9.174145815356841,8.537462800363869
12.941743416425147,6.59299665845055,9.25952044336048,8.365398579651078
13.007673383009653,6.658360581426467,9.34317442915699,8.18160141195431
13.074256988823917,6.699851236290096,9.424990443276533,7.988156551829023
13.141255501186818,6.719434393573254,9.504872008794823,7.787069487337437
13.20844984512255,6.71909463252969,9.582742703668197,7.580213824827961
13.275640791447847,6.700784137101288,9.658544841916477,7.369301922818786
13.34264863281886,6.666387230784071,9.732237861144664,7.1558737719379995
13.4093125051267,6.617698121127297,9.803796598864045,6.9412991656672185
13.475489486337972,6.55640891850038,9.873209590520718,6.726788503821736
13.541053575522977,6.484105080398739,9.940477475558936,6.51340830362633
13.605894626326965,6.402265806959862,10.005611558595199,6.302098402703725
13.669917284396563,6.312267412599094,10.068632542622236,6.093688743627889
13.733039958522554,6.215388211298537,10.129569430058515,5.888914425339404
13.79519384063554,6.112813913888413,10.188458574311909,5.688428345655418
13.856321979774423,6.005642914422751,10.245342857768463,5.492811233492267
13.91637840891865,5.894891132369287,10.300270970103385,5.302579193870918
13.975327320242343,5.781496284033208,10.353296762042095,5.118189088207084
14.033142283082675,5.666321592981191,10.404478652924166,4.940042174288491
14.089805499012487,5.55015902970706,10.45387907466705,4.768486460518569
14.145307089309558,5.433732209303273,10.501563939272236,4.603818209659074
14.199644411402591,5.317699084660485,10.547602121368827,4.4462829764900365
14.252821402249197,5.2026545617724285,10.592064951133727,4.296076495615928
14.304847947866921,5.089133141035104,10.635025716089887,4.15334566068717
14.355739279277273,4.977611660064096,10.67655917269676,4.018189762244535
