th1 (rad),w1 (rad/s),th2 (rad),w2 (rad/s),a1 (rad/s^2),a2 (rad/s^2)
6.090103444073803,1.451222487174442,4.750317294630272,-0.7190710497547453,0.28035322703177773,11.77886280641578
6.104615668945547,1.4540260194447596,4.743126584132725,-0.6012824216905875,0.33867847941651114,11.793049073170772
6.119155929139994,1.4574128042389247,4.737113759915819,-0.48335193095887985,0.37732531329276625,11.812531438315327
6.133730057182384,1.4611860573718525,4.73228024060623,-0.3652266165757266,0.3960787269415532,11.835829746262837
6.1483419177561025,1.465146844641268,4.728627974440473,-0.2468683191130982,0.39471219934944773,11.861502610478926
6.1629933862025155,1.4690939666347627,4.726159291249342,-0.12825329300830896,0.3729938898835836,11.888153387466346
6.177684325868863,1.4728239055335985,4.724876758319259,-0.00937175913364549,0.33069400294426865,11.914436774863844
6.192412564924199,1.4761308455630413,4.724783040727923,0.10977260861499295,0.2675930034912492,11.939066320844189
6.20717387337983,1.4788067755979537,4.725880766814073,0.22916327182343485,0.18349042099443896,11.960823018983968
6.22196194113581,1.480641679807898,4.7281723995323075,0.34877150201327456,0.07821400894166375,11.978565074424868
6.236768357933888,1.4814238198973146,4.73166011455244,0.46855715275752324,-0.04837095933602969,11.991238856316558
6.251582596132861,1.4809401103039543,4.736345686080015,0.5884695413206888,-0.19635247550654003,11.997890993375432
6.266391997235901,1.478976585548889,4.742230381493222,0.7084484512544431,-0.3657628843550235,11.997681520732629
6.281181763091389,1.4753189567053389,4.749314866005767,0.8284252664617694,-0.5565705085542492,11.989897945130322
6.295934952658443,1.4697532516197964,4.7575991186703845,0.9483242459130726,-0.768672057163912,11.973970060925776
6.310632485174641,1.4620665310481573,4.767082361129515,1.0680639465223303,-1.0018860797172982,11.949485320943554
6.325253150485122,1.4520476702509844,4.777763000594739,1.1875587997317658,-1.255947741998775,11.916204544182557
6.339773627187632,1.4394881928309966,4.789638588592056,1.3067208451735914,-1.5305052118609668,11.874077727370707
6.354168509115942,1.4241831407123868,4.802705797043792,1.4254616224472985,-1.8251179523164325,11.823259720343817
6.368410340523066,1.4059319611892225,4.816960413268265,1.5436942196507366,-2.1392572233846163,11.764125527456708
6.382469660134958,1.3845393889553763,4.832397355464773,1.6613354749253038,-2.4723090925834676,11.697285010159474
6.3963150540245115,1.3598162980295416,4.849010710214025,1.7783083250268985,-2.8235802454358256,11.623596791042733
6.4099132170048065,1.3315804955751833,4.866793793464294,1.8945442929373257,-3.1923068709780296,11.54418119861213
6.423229021960559,1.299657426865403,4.885739236393667,2.009986104923447,-3.5776668722832246,11.460432146162093
6.436225596229213,1.2638807581425708,4.905839097442902,2.1245904263850677,-3.9787956179769415,11.37402790836652
6.448864403810639,1.2240928019628015,4.927085001706753,2.2383307054687327,-4.39480540743951,11.286940845914204
6.461105331830266,1.1801447478884064,4.94946830876144,2.3512001139278746,-4.824808769906634,11.201446230994845
6.472906779309151,1.13189666018934,4.972980309900719,2.463214576237823,-5.267945656116017,11.120130442501393
6.484225745911044,1.07921720362818,4.997612455663098,2.574415880662837,-5.723414510336512,11.04589892514606
6.495017917947326,1.0219830585248149,5.023356614469726,2.6848748699142977,-6.190507129444247,10.98198443396536
6.505237748532574,0.9600779872303724,5.050205363168869,2.7946947142539513,-6.6686471210049785,10.931956203266594
6.514838528404877,0.8933915160203226,5.078152310311409,2.9040142762866172,-7.157431657061241,10.899730768968393
6.523772443565081,0.8218171994497102,5.107192453074275,3.013011583976301,-7.656676070809409,10.88958520803131
6.531990615559578,0.7452504387416161,5.137322568914039,3.121907436056614,-8.166460634820773,10.906173496159731
6.539443119946994,0.6635858323934084,5.1685416432746045,3.2309691710182116,-8.68717854923134,10.95454646013213
6.546078978270928,0.576714046901095,5.200851334984787,3.3405146356195328,-9.219583685093934,11.040175312400446
6.551846118739939,0.4845182100501556,5.234256481340982,3.4509163887435372,-9.76483585506123,11.168977842727887
6.55669130084044,0.3868698514995433,5.2687656452284175,3.562606167170816,-10.324540131746549,11.347344749642419
6.560559999355436,0.2836244501820778,5.304391706900126,3.6760796146672403,-10.90077469975994,11.582160915310343
6.563396243857257,0.17461670318447842,5.341152503046798,3.791901223820344,-11.496098424425258,11.880812005783145
6.565142410889102,0.05965571894022584,5.379071515285002,3.910709343878175,-12.11352397290765,12.251159561375717
6.565738968078504,-0.06147952078885066,5.4181786087237835,4.033220939491932,-12.756433699192156,12.701456041028743
6.565124172870616,-0.18904385778077223,5.458510818118703,4.160235499902219,-13.428401657557506,13.24015241141572
6.563233734292808,-0.3233278743563473,5.500113173117725,4.2926370240163765,-14.132863009123305,13.875520599616086
6.560000455549245,-0.46465650444758033,5.543039543357889,4.431392230012538,-14.872537122166055,14.614964965545198
6.555353890504769,-0.6133818756692409,5.587353465658014,4.57754187966799,-15.64845612650251,15.463821338051137
6.549220071748076,-0.7698664369342659,5.633128884454694,4.732180093048502,-16.45836760149141,16.42332612268566
6.541521407378733,-0.93445011294918,5.680450685385178,4.896413354275358,-17.29415869621528,17.487266912409236
6.532176906249241,-1.107391699911333,5.729414818927932,5.071286023399451,-18.13778507732397,18.636592039782695
6.521102989250127,-1.2887695506845727,5.780127679161926,5.257651943797278,-18.955002058040357,19.83098434584972
6.508215293743281,-1.4783195712649762,5.832704198599899,5.455961787255775,-19.686080603395567,20.9962182139544
6.493432098030631,-1.6751803772989318,5.887263816472457,5.665923969395319,-20.232921488444305,22.006390881829624
6.476680294257641,-1.8775095921833749,5.94392305616641,5.885987878213615,-20.443205176967307,22.661741787413522
6.457905198335808,-2.081941643953048,6.002782934948546,6.11260529608775,-20.095676382723866,22.667474938216785
6.437085781896277,-2.2828984077802863,6.063908987909423,6.339280045469918,-18.897992786000827,21.62907599521838
6.414256797818474,-2.4718783356402945,6.1273017883641225,6.555570805422102,-16.519719910878568,19.095093819195096
6.3895380144620715,-2.63707553474908,6.192857496418344,6.7465217436140525,-12.690121778215746,14.688421959470249
6.36316725911458,-2.7639767525312373,6.260322713854484,6.893405963208755,-7.369773385172155,8.339170114195499
6.335527491589268,-2.837674486382959,6.329256773486572,6.97679766435071,-0.9297926952156976,0.5289277297054708
6.307150746725438,-2.846972413335116,6.399024750130079,6.982086941647765,5.822224036243608,-7.6739732488222225
6.278681022592087,-2.78875017297268,6.468845619546556,6.905347209159543,11.896421721293505,-14.961039569423228
6.25079352086236,-2.6697859557597448,6.537899091638152,6.755736813465311,16.536913045373545,-20.347727174236674
6.224095661304763,-2.5044168253060093,6.605456459772805,6.552259541722944,19.48464840552392,-23.523099745921343
6.199051493051703,-2.30957034125077,6.670979055190035,6.317028544263731,20.924288380865512,-24.767880902995334
6.175955789639196,-2.100327457442115,6.734149340632672,6.069349735233777,21.251511137767743,-24.633487616357193
6.154952515064775,-1.8878123460644374,6.794842837985009,5.823014859070205,20.86850963806532,-23.6662097005362
6.13607439160413,-1.6791272496837841,6.853072986575712,5.586352762064843,20.088000832643132,-22.282172901998678
6.119283119107292,-1.4782472413573529,6.90893651419636,5.363531033044856,19.11920330816386,-20.753331452814287
6.104500646693719,-1.2870552082757143,6.962571824526808,5.155997718516713,18.088543185419585,-19.238845445514112
6.091630094610962,-1.1061697764215184,7.014131801711975,4.963609264061572,17.066088147101844,-17.822570437698346
6.080568396846747,-0.9355088949504999,7.063767894352591,4.785383559684588,16.08688048850859,-16.54254781683773
6.071213307897242,-0.774640090065414,7.111621729949436,4.61995808151621,15.165493032369996,-15.410739492091938
6.063466906996588,-0.622985159741714,7.157821310764598,4.4658506865952905,14.305155495479777,-14.425161011200696
6.057237055399171,-0.4799336047869162,7.202479817630551,4.321599076483284,13.503200518706192,-13.576957329782404
6.052437719351302,-0.3449015995998543,7.245695808395384,4.1858295031854595,12.754205035596035,-12.854365236478836
6.048988703355304,-0.21735954924389392,7.287554103427238,4.057285850820671,12.051749179300097,-12.244842557649651
6.046815107862865,-0.09684205745089294,7.328126961935445,3.9348374252441745,11.38936710779429,-11.736149716147212
6.045846687288356,0.01705161362704996,7.367475336187887,3.817475928082702,10.761033991669242,-11.316847698159634
6.0460172034246265,0.12466195354374239,7.405650095468714,3.704307451101106,10.161391044946736,-10.976480333267451
6.047263822960064,0.22627586399320976,7.442693169979726,3.5945426477684315,9.585825387086986,-10.70559303245959
6.049526581599996,0.32213411786407964,7.47863859645741,3.4874867174438355,9.030471597368381,-10.495673053725946
6.052747922778637,0.4124388338377635,7.513513463631848,3.382529986906576,8.492172840057233,-10.339057925526793
6.056872311117014,0.4973605622383358,7.547338763500914,3.279139407651308,7.96842273785211,-10.22883680515684
6.061845916739397,0.5770447896168569,7.580130157577427,3.1768510395997396,7.457299615842613,-10.158757224694547
6.067616364635565,0.6516177857752831,7.611898667973424,3.0752634673527943,6.957399322639943,-10.123142803143026
6.074132542493318,0.7211917790016825,7.642651302646952,2.974032039321364,6.467769809590067,-10.11682373759975
6.0813444602833355,0.7858694770975831,7.672391623040165,2.8728638019453667,5.987848995852893,-10.13507988829718
6.089203155054311,0.8457479670561121,7.701120261059619,2.771513003062395,5.517406575022492,-10.173595275931204
6.097660634724872,0.900922032806337,7.728835391090243,2.669777050303083,5.056489983688235,-10.228422377278562
6.106669855052935,0.9514869326432194,7.755533161593274,2.567492826530297,4.605374554018682,-10.295954486953388
6.116184724379368,0.9975406781834062,7.781208089858577,2.4645332816607635,4.164517795809245,-10.372904466700506
6.1261601311612015,1.0391858561414986,7.805853422675185,2.3608042369937583,3.734517733062365,-10.456288347328147
6.136551989722617,1.0765310334721223,7.829461465045122,2.2562413535204766,3.3160752201815633,-10.543412435354178
6.147317300057338,1.109691785673938,7.852023878580327,2.1508072291669347,2.9099601648682367,-10.631862779425413
6.1584142179140775,1.1387913873226203,7.873531950871996,2.0444886013726804,2.5169815806959672,-10.719496054481446
6.1698021317873035,1.16396120312958,7.893976836885723,1.937293640827866,2.13796137987075,-10.804431114823036
6.181441743818599,1.1853408169282875,7.9133497732940015,1.8292493296796357,1.773711796810706,-10.885040644905393
6.193295151987882,1.2030779348963945,7.9316422665907975,1.7203989232305819,1.4250163083295149,-10.959942495439485
6.205325931336846,1.2173280979796897,7.948846255823104,1.610799498276187,1.0926138892702266,-11.027990430550622
6.217499212316643,1.2282542368723919,7.9649542508058655,1.5005195939706808,0.7771864161293753,-11.088264128842715
6.229781754685367,1.2360261010336857,7.979959446745572,1.3896369526822536,0.47934900775339945,-11.140058377718773
6.242142015695704,1.2408195911112196,7.9938558162723945,1.278236368905066,0.19964307315610189,-11.18287147739968
6.254550211606816,1.2428160218427806,8.006638179961445,1.1664076541310693,-0.061468177182685,-11.216392930466288
6.266978371825243,1.2422013400709537,8.018302256502755,1.0542437248264065,-0.3036020081835475,-11.240490536454747
6.279400385225953,1.2391653199891182,8.028844693751019,0.941838819461859,-0.5264564793020905,-11.255197041249328
6.291792038425845,1.2339007551960972,8.038263081945637,0.8292868490493657,-0.729809057408248,-11.260696509936098
6.3041310459778055,1.2266026646220147,8.04655595043613,0.7166798839500047,-0.9135137678506152,-11.257310601489012
6.316397072624025,1.2174675269435087,8.053722749275629,0.6041067779351146,-1.0774971174659782,-11.24548492604885
6.32857174789346,1.2066925557688488,8.05976381705498,0.4916519286746261,-1.2217530097434042,-11.225775662271795
6.340638673451148,1.1944750256714147,8.064680336341727,0.3793941720519081,-1.3463368566499467,-11.198836604657034
6.352583423707863,1.1810116571049152,8.068474278062245,0.2674058060053378,-1.4513590744035807,-11.165406800046986
6.364393540278912,1.1664980663608793,8.071148336122299,0.15575173800486797,-1.5369781322718927,-11.126298919539588
6.376058520942521,1.1511282850381603,8.072705853502347,0.04448874880947208,-1.6033933047237343,-11.08238849757848
6.3875698037929025,1.135094351990923,8.073150740990442,-0.06633513616631272,-1.6508372583302102,-11.034604154558185
6.398920747312812,1.1185859794076207,8.07248738962878,-0.17668117771189457,-1.6795685860132277,-10.983918903341175
6.410106607106888,1.1017902935474884,8.070720577851661,-0.28652036674530634,-1.689864382861255,-10.931342623977615
6.421124510042363,1.0848916497188759,8.067855374184209,-0.3958337929850825,-1.6820129400580202,-10.877915774906809
6.431973426539551,1.0680715203182956,8.063897036254358,-0.5046129507341506,-1.6563066168139091,-10.824704393174274
6.442654141742734,1.0515084541501565,8.058850906747017,-0.6128599946658934,-1.613034934916281,-10.772796420788653
6.453169226284236,1.0353781048009936,8.052722306800357,-0.7205879588737799,-1.5524779270718558,-10.723299379198531
6.463523007332245,1.019853325530275,8.045516427211618,-0.8278209526657652,-1.4748997591681037,-10.677339398734134
6.473721540587548,1.005104327938594,8.03723821768496,-0.9345943466531065,-1.3805426386664146,-10.636061594213054
6.4837725838669344,0.9912989015519299,8.027892274218429,-1.040954962595237,-1.2696210175294973,-10.600631760871517
6.493685572882454,0.9786026913766349,8.017482724592476,-1.1469612802039522,-1.1423160996881687,-10.572239344966727
6.50347159979622,0.9671795303797532,8.006013111790436,-1.2526836736536193,-0.9987706718570736,-10.552101618714937
6.513143395100018,0.9571918236611825,7.9934862750538995,-1.3582046898407687,-0.8390842949905621,-10.541468956617722
6.522715313336629,0.9488009807112768,7.979904228155492,-1.4636193794069459,-0.6633089252869356,-10.541631065245067
6.532203323143742,0.9421678914584075,7.965268034361423,-1.5690356900593965,-0.4714450832661286,-10.553923954807198
6.541625002058326,0.9374534406257462,7.949577677460829,-1.6745749296074686,-0.26343876393839905,-10.579737349224969
6.550999536464583,0.9348190529863623,7.932831928164755,-1.7803723030997183,-0.03917939019988215,-10.620522098850003
6.560347726994447,0.9344272590843634,7.9150282051337575,-1.8865775240882183,0.20150073081490658,-10.677796967849096
6.569691999585291,0.9364422663925125,7.896162429892875,-1.9933554937667093,0.45882476293115587,-10.753153889927633
6.579056422249216,0.941030514021824,7.876228874955208,-2.1008870326659856,0.7330665002690168,-10.848260383506522
6.5884667273894335,0.9483611790245142,7.855220004628548,-2.2093696365010507,1.0245408654914105,-10.964857236466804
6.597950339179679,0.9586065876794283,7.833126308263537,-2.3190182088657187,1.3335876318053297,-11.104748733998388
6.607536405056473,0.9719424639974816,7.80993612617488,-2.430065696205703,1.660545332313117,-11.269781501694478
6.6172558296964485,0.9885479173206128,7.7856354692128225,-2.5427635112226477,2.0057110171561834,-11.461806316285259
6.627141308869654,1.0086050274921745,7.760207834100596,-2.6573815743855,2.369279681341984,-11.682614785111902
6.637227359144576,1.0322978243055942,7.733634018356741,-2.774207722236619,2.7512546082059233,-11.93383932219446
6.6475503373876315,1.0598103703876536,7.705891941134375,-2.8935461154585638,3.1513162859139694,-12.216799969954076
6.658148441091508,1.0913235332467932,7.67695647997979,-3.0157141151581044,3.5686326247187248,-12.532274850322448
6.669061676423976,1.1270098594939804,7.646799338828209,-3.141036863661329,4.001586562152702,-12.88016182979887
6.6803317750189155,1.1670257251155074,7.615388970191596,-3.2698384819593174,4.447388478799074,-13.258986853140076
6.692002032270071,1.211499609903498,7.582690585372003,-3.4024283504907182,4.901530131563747,-13.665199197515571
6.704117028369105,1.2605149112191354,7.548666301867096,-3.539080342465874,5.357024813139617,-14.092176520452636
6.716722177481297,1.3140851593505316,7.513275498442437,-3.6800021076704006,5.803367766686117,-14.528846367207851
6.729863029074802,1.3721188370173927,7.4764754773657325,-3.825290571342479,6.225147912871419,-14.957824245450269
6.743584217444976,1.4343703161461068,7.438222571652307,-3.9748688137969816,6.600260238737592,-15.352989752801665
6.757927920606437,1.5003729185334826,7.398473883514337,-4.128398711324999,6.897733588060303,-15.676506779375899
6.772931649791771,1.5693502544140856,7.357189896401088,-4.285163779118758,7.07534506036483,-15.875501985737344
6.7886251523359125,1.6401037050177338,7.3143382586099,-4.4439187989761315,7.077503457734434,-15.879035936002108
6.80502618938609,1.7108787395950782,7.269899070620139,-4.602709158336153,6.834416167706849,-15.596726359510827
6.82213497678204,1.7792229012721468,7.223871979036777,-4.758676421931261,6.26430743811658,-14.921418439976343
6.839927205794762,1.8418659756533127,7.176285214817464,-4.907890606331025,5.2812085937523205,-13.739342317972843
6.858345865551295,1.8946780615908358,7.127206308754154,-5.045284029510753,3.8109025997103068,-11.951309033594512
6.877292646167204,1.932787087587939,7.076753468459047,-5.164797119846698,1.8157057333659858,-9.505924595288175
6.896620517043083,1.9509441449215987,7.025105497260579,-5.25985636579958,-0.6763192365389894,-6.4388542302655205
6.9161299584922995,1.9441809525562088,6.972506933602584,-5.324244908102235,-3.5495704167296744,-2.901987718731487
6.935571768017861,1.908685248388912,6.919264484521562,-5.35326478528955,-6.602926477598237,0.8398040000952776
6.954658620501751,1.8426559836129297,6.865731836668666,-5.344866745288598,-9.585584409170087,4.457758731877764
6.97308518033788,1.746800139521229,6.81228316921578,-5.30028915796982,-12.25782295241569,7.641635550029647
6.990553181733092,1.624221909997072,6.759280277636082,-5.223872802469523,-14.449381692774116,10.177911937822236
7.006795400833063,1.4797280930693308,6.707041549611386,-5.1220936830913,-16.088237312966246,11.986875348422293
7.021592681763757,1.3188457199396684,6.655820612780473,-5.0022249296070775,-17.19239195349582,13.109297271371428
7.034781138963154,1.1469218004047101,6.605798363484402,-4.871131956893363,-17.838345513034096,13.662099007945415
7.0462503569672,0.9685383452743692,6.557087043915468,-4.734510966813909,-18.126159184852174,13.790423631905405
7.055935740419944,0.7872767534258475,6.509741934247328,-4.596606730494855,-18.15387073658536,13.63326431841254
7.063808507954202,0.6057380460599938,6.46377586694238,-4.46027408731073,-18.004150801298653,13.306139243893048
7.069865888414802,0.42569653804700724,6.419173126069273,-4.3272126948717995,-17.74033982273945,12.89654944226335
7.074122853795273,0.24829313981961273,6.375900999120555,-4.198247200449166,-17.40774294998929,12.466415136692234
7.076605785193469,0.07421571031971982,6.333918527116063,-4.073583049082243,-17.03702355551134,12.057142571991983
7.077347942296666,-0.09615452523539358,6.293182696625241,-3.9530116233623236,-16.64789733655372,11.694902702048724
7.076386397044312,-0.26263349860093077,6.253652580391618,-3.8360625963418364,-16.252339367437614,11.395102596769906
7.073760062058303,-0.42515689227530695,6.2152919544282,-3.722111570374137,-15.857086063662354,11.165803344966005
7.06950849313555,-0.5837277529119305,6.178070838724459,-3.610453536924477,-15.465472591326973,11.01017883047485
7.063671215606431,-0.7383824788252003,6.141966303355214,-3.5003517486197286,-15.078733092512369,10.928216189457142
