th1 (rad),w1 (rad/s),th2 (rad),w2 (rad/s)
2.784724088103012,-2.9102653685335786,0.8210484386436951,2.9996151605840744
2.7556214344176766,-2.9907088337105265,0.8510445902495359,2.975338505029825
2.7257143460805713,-3.072014092784947,0.8807979752998342,2.959515559379675
2.694994205152722,-3.1547282280517064,0.9103931308936309,2.9523918208346096
2.663446922872205,-3.239444992874342,0.939917049101977,2.9542786808284376
2.6310524729434612,-3.3268100081050074,0.9694598359102614,2.965569451275087
2.597784372862411,-3.417528955620395,0.9991155304230123,2.9867557092025
2.5636090833062073,-3.512378677859588,1.0289830875150372,3.0184447360623587
2.5284852965276112,-3.612221166008912,1.0591675348756608,3.0613786803248426
2.492363084867522,-3.718020410931031,1.0897813216789092,3.1164558453291
2.455182880758212,-3.830861935618345,1.1209458801322,3.1847540997478774
2.4168742614020284,-3.95197440378641,1.1527934211296789,3.2675556430816144
2.3773545173641644,-4.08275177726847,1.185468977560495,3.366370899219931
2.3365269995914795,-4.224772650723288,1.2191326865526944,3.482956546995192
2.2942792730842467,-4.379809849441465,1.2539622520226463,3.6193175211036057
2.250481174589832,-4.549816742473853,1.2901554272336824,3.777673255990361
2.2049830071650938,-4.736864590524841,1.327932159793586,3.960351098009899
2.1576143612598453,-4.942983739898234,1.367535670773685,4.169539221831687
2.1081845238608627,-5.169825313334805,1.409231062992002,4.4067801635948305
2.0564862707275147,-5.418005320636351,1.4532988646279503,4.6720088429288005
2.0023062175211512,-5.685929280949187,1.5000189530572383,4.961849363568141
1.9454469247116593,-5.967881921289871,1.5496374466929197,5.266867431812288
1.8857681054987605,-6.251392647543547,1.6023061210110425,5.5677982540326845
1.823254179023325,-6.514747563512182,1.6579841035513694,5.831991236333692
1.7581067033882032,-6.727313577508245,1.7163040159147063,6.013857999698758
1.6908335676131208,-6.856790144776056,1.7764425959116938,6.065170105789238
1.6222656661653603,-6.884089314510159,1.8370942969695863,5.956233809086048
1.5534247730202586,-6.816207920715926,1.8966566350604468,5.6943396741387575
1.4852626938130993,-6.683430842399368,1.9536000318018343,5.320109223995095
1.4184283853891055,-6.522668755827307,2.006801124041785,4.884117191730814
1.3532016978308326,-6.362899998673495,2.0556422959590934,4.426253277905003
1.2895726978440976,-6.22107053087407,2.0999048287381434,3.969718110688094
1.227361992535357,-6.10470252998213,2.1396020098450244,3.5245111313476905
1.1663149672355357,-6.015748581411346,2.174847121158501,3.0927650035052476
1.1061574814214223,-5.953406637142118,2.205774771193554,2.6726931621218797
1.0466234150500011,-5.915723741909671,2.2325017028147727,2.2608796916383906
0.9874661776309044,-5.900387417241327,2.2551104997311566,1.853453321834254
0.9284623034584911,-5.90506586954829,2.2736450329494993,1.446644044700182
0.8694116447630083,-5.927519679144965,2.288111473396501,1.037031695516097
0.8101364479715586,-5.965604456998523,2.2984817903516617,0.6216530420408537
0.7504804034015734,-6.01722469097504,2.3046983207720704,0.19805083212569685
0.690308156491823,-6.080268386052728,2.3066788290933276,-0.23569575445656304
0.6295054726312957,-6.152537244004461,2.304321871548762,-0.6809423790753775
0.5679801001912511,-6.231680342882514,2.2975124477580082,-1.1384473163136128
0.5056632967624259,-6.315136447105104,2.286127974594872,-1.6083367104874182
0.44251193229137487,-6.4000890561803025,2.270044607489998,-2.090071745796021
0.37851104172957184,-6.483437942565556,2.2491438900320375,-2.5824240176399154
0.3136766623039163,-6.561790610376918,2.2233196498556382,-3.083466110852616
0.2480587562001471,-6.631476492691174,2.192484988747112,-3.5905840965443776
0.18174399127323537,-6.688585668427237,2.1565791477816685,-4.100517416617914
0.114858134588963,-6.729032465407013,2.1155739736154895,-4.6094295873659235
0.047567809934892874,-6.7486427068711246,2.06947967774183,-5.1130106320254
-0.019918617133818373,-6.743261807442883,2.018349571421576,-5.60660958931021
-0.0873512352082472,-6.70887965263775,1.962283475528474,-6.085393299505926
-0.1544400317346247,-6.641767284407987,1.9014295425334147,-6.544526249872935
-0.22085770457870457,-6.538619738728547,1.8359842800346853,-6.979365578581773
-0.28624390196599003,-6.396698636063285,1.7661906242488676,-7.385665064851811
-0.3502108883266229,-6.213966969713037,1.6923339736003495,-7.759781525441833
-0.41235055802375326,-5.989206811107666,1.6147361583459312,-8.098875991978352
-0.4722426261348299,-5.722108591467899,1.5337473984261476,-8.401100225450573
-0.5294637120495089,-5.413318946273428,1.4497363961716419,-8.665757001107586
-0.5835969015122432,-5.064433891202759,1.363078826160566,-8.89342123649748
-0.6342412404242708,-4.677926373357176,1.2741446137955912,-9.086009793676947
-0.6810205041578425,-4.257002498531571,1.1832845158588217,-9.246791752265281
-0.7235905291431582,-3.805388479712133,1.0908165983361688,-9.380338358534567
-0.7616444139402796,-3.3270590108904248,0.9970132147508232,-9.492421769230397
-0.7949150040491838,-2.8259250799156974,0.9020889970585192,-9.58988218020999
-0.8231742548483407,-2.3055030241321823,0.8061901752564193,-9.680491637639253
-0.8462292850896626,-1.7685857004042718,0.7093852588800268,-9.77284788262551
-0.8639151420937052,-1.2169313743480203,0.6116567800537717,-9.876332016517
-0.8760844558371854,-0.6509785793408278,0.5128934598886017,-10.001159268055535
-0.8825942416305937,-0.06959016537937424,0.4128818672080463,-10.158541460513453
-0.8832901432843875,0.5301649335763595,0.3112964526029118,-10.360957119827653
-0.8779884939486239,1.1531515162146464,0.20768688140463526,-10.622471990432434
-0.8664569787864774,1.806091381935862,0.10146216150031091,-10.95891847804239
-0.8483960649671188,2.4968764325799677,-0.008127023280112985,-11.387399113262534
-0.8234273006413192,3.2322494482170665,-0.12200101441273832,-11.923724646640748
-0.7911048061591486,4.011410606619357,-0.2412382608791458,-12.574435114637243
-0.750990700092955,4.810564027545367,-0.36698261202551824,-13.316465493807364
-0.7028850598175013,5.5523215234835845,-0.5001472669635919,-14.055736035362884
-0.6473618445826654,6.0705750705187596,-0.6407046273172208,-14.578452144506642
-0.5866560938774779,6.146798750795531,-0.7864891487622871,-14.598546901216512
-0.5251881063695225,5.708038264795006,-0.9324746177744523,-14.02414416173502
-0.46810772372157244,4.954674198532628,-1.0727160593918024,-13.124640088842222
-0.4185609817362462,4.141162975445598,-1.2039624602802246,-12.229705952370484
-0.3771493519817902,3.3889237851072993,-1.3262595198039295,-11.48505068319042
-0.3432601141307172,2.7206722941107317,-1.4411100266358337,-10.907412407214013
-0.3160533911896099,2.1251735859357876,-1.5501841507079739,-10.47308366226284
-0.29480165533025204,1.5853137547675273,-1.6549149873306024,-10.154138064215786
-0.2789485177825768,1.0859538999040335,-1.7564563679727603,-9.927478051240076
-0.26808897878353644,0.6152309843772723,-1.855731148485161,-9.77557118019326
-0.2619366689397637,0.16420897056844402,-1.9534868602870936,-9.685335474605093
-0.2602945792340793,-0.27371253478205454,-2.0503402150331445,-9.646909083211902
-0.26303170458189984,-0.7032916810052703,-2.1468093058652635,-9.652663858214412
-0.27006462139195253,-1.1277927963285994,-2.2433359444474075,-9.696473521058227
-0.2813425493552385,-1.5492135935790343,-2.34030067965799,-9.773180130030829
-0.29683468529102885,-1.9684257444093796,-2.4380324809582983,-9.878205647017142
-0.31651894273512265,-2.38526036908986,-2.53681453742847,-10.00727131714018
-0.34037154642602124,-2.7985652598123822,-2.6368872505998717,-10.156202075720763
-0.36835719902414504,-3.206256590826915,-2.738449271357079,-10.320803385070702
-0.4004197649324142,-3.6053840361362766,-2.8416573052077863,-10.496803506246948
-0.436473605293777,-3.9922235382294318,-2.9466253402702556,-10.679855403243918
-0.4763958406760713,-4.36240554948487,-3.0534238943026946,-10.865589644353749
-0.52001989617092,-4.711078191367509,-3.162079790746232,-11.049703734447537
-0.5671306780845952,-5.033095309742746,-3.2725768280907075,-11.228066122353548
-0.6174616311820227,-5.323210899177124,-3.384857489314243,-11.396807491019956
-0.6706937401737939,-5.576256682154587,-3.498825564224443,-11.552371135193706
-0.7264563069953398,-5.787281469011367,-3.6143492755763797,-11.691500934064278
-0.7843291216854534,-5.951640569743476,-3.7312642849170223,-11.81116040615715
-0.8438455273828882,-6.065039777378212,-3.849375888978594,-11.908397588629258
-0.9044959251566703,-6.123557367115446,-3.9684598648648866,-11.98019332114125
-0.9657314988278248,-6.123683275521617,-4.088261798076299,-12.023348621865836
-1.026968331583041,-6.062420793343605,-4.2084952842949575,-12.034473818259961
-1.087592539516477,-5.937487614362098,-4.328840022477557,-12.010132874476911
-1.146967415660098,-5.747627751688875,-4.448941351222326,-11.947168497617485
-1.2044436931769866,-5.493006195365616,-4.568413036198502,-11.843188903925823
-1.2593737551306428,-5.1756131119759,-4.68684492523776,-11.697143657108322
-1.3111298862504017,-4.799569151005962,-4.803816361808844,-11.509869111322407
-1.3591255777604614,-4.371215962141231,-4.918915052922068,-11.284463533295536
-1.4028377373818737,-3.8989085725537524,-5.031759688255023,-11.02637395198476
-1.4418268231074112,-3.392495699540544,-5.142023427774871,-10.743142437368979
-1.4757517801028166,-2.8625582999450385,-5.249454852148561,-10.443849468783084
-1.504377363102267,-2.3195427984566495,-5.353893346836392,-10.138372624814568
-1.5275727910868335,-1.7729469082902982,-5.455277073084537,-9.836619056914953
-1.5453022601697366,-1.2306871460881332,-5.5536432636536865,-9.547878566622513
-1.557609131630618,-0.6987149612857045,-5.649122049319912,-9.280392880662342
-1.564596281243475,-0.18088048967516157,-5.7419259781265355,-9.041172094335614
-1.5664050861402268,0.32100773697552054,-5.832337699069892,-8.8360358748005
-1.5631950087704716,0.8070027277502396,-5.920698057817897,-8.669827727062925
-1.555124981492969,1.278794584018529,-6.007396335088526,-8.546745491441433
-1.5423370356527837,1.7395039991127437,-6.09286379000294,-8.470742728057019
-1.5249419956616563,2.193538008256157,-6.17757121728351,-8.445974594000793
-1.5030066155790949,2.646535872967973,-6.262030963223518,-8.477280809516273
-1.4765412568494152,3.105419366226914,-6.3468037713186805,-8.570711594530312
-1.445487063187146,3.5785462759010276,-6.432510887263984,-8.734102509877019
-1.4097016004281357,4.075934126726188,-6.519851912362754,-8.977673063362623
-1.368942259160874,4.60943516025589,-6.60962864299638,-9.314512671678438
-1.322847907558315,5.192505937157892,-6.702773769713165,-9.760493455098075
-1.270922848186736,5.838579174819987,-6.800378704264146,-10.33227031516353
-1.2125370564385363,6.555452547434451,-6.903701407415781,-11.039809661600467
-1.1469825309641917,7.329729994784285,-7.014099504031786,-11.865145314386837
-1.073685231016349,8.091690522007127,-7.132750957175654,-12.713817938052262
-0.9927683257962776,8.665014720728054,-7.259889136556176,-13.344723930596677
-0.906118178588997,8.788609354025123,-7.393336375862143,-13.399155351425478
-0.8182320850487458,8.357579852900106,-7.527327929376398,-12.732778323955541
-0.7346562865197447,7.610951433950115,-7.654655712615953,-11.67145178273675
-0.6585467721802435,6.847933716445685,-7.7713702304433205,-10.617477370119065
-0.5900674350157866,6.193122979181272,-7.877545004144511,-9.731788429947043
-0.5281362052239739,5.657869189610269,-7.974862888443981,-9.022921876805523
-0.47155751332787116,5.221795338445723,-8.065092107212037,-8.458979242759556
-0.41933955994341393,4.862431119907629,-8.149681899639631,-8.007138556529904
-0.37071524874433764,4.561672912019383,-8.22975328520493,-7.641673524952676
-0.3250985196241438,4.305957714276358,-8.306170020454458,-7.343718559352998
-0.28203894248138023,4.08525205774608,-8.379607206047988,-7.099624888193068
-0.24118642190391942,3.8920796488716167,-8.450603454929919,-6.899478128015089
-0.20226562541520327,3.7207953830867866,-8.51959823621007,-6.736001035921932
-0.1650576715843354,3.567083956732599,-8.58695824656929,-6.603775839953181
-0.1293868320170094,3.4276284501520835,-8.652996004968822,-6.498686887736266
-0.09511054751548856,3.2999040427185786,-8.717982873846184,-6.4175026182428825
-0.06211150708830277,3.182066131407779,-8.782157900028613,-6.357538683653985
-0.03029084577422498,3.0729115066593296,-8.845733286865153,-6.316363935549179
0.00043826929236831513,2.9718934157803765,-8.908896926220645,-6.291530436441303
0.03015720345017208,2.8791650023417708,-8.971812230585059,-6.280332083048752
0.05894885347358979,2.795610899652511,-9.034615551415547,-6.2796261590206885
0.0869049624701149,2.7228086558996445,-9.097411813005753,-6.285783201482726
0.11413304902911134,2.662854247784838,-9.16026964502058,-6.294844961700263
0.14076159150695972,2.618011362180238,-9.223218094637582,-6.302938531923359
0.1669417051287621,2.590217229935128,-9.286247479956815,-6.306897383117545
0.19284387742811337,2.5805778047613117,-9.34931645378799,-6.3049062280460095
0.21864965547572648,2.5890447247267203,-9.41236551606845,-6.29690836277965
0.2445401027229937,2.6144177084247695,-9.475334599696247,-6.284583287859924
0.2706842798072414,2.654668686369427,-9.538180432574846,-6.27090355718793
0.2972309666709357,2.7074388270421736,-9.600889468146725,-6.259474824238183
0.3243053549413574,2.77051577792635,-9.663484216389108,-6.253918905222197
0.35201051272062095,2.842162069450543,-9.72602340544133,-6.257471028017666
0.3804321334151264,2.9212660580550796,-9.788598115721507,-6.272826772916914
0.40964479399567716,3.0073571757377278,-9.851326383450676,-6.302181414463768
0.43971836575305445,3.100549073379761,-9.914348197595313,-6.347377903801642
0.47072385648685205,3.2014639592215266,-9.97782197663333,-6.410096256834795
0.5027384960790673,3.311171247694548,-10.041922939201678,-6.492046475834961
0.5358502085560127,3.431156631089861,-10.106843403960028,-6.595152004216734
0.5701617748669113,3.563327583441999,-10.172794924002195,-6.721726439920835
0.6057950507013313,3.710056994909258,-10.240012188401403,-6.874654363895635
0.6428956206504239,3.8742656414003243,-10.30875873204036,-7.057590414051241
0.6816382770644271,4.0595439147907095,-10.379334636180872,-7.275190591831733
0.7222337162123342,4.270310459497952,-10.452086542099188,-7.533384927368693
0.7649368208073137,4.511994148172189,-10.527420391372875,-7.839684569765099
0.8100567622890357,4.791192482909204,-10.605817237070525,-8.203471100754415
0.8579686871181277,5.115670607585886,-10.68785194807807,-8.636095677071392
0.9091253931939866,5.4938398406525595,-10.774212904848783,-9.150308556256746
0.9640637916005121,5.932808520327631,-10.865715990411351,-9.75778809200142
1.0233918768037884,6.432879692345077,-10.963293871331365,-10.461846997230772
1.0877206737272391,6.974213034567029,-11.067912341303673,-11.239368380451666
1.1574628040729094,7.490407978100164,-11.18030602510819,-12.004584469964845
1.232366883853911,7.837337750791299,-11.300351869807837,-12.565966773813221
1.310740261361824,7.81968811911853,-11.42601153754597,-12.662477051057277
1.3889371425530093,7.357297631564713,-11.552636308056542,-12.192162122520575
1.4625101188686565,6.612625861278162,-11.674557929281747,-11.38411343281459
1.528636377481438,5.815642648480258,-11.788399063609893,-10.55347668718004
1.5867928039662407,5.082715037880926,-11.893933830481693,-9.855607607660179
1.63761995434505,4.435677001994487,-11.992489906558294,-9.317114309112196
1.681976724364995,3.8619787974362194,-12.085661049649417,-8.91972991387274
1.7205965123393572,3.3428354455325735,-12.174858348788144,-8.638462717145329
1.754024866794683,2.861361560941992,-12.261242975959597,-8.452113078179337
1.7826384824041028,2.403928763232654,-12.34576410674139,-8.344664732462462
1.8066777700364294,1.959789441542336,-12.429210754066014,-8.304430177697299
1.8262756644518527,1.5204535849527585,-12.512255055842987,-8.322910514586512
1.8414802003013804,1.079187646354609,-12.595484160988851,-8.393816282095992
1.8522720767649266,0.6306942271661543,-12.679422323809812,-8.512288639984423
1.858579019036588,0.17095695192384358,-12.764545210209656,-8.674271115193438
1.8602885885558265,-0.30277684872323346,-12.85128792136159,-8.87597820642516
1.857260820068594,-0.7919026295266021,-12.940047703425842,-9.113424155049533
1.849341793773328,-1.2962833946226109,-13.031181944976337,-9.381997298656225
1.8363789598271019,-1.8140304867219097,-13.1250019179629,-9.676089707847845
1.8182386549598828,-2.341293275896346,-13.221762815041378,-9.98881719760467
1.7948257222009194,-2.872128756240197,-13.321650987017424,-10.311887816957615
1.7661044346385175,-3.398535544905498,-13.424769865187,-10.635689724952151
1.7321190791894625,-3.910733833842272,-13.531126762436521,-10.94966022636413
1.69301174085104,-4.397740873346381,-13.640623364700163,-11.242955485123145
1.649034332117576,-4.848224980404442,-13.753052919551395,-11.505363522844995
1.6005520823135315,-5.251531208348851,-13.868106554779846,-11.728309730607075
1.548036770230043,-5.5986911250367255,-13.985389652085917,-11.905733857690237
1.4920498589796758,-5.883200226284009,-14.10444699066282,-12.0346152224734
1.4332178567168357,-6.1013962047732075,-14.224793142887554,-12.11500857828571
1.3722038946691035,-6.252386870279857,-14.34594322867041,-12.149598887072045
1.309680025966305,-6.337607137881762,-14.46743921754113,-12.1429238171167
1.2463039545874874,-6.360172116278948,-14.588868455712298,-12.10048590325233
1.182702233424698,-6.324208631879936,-14.70987331474482,-12.027961553583829
1.1194601471058985,-6.234301766523863,-14.830152930280658,-11.930637677752046
1.0571171294406598,-6.095121158487382,-14.949459307058179,-11.813114982547082
0.996165917855786,-5.911227093582172,-15.06759045688365,-11.679246049204558
0.9370536469199643,-5.687015719698772,-15.184382917375695,-11.532239408200915
0.8801834897229766,-5.426747206095197,-15.299705311457704,-11.374853351937999
0.8259160176620246,-5.134603350673397,-15.413453844977084,-11.209613776243218
0.7745699841552907,-4.814733739020695,-15.525549982739516,-11.03900864244672
0.7264226467650837,-4.471265708383237,-15.635940069163983,-10.865631209659833
0.6817099896812513,-4.108269004595074,-15.744596381260582,-10.692261709025987
0.6406272996353005,-3.7296787436159184,-15.851518998350842,-10.52189111388219
0.6033305121991414,-3.339188797192544,-15.956737909489664,-10.357700416789067
0.569938624227216,-2.940131571608832,-16.060314913657557,-10.203014170164924
0.5405373085111277,-2.5353596999309547,-16.162345055359207,-10.061248323367089
0.5151837115118182,-2.1271414587378428,-16.26295753859288,-9.935870492294924
0.4939122969244398,-1.717076173862897,-16.362316243515828,-9.830387031929881
0.4767415351858108,-1.306029922926911,-16.460620113835127,-9.748367060011171
0.4636812359565417,-0.8940865760633733,-16.55810378443524,-9.693510102338465
0.45474037019590796,-0.4805052620611524,-16.655038885458623,-9.669762061397154
0.4499353175752964,-0.0636729191003435,-16.751736506072593,-9.681483965927278
0.449298588384293,0.35896020843671306,-16.848551345731867,-9.73367900127314
0.45288819046866013,0.7909728530690951,-16.9458881357446,-9.832284191734097
0.4607979189993511,1.2370976689710014,-17.04421097766194,-9.984530145807904
0.47316889568906106,1.703366948200077,-17.14405627912002,-10.199356306653105
0.4902025651710618,2.197222326420664,-17.24604984218655,-10.487816798941896
0.5121747884352684,2.7274148706513177,-17.35092801017597,-10.863263596256042
0.5394489371417817,3.303224692646499,-17.45956064613853,-11.340700032197109
0.5724811840682467,3.9317995055673967,-17.5729676464605,-11.933707088878917
0.6117991791239207,4.6107683536438335,-17.69230471734929,-12.645074108516072
0.657906862660359,5.310439230238835,-17.818755458434453,-13.44325016329187
0.7110112549627474,5.939453023784983,-17.95318796006737,-14.215830632132558
0.7704057852005972,6.310519853574167,-18.095346266388695,-14.722100266418385
0.8335109837363389,6.199591817811637,-18.24256726905288,-14.67183919256166
