th1 (rad),w1 (rad/s),th2 (rad),w2 (rad/s)
3.8703507614997315,2.178170650072947,4.769352162900122,-0.22949017392285861
3.8921324680004608,2.235936082163033,4.767057261160894,-0.20473676999476406
3.914491828822091,2.296266648046223,4.765009893460946,-0.18392859924652374
3.937454495302553,2.35933270659565,4.7631706074684805,-0.1672940719591822
3.9610478223685095,2.4253090625770297,4.761497666748888,-0.1550696835907252
3.98530091299428,2.4943749483709046,4.759946969912981,-0.14749841103209044
4.010244662477989,2.5667136681032527,4.75847198580266,-0.14482737504358006
4.035911799159021,2.6425117372664553,4.7570237120522245,-0.1473044912915898
4.062336916531685,2.721957287870606,4.755550667139309,-0.1551737386234754
4.089556489410391,2.8052374262818787,4.753998929753074,-0.16866855156184268
4.11760886367321,2.8925341239990288,4.752312244237455,-0.1880026891354897
4.1465342049132,2.9840180874347353,4.7504322173461,-0.21335774046745798
4.176374385787548,3.079839891072509,4.748298639941425,-0.24486620027407555
4.2071727846982725,3.1801174758939,4.7458499779386845,-0.28258879661412306
4.238973959457211,3.2849189322930523,4.743024089972543,-0.32648451177266596
4.2718231487801415,3.394239349415325,4.739759244854817,-0.37637157514512676
4.305765542274295,3.507970508154294,4.7359955291033655,-0.43187775555163566
4.340845247355838,3.6258624729948683,4.731676751547849,-0.4923787622080776
4.377103872085787,3.747476931850341,4.726752963925768,-0.5569248212047426
4.41457864140429,3.8721337621558405,4.72118371571372,-0.6241579920552514
4.453299979025848,3.9988551187169152,4.714942135793168,-0.6922270344248233
4.493288530213017,4.126315563007737,4.708019865448919,-0.7587129330864191
4.534551685843095,4.252812115932217,4.700432736118055,-0.8205861260075362
4.577079807002417,4.376273316758988,4.69222687485798,-0.8742241373982692
4.620842540170007,4.494328569461619,4.683484633483997,-0.9155215340448624
4.665785825864623,4.604454032573301,4.674329418143548,-0.9401167308099748
4.711830366190356,4.704195240238432,4.664928250835449,-0.9437365724118801
4.758872318592741,4.79143988914626,4.65549088511133,-0.9226202544007556
4.806786717484203,4.8646852139701355,4.646264682567323,-0.8739411570305973
4.855433569623905,4.923228937624116,4.637525270997017,-0.7961215426371652
4.904665859000146,4.967225303350154,4.629564055570645,-0.6889519590190208
4.954338112033648,4.99758824321542,4.622674535980455,-0.5534852858019208
5.004313994465802,5.015773626415777,4.617139683122436,-0.3917481359337167
5.05447173072996,5.0235060411287,4.613222201763099,-0.20636254915316257
5.104706791141247,5.022518618717843,4.611158576271567,-0.00017753420932475894
5.154931977328426,5.014352523718141,4.611156800929474,0.22401993099193643
5.205075502565607,5.000232740854325,4.613397000239393,0.46368758137397637
5.25507782997415,4.981013277104489,4.618033876053133,0.7166117909151264
5.304887962745195,4.957173375196521,4.625199993962284,0.9809179826465365
5.35445969649716,4.928844861820415,4.63500917378875,1.2550360116510506
5.403748145115364,4.895854690614653,4.647559533905261,1.5376442243286044
5.452706692021511,4.857772155665135,4.662935976148547,1.8276086493452743
5.501284413578163,4.813954982731315,4.6812120626419995,2.1239272124959423
5.549423963405476,4.763591833493866,4.702451334766959,2.4256840939827597
5.597059881740415,4.705740744254794,4.726708175706786,2.732016335148611
5.6441172891829625,4.639364002328449,4.754028339058272,3.04209310636213
5.690510929206247,4.563360292849491,4.784449270121893,3.355107184386585
5.736144532134742,4.476594900058933,4.818000341965759,3.670277776782352
5.780910481135331,4.377928508737935,4.854703119733583,3.9868636191950944
5.82468976622271,4.266244848110472,4.894571755925534,4.304185106664266
5.867352214703815,4.140477139786801,4.937613606992176,4.621654017706873
5.908756986101683,3.999633125712711,4.983830147169245,4.9388091016351945
5.94875331735881,3.842818436509992,5.033218238185597,5.255355386157447
5.98718150172391,3.669258307465559,5.085771792047172,5.571204466364527
6.023874084798566,3.4783182858908437,5.141483836710817,5.886512149308897
6.058657267657474,3.269525785799599,5.200348958203906,6.201708446188589
6.09135252551547,3.0425964162875463,5.262366042665792,6.517512661729731
6.121778489678345,2.7974723719085324,5.327541169283089,6.834922611619902
6.14975321339743,2.5343854777006154,5.395890395399288,7.1551608247453915
6.175097068174436,2.2539656378076707,5.467442003646742,7.479550529455792
6.197636724552512,1.957427489976867,5.5422375089413,7.8092785217978005
6.217210999452281,1.646884514277498,5.620330294159277,8.144979425061319
6.233679844595056,1.3258583805716646,5.70178008840989,8.48604858968033
6.246938428400772,1.000060907796212,5.786640574306694,8.829572607186615
6.256939037478734,0.6784940754388697,5.87493630037856,9.168799786508865
6.263723978233123,0.37476659806004625,5.966624298243649,9.491256947666212
6.267471644213723,0.10814726354448173,6.061536867720311,9.777114169021502
6.2685531168491675,-0.09678508184019077,6.159308009410526,9.999284391868578
6.267585266030766,-0.21358807952142472,6.259300853329211,10.127510253010385
6.265449385235551,-0.22137114608042438,6.360575955859315,10.137637285721238
6.263235673774747,-0.1136622137651438,6.461952328716528,10.02279205681955
6.262099051637096,0.09744108101269866,6.562180249284723,9.79839161138291
6.263073462447222,0.3859704344385016,6.660164165398553,9.49573966979364
6.266933166791607,0.7221481007009151,6.755121562096489,9.149068754781787
6.274154647798616,1.0805899277380124,6.846612249644307,8.785500754218877
6.284960547075996,1.4433390919581788,6.934467257186496,8.421918108358314
6.2993939379955775,1.7991588164996455,7.018686438270079,8.066542140658177
6.317385526160574,2.1415657204627734,7.09935185967666,7.721878153011134
6.338801183365201,2.4670211083009876,7.176570641206771,7.387243975581093
6.3634713944482115,2.773675878011593,7.250443080962582,7.060463381038701
6.391208153228328,3.060612713256242,7.321047714772969,6.73886553535134
6.42181428036089,3.3274283345088085,7.388436370126482,6.419828839223835
6.455088563705979,3.574021581621197,7.45263465851872,6.101055359234492
6.49082877952219,3.8004971194924506,7.513645212111065,5.780693625106844
6.528833750717115,4.007129702707489,7.571452148362133,5.457377525769665
6.56890504774419,4.194356888595105,7.62602592361983,5.130218441773364
6.610848616630141,4.36278200134926,7.677328108037563,4.798770634249485
6.654476436643633,4.513177392878935,7.725315814380058,4.462980890456931
6.699608210572422,4.646482950016052,7.769945623284627,4.123128930596315
6.746073040072583,4.763797757747397,7.81117691259059,3.7797629792116987
6.793711017650057,4.866364622760394,7.848974542382708,3.433633988338018
6.842374663877661,4.955548209760916,7.883310882266088,3.085631608293763
6.8919301459752695,5.032808068756439,7.914167198349025,2.7367247968520685
6.942258226662834,5.099667959085057,7.9415344463175455,2.3879097905506166
6.993254906253685,5.157682680719348,7.965413544223051,2.0401680008045355
7.044831733060878,5.2084031559180595,7.9858152242310965,1.6944362798305692
7.096915764620059,5.253339800541806,8.002759587029402,1.3515920039380838
7.149449162625477,5.293923309963574,8.016275507068784,1.012455635717349
7.202388395725113,5.3314608822791145,8.026400063425957,0.6778139306372801
7.255703004547904,5.367084651974216,8.03317820273233,0.3484677718665404
7.309373851067646,5.401687818324232,8.036662880450995,0.025309642662960596
7.363390729250888,5.435842903675923,8.036915976877625,-0.29056340731391833
7.417749158287648,5.469696408514351,8.034010342804486,-0.5976957059107602
7.472446122372791,5.502836149180211,8.028033385745378,-0.8940754733747609
7.527474483864593,5.53413410629725,8.01909263101163,-1.1769011632426483
7.5828158249275655,5.561582162287516,8.007323619379203,-1.4423397411496386
7.6384316465504405,5.582164271587403,7.992900221967707,-1.6853421293257886
7.694253289266315,5.591846166127084,7.976046800674449,-1.8996338227956748
7.750171750927586,5.585799976745085,7.957050462446492,-2.0780486842618004
7.8060297506950365,5.558980576834884,7.936269975603874,-2.213370195530648
7.861619556463386,5.507078552688133,7.914136273648568,-2.2997096276929283
7.916690341990267,5.4276650800086115,7.891139177371638,-2.334148288956308
7.970966992790354,5.321104348071509,7.867797694482075,-2.3180282555237937
8.024178036271069,5.190757705166718,7.844617411926837,-2.2572056247479866
8.076085613322736,5.042298172843716,7.822045355679357,-2.161007500228503
8.126508595051172,4.8824337787120005,7.800435280677072,-2.040327325285128
8.175332932838293,4.717611520389588,7.780032007424221,-1.9056897517624232
8.22250904804219,4.5531486616042285,7.760975109906596,-1.7659381345510048
8.268040534658232,4.3929050511896515,7.743315728561086,-1.6277167415317952
8.311969585170129,4.239358227924754,7.727038561145768,-1.4955521399326777
8.354363167449376,4.0938751721354505,7.7120830397464415,-1.372235253066108
8.39530191917073,3.9570244537204697,7.69836068721578,-1.2592744324150362
8.434872163707935,3.82884814381153,7.68576794289163,-1.1572982939018328
8.47316064514605,3.709068081831893,7.674194959952612,-1.0663675756145228
8.510251325964369,3.5972294659462842,7.663531284196466,-0.9861975216393993
8.546223620623831,3.492794820081269,7.6536693089800725,-0.9163080165207405
8.581151568824644,3.3952023351492686,7.644506228814865,-0.8561208897097728
8.615103592176137,3.3039001341500334,7.6359450199177665,-0.8050207904033584
8.648142593517637,3.218364942721666,7.627894812013733,-0.7623918867000515
8.680326242944853,3.1381110026773817,7.620270893146732,-0.7276389608590392
8.711707352971626,3.0626930860473913,7.6129945035381414,-0.7001986637288481
8.7423342838321,2.9917060872184003,7.605992516900853,-0.6795447042618894
8.772251344704285,2.9247827486281097,7.599197069858234,-0.6651894028716552
8.801499172190567,2.8615904755446953,7.5925451758295175,-0.6566831475837848
8.830115076946015,2.801827812377371,7.58597834435368,-0.653612714045031
8.85813335506979,2.7452209119211206,7.579442217213229,-0.6555990395552229
8.885585564189,2.6915201793387435,7.572886226817677,-0.6622948054631365
8.912500765982388,2.6404971812543074,7.566263278763046,-0.6733820336525267
8.938905737794931,2.591941855570595,7.55952945842652,-0.6885698101265253
8.964825156350637,2.5456600257852755,7.552643760325255,-0.7075921916030636
8.99028175660849,2.5014712059486026,7.545567838409224,-0.7302063165148107
9.015296468667975,2.4592066734826297,7.538265775244076,-0.7561907215001735
9.0398885354028,2.418707783422164,7.530703868029074,-0.785343853026988
9.064075613237023,2.379824497095476,7.522850429498805,-0.8174827577905404
9.087873858207978,2.3424140995156257,7.514675601920899,-0.8524419327923994
9.111297999203133,2.306340081998714,7.506151182592975,-0.8900723151458989
9.13436140002312,2.2714711692897267,7.497250459441516,-0.9302403917802975
9.157076111716018,2.237680473494227,7.487948055523713,-0.9728274097589051
9.17945291645096,2.2048447602518317,7.478219781426124,-1.0177286685158566
9.20150136405348,2.1728438157973815,7.468042494740965,-1.064852875702371
9.223229802211453,2.1415599068467963,7.457393965983941,-1.114121548337996
9.244645401279922,2.11087732866477,7.446252750500562,-1.165468440445052
9.265754174566569,2.080682040298002,7.434598066096111,-1.2188389771802968
9.286560994969548,2.0508613898916903,7.422409676324308,-1.2741896735421798
9.307069608868465,2.0213039373706754,7.409667779588886,-1.3314875128906043
9.327282648242171,1.9918993867014916,7.39635290445998,-1.3907092566184436
9.347201642109185,1.962538645616755,7.3824458118937955,-1.4518406511907955
9.366827028565353,1.9331140372519775,7.367927405381887,-1.5148754922322627
9.386158168937873,1.90351969579719,7.352778650459564,-1.5798144971973302
9.405193365895846,1.8736521871756118,7.336980505487591,-1.6466639282126347
9.423929887767603,1.8434114060737543,7.320513866205465,-1.7154338947753527
9.44236400182834,1.81270181243957,7.303359527257712,-1.7861362520540827
9.460491019952736,1.7814340837886906,7.285498164737171,-1.8587819946506767
9.478305360790623,1.7495272740474948,7.266910344790665,-1.9333780282007729
9.495800633531099,1.7169115845992904,7.247576564508657,-2.0099231829193824
9.512969749377092,1.6835318675303363,7.227477332679463,-2.088403315626003
9.529805068052395,1.6493519928410365,7.206593299523203,-2.1687853324235236
9.546298587980806,1.614360217502987,7.184905446198968,-2.2510099570281406
9.562442190155835,1.5785756900622714,7.162395346628687,-2.3349830757225254
9.578227947056458,1.5420562033609833,7.139045515871461,-2.420565517598374
9.593648509090068,1.5049072607886496,7.1148398606954775,-2.5075611898898544
9.608697581697955,1.4672924365563587,7.089764248796579,-2.5957035979502048
9.623370506063518,1.4294448737438268,7.063807212817077,-2.684640956053463
9.637664954800956,1.3916795602072043,7.036960803256542,-2.773920358415497
9.651581750403027,1.3544057387218948,7.009221599672387,-2.8629718469347702
9.665125807790245,1.3181384382994674,6.980591881203039,-2.9510936909943823
9.67830719217324,1.2835076689257974,6.951080944293095,-3.037440772378533
9.691142268862498,1.2512633404470777,6.92070653656931,-3.1210185959740673
9.703654902266969,1.2222735276494234,6.889496350609569,-3.200686021991184
9.715877637543462,1.197513438730619,6.857489490389657,-3.2751701685788412
9.727852771930769,1.1780425340388394,6.824737788703868,-3.3430968302921227
9.739633197271157,1.164967891457334,6.791306820400947,-3.403038929990334
9.75128287618573,1.1593932948099877,6.757276431101044,-3.453583744733909
9.76287680913383,1.162355674109406,6.722740593653705,-3.4934168607396985
9.774500365874925,1.1747532572761927,6.687806425046308,-3.5214172643659283
9.786247898447687,1.1972726022423605,6.652592252402648,-3.5367543085611026
9.79822062447011,1.2303237976971881,6.617224709317037,-3.538974501208805
9.810523862447083,1.273993707323565,6.581834964304949,-3.528065238378701
9.823263799520317,1.3280255962178609,6.546554311921162,-3.5044845248142353
9.836544055482497,1.3918298148368757,6.5115094666730196,-3.46915040605629
9.850462353630865,1.4645251542083444,6.476817962612457,-3.423390354735573
9.865107605172948,1.5450053145239817,6.442584059065101,-3.3688575556964437
9.880557658318189,1.6320210331559886,6.408895483508137,-3.307426135820532
9.89687786864975,1.7242667483451808,6.3758212221499315,-3.2410796506079733
9.9141205361332,1.8204614184925487,6.343410425643852,-3.1718063113900152
9.932325150318126,1.9194157227043296,6.311692362529952,-3.101511201564988
9.95151930754517,2.020081365397037,6.280677250514302,-3.0319513160601557
9.971720121199139,2.121581617998876,6.2503577373537,-2.9646949122353194
9.992935937379128,2.2232248714239105,6.220710788231347,-2.9011032606355456
10.015168186093367,2.3245045626160388,6.191699755624992,-2.842330802565148
10.038413231719527,2.425089433553713,6.1632764475993405,-2.789338901930806
10.062664126055065,2.5248079327018904,6.135383058580032,-2.742918515306649
10.087912205382084,2.623629981991109,6.107953873426966,-2.7037178182754062
10.114148505201996,2.721648572342118,6.080916695244212,-2.672271785500443
10.141364990925418,2.8190629029428362,6.0541939773892075,-2.649031692618195
10.169555619954846,2.9161641478651124,6.027703660463025,-2.6343933574656826
10.198717261433497,3.013324458771696,6.001359726888369,-2.628723614012493
10.228850506021214,3.1109894946394294,5.975072490748244,-2.6323850142995484
10.259960400967609,3.209674588260026,5.948748640605248,-2.645759108913075
10.29205714685021,3.3099645875860033,5.922291049516117,-2.6692689025555136
10.32515679272607,3.412517421655314,5.8955983604905615,-2.703401255535067
10.359281966942623,3.518071514229204,5.8685643479352105,-2.748730136359095
10.394462682084916,3.627457286498635,5.84107704657162,-2.805941748603964
10.430737254949902,3.7416131388058322,5.81301762908558,-2.8758626695159792
10.46815338633796,3.8616064633388127,5.784259002390421,-2.9594922454424384
10.506769450971348,3.9886603863227172,5.7546640799359965,-3.058040560925785
10.546656054834575,4.124187010462278,5.724083674326739,-3.1729732551512555
10.587897924939197,4.269827801503887,5.6923539417752265,-3.306064123773019
10.630596202954235,4.427501173771833,5.659293300537496,-3.459455438615862
10.674871214691954,4.599455730043092,5.624698746151338,-3.6357234584825924
10.720865771992385,4.788323868214478,5.588341511566512,-3.837941079559083
10.76874901067453,4.997162260171493,5.54996210077092,-4.0697176954033045
10.818720633276245,5.229448344872207,5.509264923816887,-4.3351714756583535
10.871015116724967,5.488966216254579,5.465913209060304,-4.638738404122274
10.925904778887514,5.7794439467618695,5.419525825019081,-4.984621374943647
10.983699218355133,6.103669714762016,5.369679611269644,-5.375492488833075
11.044735915502752,6.46158827587771,5.315924686381313,-5.809743682272311
11.10935179826153,6.8466074601954485,5.2578272495585905,-6.276199707259863
11.177817872863484,7.239419380300622,5.195065252485992,-6.745319499837398
11.25021206666649,7.6004379170231875,5.127612057487617,-7.158459788301489
11.326216445836723,7.867876012658882,5.056027459604603,-7.425150980613801
11.404895205963312,7.976187864417191,4.981775949798465,-7.4492281987582745
11.484657084607484,7.898696570729048,4.907283667810882,-7.189293688548305
11.563644050314775,7.67546878535645,4.835390730925399,-6.698605414388549
11.640398738168338,7.38469265040991,4.768404676781513,-6.085265649162408
11.714245664672438,7.092554673464203,4.707552020289889,-5.441612432913681
11.78517121140708,6.834221821783887,4.653135895960752,-4.816972437963495
11.85351342962492,6.621566883139489,4.6049661715811165,-4.228069394345651
11.919729098456315,6.454848113801379,4.56268547763766,-3.6752325196365834
11.984277579594329,6.329928052207632,4.5259331524412945,-3.1525194435206023
12.047576860116404,6.241589135812306,4.4944079580060885,-2.652444709270211
12.109992751474527,6.184791781467383,4.467883510913387,-2.1678540148159255
12.171840669289201,6.155031534763175,4.446204970765227,-1.69254751030752
12.233390984636832,6.148343390751534,4.4292794956621515,-1.2214147362868089
12.294874418544348,6.161185920722072,4.417065348299284,-0.7504048790797759
12.356486277751568,6.1902980660856795,4.409561299508486,-0.2764595273129607
12.418389258412425,6.232563787232388,4.406796704235356,0.2025478178932062
12.480714896284749,6.2848972391633025,4.408822182414288,0.6878553181783078
12.543563868676381,6.344153011617885,4.415700735596071,1.179843006980691
12.60700539879256,6.40706337010219,4.427499165665878,1.678058329744391
12.671076032493582,6.470203612733502,4.444279748963322,2.181247003231923
12.735778068620917,6.5299860341802995,4.466092218995642,2.6873983876142624
12.80107792896272,6.582681965071889,4.492966202871784,3.1938123619263195
12.866904748613438,6.62446985369221,4.524904326491048,3.6971914796511034
12.93314944715036,6.651505611786574,4.561876241287559,4.1937584309820375
12.999664503268225,6.660009867218966,4.603813825597379,4.679395191511062
13.066264601940414,6.646365782515783,4.650607777512489,5.1497974053636355
13.132728259765573,6.607220992671166,4.702105751566125,5.6006361125113475
13.198800469692284,6.539587990600629,4.758112112691239,6.027719110112729
13.26419634959829,6.4409386266504995,4.818389303792366,6.4271457808211485
13.328605735864794,6.309289737748362,4.882660761600578,6.795451433909658
13.391698633242278,6.143277691547718,4.950615275939675,7.129739176018577
13.453131410157756,5.942219430652765,5.02191266769986,7.427798251654632
13.512553604464284,5.706156433073761,5.096190650216407,7.688207281771724
13.569615168795021,5.435876327179094,5.1730727230341245,7.91041909431711
13.623973932066813,5.132905530080144,5.252176913977295,8.094821672285274
13.675302987367614,4.799466136627009,5.3331251307001475,8.242768268901536
13.723297648733883,4.438392048322263,5.415552813389163,8.356570028273643
13.767681569217105,4.0530031148927845,5.4991185136719,8.439447102034757
13.808211600366032,3.6469412704495783,5.5835129846922475,8.495439105676239
