th1 (rad),w1 (rad/s),th2 (rad),w2 (rad/s),a1 (rad/s^2),a2 (rad/s^2)
6.240722270219039,-2.109077792906495,5.3076008922899565,2.9559200460054558,-7.989275190986332,16.44499402198133
6.219631492289974,-2.1889705448163586,5.337160092750011,3.120369986225269,-8.565888620691627,17.090783642746217
6.19774178684181,-2.274629431023275,5.368363792612264,3.2912778226527313,-9.157251514805123,17.766094943728742
6.174995492531577,-2.366201946171326,5.4012765708387915,3.4689387720900187,-9.744411675710696,18.44800829059268
6.151333473069864,-2.463646062928433,5.435965958559692,3.6534188549959454,-10.297048085553604,19.09827259355604
6.12669701244058,-2.5666165437839688,5.472500147109651,3.844401580931506,-10.768568730547392,19.656551021028083
6.101030847002741,-2.6743022310894426,5.510944162918966,4.040967091141787,-11.090126521428319,20.03212751113934
6.074287824691846,-2.7852034963037258,5.551353833830383,4.24128836625318,-11.164488590576465,20.095338096854064
6.046435789728809,-2.8968483822094906,5.593766717492915,4.44224174722172,-10.862317506627017,19.67223462427232
6.017467305906714,-3.0054715572757607,5.638189134965133,4.638964093464443,-10.026086474926085,18.549685105752413
5.987412590333957,-3.1057324220250213,5.6845787758997774,4.8244609445219675,-8.489870970153884,16.5023246738877
5.9563552661137065,-3.19063113172656,5.7328233853449975,4.9894841912608445,-6.123619843627518,13.353305887096164
5.924448954796441,-3.251867330162835,5.782718227257606,5.123017250131806,-2.9020272893767576,9.069054363777061
5.891930281494813,-3.2808876030566028,5.833948399758924,5.213707793769577,1.0242676375649236,3.8571610762147905
5.859121405464247,-3.2706449266809536,5.88608547769662,5.252279404531724,5.304235674021312,-1.80060480767158
5.826414956197437,-3.2176025699407407,5.938608271741937,5.234273356455009,9.455675882291079,-7.244899420667917
5.79423893049803,-3.12304581111783,5.990951005306487,5.161824362248329,13.016991849085215,-11.848910634259154
5.7630084723868515,-2.992875892626978,6.04256924892897,5.043335255905737,15.696175591920301,-15.223069924805424
5.733079713460582,-2.8359141367077747,6.093002601488028,4.891104556657683,17.427498122463682,-17.29079110644397
5.704720572093504,-2.661639155483138,6.141913647054604,4.718196645593244,18.32394525453234,-18.220090347486206
5.678104180538673,-2.4783997029378146,6.189095613510537,4.535995742118382,18.583773693554672,-18.2930900038973
5.653320183509295,-2.292561966002268,6.23445557093172,4.353064842079409,18.411615470899854,-17.797116228118817
5.630394563849272,-2.1084458112932696,6.277986219352514,4.175093679798221,17.97685338406609,-16.9681422354127
5.6093101057363395,-1.9286772774526086,6.319737156150496,4.005412257444093,17.402582533776613,-15.976631158794905
5.590023332961813,-1.7546514521148424,6.359791278724937,3.8456459458561443,16.770553212664655,-14.935221752162406
5.572476818440665,-1.586945919988196,6.398247738183498,3.69629372833452,16.131202373327184,-13.913127120969982
5.5566073592407825,-1.425633896254924,6.435210675466843,3.55716245712482,15.513358515883823,-12.949824871018699
5.542351020278233,-1.2705003110960857,6.470782300038091,3.427664208414633,14.931816397307504,-12.065635735047051
5.5296460171672726,-1.1211821471230108,6.505058942122237,3.3070078510641627,14.392666216367436,-11.269103655113511
5.5184341956960425,-0.9772554849593365,6.538129020632879,3.1943168145130274,13.896826179972305,-10.561844991897761
5.508661640846449,-0.8382872231596135,6.570072188778009,3.08869836459405,13.442296595078512,-9.94161027533775
5.500278768614852,-0.7038642572088283,6.600959172423949,2.9892822618406725,13.025559164530241,-9.404158448231243
5.493240126042764,-0.5736086655635259,6.630851995042356,2.89524067735836,12.642425509169184,-8.944370720518815
5.487504039387129,-0.447184410471834,6.65980440181594,2.8057969701531715,12.288539238811092,-8.556889384320476
5.48303219528241,-0.3242990180837231,6.687862371517472,2.720228076309967,11.95966390724441,-8.236465493046232
5.479789205101573,-0.20470237901127897,6.715064652280572,2.6378634213795045,11.651840656637528,-7.9781313762305786
5.47774218131146,-0.08818397244490368,6.741443286494366,2.558082107617199,11.361467836988632,-7.777270097604819
5.476860341587011,0.025430705924982644,6.767024107570538,2.4803094066411506,11.085334848104614,-7.629626232244977
5.477114648646261,0.13628405440602878,6.79182720163695,2.404013144318701,10.820629874846386,-7.531285028187143
5.478477489190322,0.24449035315449263,6.815867333080138,2.3287002940368295,10.5649333572285,-7.478636299639354
5.480922392721867,0.35013968672677764,6.839154336020506,2.253913931040436,10.316204193380404,-7.4683327999804066
5.484423789589135,0.4533017286605817,6.8616934753309105,2.179230603040632,10.07276269555913,-7.497248778992835
5.48895680687574,0.5540293556161731,6.883485781361316,2.104258115250704,9.833272504018828,-7.562441962381664
5.494497100431902,0.6523620806563614,6.904528362513823,2.0286336956268873,9.596722571526739,-7.6611206952196085
5.501020721238466,0.7483293063716288,6.924814699470092,1.9520224886746913,9.362409689293743,-7.790617088659307
5.508504014302182,0.8419534032645661,6.944334924356839,1.8741163177880982,9.129921662933933,-7.948366469000302
5.516923548334828,0.9332526198939055,6.96307608753472,1.7946326530980952,8.899121058816666,-8.131893107043087
5.526256074533767,1.0222438304820722,6.981022414065701,1.7133137220276642,8.670129360708064,-8.338802015841013
5.536478512838587,1.1089451240891528,6.998155551285977,1.6299257018692541,8.443311362555965,-8.566776492890869
5.547567964079479,1.1933782377147124,7.01445480830467,1.5442579369403455,8.219259649681824,-8.813581016084125
5.559501746456626,1.2755708342115306,7.029897387674073,1.4561221267795044,7.998779071095093,-9.077069062106156
5.572257454798741,1.3555586249224816,7.044458608941868,1.365351436158443,7.782871169644718,-9.35519539029343
5.585813041047966,1.4333873366189287,7.058112123303452,1.2717994822555085,7.572718607386789,-9.646032318146514
5.600146914414155,1.5091145226927967,7.070830118126008,1.1753391590740434,7.369669696132876,-9.94778950374223
5.615238059641083,1.5828112196541255,7.082583509716748,1.0758612640366212,7.175223214076317,-10.258836744005517
5.631066171837624,1.6545634517948886,7.0933421223571145,0.973272896596566,6.991013755605627,-10.577729295953276
5.647611806355573,1.7244735893509449,7.10307485132308,0.8674956036370333,6.818797919854536,-10.903235230622686
5.664856542249082,1.7926615685494902,7.11174980735945,0.7584632513308064,6.6604416907652135,-11.234364336043
5.682783157934577,1.8592659854571423,7.119334439872758,0.6461196079703764,6.517909393209623,-11.570398094716952
5.701375817789149,1.9244450793892385,7.1257956359524615,0.5304156270232069,6.393254620473712,-11.910920268887
5.720620268583041,1.9883776255939756,7.1310997922226935,0.41130642433433684,6.288613510586389,-12.255847626089427
5.740504044838981,2.0512637606998396,7.135212856466037,0.28874794807344256,6.206200691878315,-12.605460315418764
5.761016682445979,2.1133257676186226,7.138100335946771,0.1626933449192549,6.148308106241924,-12.960431340588558
5.782149940122165,2.174808848681042,7.139727269395964,0.03308903151336934,6.117306728701279,-13.321854436008016
5.803898028608976,2.235981915968055,7.1400581597110975,-0.10012951284671082,6.115650899045145,-13.691269384928866
5.826257847768656,2.2971384249585065,7.1390568645826304,-0.23704220669599949,6.145884511711582,-14.07068334460116
5.849229232018241,2.3585972700756224,7.13668644251567,-0.3777490401420111,6.210647590924942,-14.462585940359489
5.872815204718997,2.4207037459848717,7.13290895211425,-0.522374899545606,6.312680680901291,-14.869954572175274
5.8970222421788465,2.4838305527938846,7.127685203118794,-0.6710744452673587,6.4548228069297755,-15.296244258276145
5.921860547706785,2.5483787808631826,7.1209744586661206,-0.8240368878501202,6.6399962049734595,-15.745352984756872
5.947344335515417,2.6147787429129172,7.11273408978762,-0.9814904176976889,6.871167102127121,-16.221548271584744
5.973492122944546,2.6834904139341886,7.102919185610642,-1.1437059004135364,7.151265835325905,-16.729332491787794
6.000327027083888,2.755003072287448,7.091482126606507,-1.3109992253314142,7.4830404310251994,-17.27321186929923
6.027877057806763,2.8298334765977,7.0783721343531925,-1.4837313440244064,7.868803822652511,-17.857314784467157
6.05617539257274,2.908521514824225,7.063534820912948,-1.662304491869078,8.310013854291903,-18.48477582716714
6.085260607720983,2.991621653367144,7.046911775994257,-1.8471522501407494,8.806594021769898,-19.156758653677773
6.115176824254654,3.079687593584843,7.02844025349285,-2.038719836677527,9.35585789471469,-19.87092804857358
6.145973700190503,3.17324617253199,7.008053055126075,-2.237429117163263,9.950838350859042,-20.61909549353087
6.177706161915823,3.27275455604058,6.985678763954442,-2.4436200720985717,10.577745459514516,-21.383654861245507
6.210433707476229,3.3785320106357255,6.961242563233457,-2.657456620711027,11.212199035013054,-22.132316519771834
6.244219027582586,3.490654000985856,6.934667997026346,-2.878779785908745,11.813853111465555,-22.810608525796038
6.279125567592445,3.6087925321005114,6.9058801991672585,-3.106885871166705,12.319175663810046,-23.331818836513186
6.31521349291345,3.731984288738612,6.874811340455591,-3.340204059531837,12.632737904159349,-23.564880881531952
6.352533335800835,3.8583116677802054,6.841409299860272,-3.5758528683471567,12.618885952487112,-23.322832436773236
6.391116452478637,3.9845005273050766,6.805650771176801,-3.809081192714889,12.098733651936655,-22.35877293943044
6.430961457751688,4.105487863824443,6.767559959249652,-4.032668922109194,10.862154987474328,-20.382881333298815
6.472016336389933,4.214109413699187,6.7272332700285595,-4.236497735442182,8.708637084571166,-17.1198986128681
6.514157430526924,4.301195784544898,6.684868292674138,-4.407696721570863,5.527020099218008,-12.421048858487746
6.557169388372373,4.356465985537079,6.640791325458429,-4.53190721015574,1.4005075835445515,-6.411129061860345
6.600734048227745,4.370471061372524,6.5954722533568715,-4.596018500774344,-3.320569771168167,0.4101184052249633
6.64443875884147,4.337265363660842,6.549512068349128,-4.591917316722094,-8.061127785991635,7.228646311850229
6.687811412478078,4.256654085800926,6.5035928951819075,-4.5196308536035925,-12.204873584730395,13.174842472577499
6.730377953336087,4.134605349953621,6.458396586645872,-4.387882428877817,-15.320457478888452,17.641385582996914
6.7717240068356235,3.9814007751647367,6.414517762357094,-4.211468573047848,-17.278598920024887,20.44719152756044
6.811538014587271,3.8086147859644877,6.3724030766266155,-4.006996657772244,-18.207428841281672,21.77385890696055
6.849624162446916,3.626540497551671,6.332333110048893,-3.7892580687026385,-18.36244791636765,21.982411673164048
6.885889567422432,3.4429160183879945,6.294440529361866,-3.569433951970998,-18.010440160791486,21.449959035499063
6.920318727606312,3.2628116167800796,6.258746189842157,-3.3549343616160074,-17.368793933617034,20.484351015165384
6.952946843774113,3.0891236774439093,6.225196846225996,-3.1500908514643537,-16.59098413899877,19.30371907626824
6.983838080548551,2.9232138360539217,6.193695937711353,-2.9570536607016713,-15.775126995404534,18.048432842504806
7.013070218909091,2.765462566099876,6.164125401104336,-2.7765693322766234,-14.978920144559025,16.802036667048487
7.040724844570089,2.615673364654286,6.13635970778157,-2.6085489656061385,-14.233263459375554,15.610350680997742
7.066881578216632,2.4733407300605306,6.110274218125508,-2.452445458796161,-13.552388877850555,14.495686068166446
7.0916149855172375,2.337816841282025,6.085749763537547,-2.307488598114497,-12.940675041111467,13.4664170757256
7.114993153930057,2.2084100908709106,6.062674877556402,-2.1728244273572406,-12.396971026085362,12.523062189904612
7.137077254838767,2.084440380610057,6.04094663328283,-2.0475938054581944,-11.917234406920109,11.662001041784196
7.1579216586448675,1.965268036540856,6.020470695228248,-1.9309737950403525,-11.496091369934637,10.877677586320775
7.177574339010276,1.8503071228415096,6.001160957277844,-1.8221970191771448,-11.127730757031665,10.163866249311805
7.196077410238691,1.739029815271193,5.982938987086072,-1.7205583566840268,-10.806396114932532,9.514371043687902
7.213467708391403,1.6309658541218677,5.965733403519232,-1.6254146462471477,-10.526639797366958,8.923387741102912
7.2297773669326215,1.525699456148198,5.949479257056761,-1.5361807688361186,-10.283439054072822,8.385669482632604
7.2450343614941035,1.4228650656074697,5.9341174493684,-1.4523240740097927,-10.072234157182624,7.896580386076437
7.259263012150178,1.3221427240356434,5.919594208628302,-1.3733582701490283,-9.888924229864058,7.452087550291154
7.272484439390535,1.2232534817370029,5.905860625926812,-1.298837394646117,-9.729841689460459,7.048721171688747
7.284716974207905,1.1259550648423984,5.892872251980351,-1.2283501829292294,-9.591717358730977,6.683520047676096
7.295976524856329,1.0300378912550887,5.880588750151059,-1.1615149824524684,-9.471643014746403,6.3539723038256195
7.30627690376888,0.9353214611076247,5.868973600326535,-1.0979752594142123,-9.367035017950876,6.057956763744341
7.315630118379956,0.841651110928116,5.857993847732392,-1.0373956917767688,-9.275600834047964,5.793687780472606
7.324046629489238,0.7488951025876363,5.847619890814625,-0.9794588139720428,-9.195309209132462,5.559664839017442
7.331535580515114,0.6569420104963116,5.837825302674904,-0.9238621655818684,-9.124364170364256,5.3546273827716755
7.338105000620077,0.5656983687926691,5.828586681019085,-0.8703158917541517,-9.06118271142925,5.177514847709935
7.343761984308004,0.4750865416783766,5.819883522101543,-0.8185407432770524,-9.004375870151263,5.027431648184553
7.348512849724788,0.385042782976864,5.811698114668773,-0.7682664267952068,-8.952732846398685,4.903616751214959
7.352363277554557,0.29551545451287714,5.804015450400821,-0.7192302592830573,-8.905207800820914,4.805417445145725
7.355318432099685,0.206463376504668,5.796823147807991,-0.6711760848316001,-8.860908994538246,4.732266919446672
7.357383065864732,0.11785428655928555,5.7901113869596745,-0.6238534156371334,-8.819089962367837,4.683665305278088
7.358561608730325,0.029663386935607175,5.783872852803303,-0.5770167625843525,-8.779142449291491,4.659163869718319
7.3588582425996805,-0.058128037557307735,5.778102685177459,-0.5304251238871693,-8.740590877164443,4.658352103761694
7.3582769622241075,-0.14553394632895217,5.772798433938587,-0.4838416028495524,-8.703088143884239,4.680847491824688
7.356821622760818,-0.23256482776779458,5.767960017910092,-0.43703312793130555,-8.666412589501869,4.726287796747685
7.35449597448314,-0.3192289536628133,5.7635896866307785,-0.3897702499638287,-8.630465993000486,4.7943257383107065
7.3513036849465125,-0.40553361359281814,5.75969198413114,-0.34182699258072163,-8.595272490116814,4.884625984772367
7.347248348810584,-0.49148633849398626,5.756273714205333,-0.29298073273299796,-8.560978327351238,4.996864415826918
7.342333485425645,-0.5770961217674987,5.753343906878003,-0.24301208857472878,-8.527852391077735,5.130729651707902
7.336562524207969,-0.6623746456782761,5.750913785992256,-0.19170479205764976,-8.496287474372664,5.285926877049394
7.329938777751186,-0.7473375204220027,5.748996738071679,-0.13884552328715583,-8.46680226878976,5.462184019667342
7.322465402546967,-0.8320055431099004,5.747608282838808,-0.08422368309048239,-8.440044094730421,5.659260373774123
7.3141453471158675,-0.9164059840572046,5.746766046007903,-0.02763107935274116,-8.416792413098463,5.876957784418283
7.304981287275296,-1.0005739081881893,5.746489735214376,0.031138498491441673,-8.397963193210844,6.115134535250085
7.294975548193414,-1.0845535401202977,5.74680112019929,0.09228984384394254,-8.384614247798384,6.373722105054351
7.284130012792211,-1.1683996825982814,5.747724018637729,0.15602706489448603,-8.377951685277695,6.652744979625768
7.272446015966228,-1.2521791994510583,5.749284289286674,0.22255451469074372,-8.379337671554442,6.952343723745142
7.259924223971717,-1.3359725761666026,5.751509834433581,0.29207795192819513,-8.390299736677981,7.2728015315467385
7.246564498210051,-1.4198755735333823,5.754430613952863,0.36480596724366254,-8.412541902425843,7.614574479040476
7.232365742474717,-1.5040009925576407,5.7580786736253,0.4409517120340673,-8.447957939700045,7.978325693640192
7.21732573254914,-1.588480571954641,5.762488190745641,0.5207349689704692,-8.498647080103822,8.364963621053832
7.201440926829594,-1.6734670427556793,5.767695540435345,0.6043846051810076,-8.566932489026243,8.775684490638701
7.184706256402038,-1.7591363676459417,5.773739386487155,0.6921414500873946,-8.655382733500517,9.212018924209424
7.167114892725579,-1.8456901949809468,5.780660800988029,0.7842616393294888,-8.76683630771128,9.675882347358147
7.148657990775769,-1.9333585580580597,5.788503417381324,0.8810204628030702,-8.904428949263592,10.169628360144602
7.129324405195188,-2.0224028475506954,5.797313622009354,0.9827167464045162,-9.07162288899896,10.696103365216612
7.109100376719681,-2.113119076440685,5.807140789473399,1.0896777800566824,-9.272236163611499,11.258699309093718
7.0879691859552745,-2.2058414380768,5.818037567273966,1.2022647731476195,-9.51046842183931,11.86139900014035
7.065910771574506,-2.3009461222951932,5.830060215005442,1.320878763149023,-9.790916850025033,12.508804533915981
7.042901310351554,-2.3988552907954435,5.843269002636933,1.445966808488183,-10.11857125259366,13.20613293173509
7.0189127574436,-2.50004100332138,5.857728670721815,1.5780281378055339,-10.498769856937633,13.959152653252184
6.993912347410386,-2.6050287018907565,5.87350895209987,1.7176196643380557,-10.937085327311298,14.774017737315704
6.967862060391478,-2.7143995551638693,5.890685148743251,1.8653598417112127,-11.439091011317783,15.656929096801344
6.940718064839839,-2.8287904652770473,5.909338747160363,2.0219291326792264,-12.009926325149284,16.613508952286853
6.912430160187069,-2.94888972852854,5.929558038487155,2.1880642222020947,-12.653530988645516,17.647705552950114
6.882941262901783,-3.0754250384149953,5.951438680709176,2.364541277731596,-13.371341516373416,18.759938571677246
6.852187012517633,-3.2091384535787295,5.975084093486491,2.5521406634483683,-14.160128881432913,19.9440354068169
6.820095627981845,-3.3507397423930585,6.000605500120975,2.7515810175165374,-15.008494603998013,21.182282577432918
6.786588230557915,-3.5008246884330387,6.02812131029614,2.9634038432908665,-15.891340814633397,22.437634681065024
6.751579983673585,-3.659738096579373,6.057755348729049,3.187780190101517,-16.761449682032207,23.64187278407775
6.714982602707791,-3.827352593399695,6.089633150630065,3.4241989179422943,-17.53735516041971,24.678574748640155
6.676709076773794,-4.0027261450038925,6.1238751398094875,3.670984665428696,-18.08749495600388,25.360896777056126
6.6366818153237555,-4.183601094563931,6.160584986463775,3.9245936331992572,-18.213302322504294,25.40792840850283
6.594845804378116,-4.365734117788974,6.199830922795767,4.178672917284286,-17.64016415871703,24.43220244063864
6.551188463200226,-4.542135759376144,6.24161765196861,4.422994941690672,-16.036050837067886,21.96624420398153
6.5057671056064645,-4.702496267746823,6.285847601385517,4.642657383730487,-13.088312443090446,17.57106747263257
6.458742142928997,-4.8333793921777275,6.332274175222822,4.818368058456813,-8.659889020539067,11.056468880707506
6.410408349007219,-4.919978282383118,6.38045785580739,4.928932747263889,-2.98490563125413,2.7566773994587375
6.361208566183388,-4.949827338695659,6.429747183280029,4.956499521258476,3.2413611854235915,-6.342856682126891
6.311710292796431,-4.917413726841423,6.479312178492614,4.893070954437207,9.043594135401682,-14.860443763553002
6.262536155528017,-4.826977785487406,6.528242888036986,4.744466516801677,13.57716744333852,-21.596607013822652
6.214266377673143,-4.691206111054021,6.575687553205003,4.52850044666345,16.464925588495216,-26.00894282920779
