th1 (rad),w1 (rad/s),th2 (rad),w2 (rad/s)
3.1008483992586107,1.0878799802466201,5.496431569528245,0.08869735274660201
3.111727199061077,1.1133009213953928,5.497318543055711,0.1687244506069518
3.122860208275031,1.1395474947214304,5.499005787561781,0.24864722410893553
3.1342556832222455,1.1666925824912378,5.50149225980287,0.32843551603865995
3.1459226090471577,1.1948103751251198,5.504776614963256,0.40805728869107233
3.1578707127984087,1.2239759094004365,5.508857187850166,0.48747806534545823
3.170110471892413,1.2542646212151045,5.513731968503621,0.5666603931896121
3.182653118104564,1.2857519068312708,5.5193985724355175,0.6455633201007315
3.1955106371728768,1.3185126870390402,5.5258542056365245,0.724141878389699
3.208695764043267,1.3526209691909659,5.5330956244204215,0.8023465693299174
3.2222219737351767,1.3881494025600412,5.541119090113721,0.8801228430219437
3.236103467760777,1.425168822970958,5.549920318543941,0.9574105688940717
3.2503551559904866,1.4637477831528605,5.559494424232882,1.0341434929124755
3.264992633822015,1.5039520657701901,5.569835859162007,1.1102486783799996
3.2800321544797173,1.5458441766164088,5.580938345945807,1.1856459280487126
3.2954905962458816,1.5894828160144108,5.592794805226294,1.2602471861670352
3.311385424406026,1.6349223270690558,5.605397277087964,1.3339559200369417
3.3277346476767167,1.6822121200736944,5.618736836288334,1.4066664816796377
3.3445567688774536,1.7313960730963147,5.63280350110513,1.4782634513081476
3.361870729608417,1.7825119095746618,5.647586135618211,1.5486209654908136
3.3796958487041637,1.8355905546459579,5.663072345273119,1.6176020341686352
3.3980517542506234,1.8906554729383194,5.679248365614805,1.685057852068779
3.4169583089800066,1.947721991670123,5.6960989441354934,1.7508271115428278
3.4364355288967077,2.0067966141529747,5.713607215250922,1.8147353254569278
3.4565034950382376,2.0678763301861496,5.731754568505491,1.8765941704764062
3.477182258340099,2.1309479313780795,5.750520510210255,1.9362008629228427
3.4984917376538798,2.195987341146479,5.769882518839483,1.99333758133817
3.5204516110653445,2.262958971045692,5.789815894652865,2.04777095196641
3.5430812007758012,2.3318151171600365,5.810293604172529,2.099251615552712
3.5663993519474015,2.4024954125960396,5.8312861203280555,2.1475138961477978
3.590424306073362,2.474926354612202,5.852761259289533,2.192275594969054
3.615173569619484,2.549020927644441,5.8746840152392235,2.2332379347663007
3.640663778895928,2.624678346411438,5.8970163945868865,2.2700856825060702
3.6669105623600426,2.7017839463950115,5.919717251411948,2.3024874804257283
3.693928401823993,2.7802092522432167,5.942742126216205,2.3300964174764482
3.721730494346425,2.8598122579649883,5.966043090390969,2.352550874673211
3.7503286169260748,2.9404379560617153,5.9895685991377015,2.3694756786304385
3.779732996486692,3.0219191558093454,6.013263355924006,2.380483597227797
3.8099521880447855,3.1040776335395854,6.037068191896284,2.3851772094693477
3.8409929643801815,3.1867256596765623,6.060919963990978,2.3831511776145864
3.872860220976947,3.2696679481000506,6.084751475767124,2.3739949429165685
3.9055569004579476,3.352704072695991,6.10849142519629,2.3572958560636375
3.9390839411849075,3.435631393239829,6.132064383756926,2.3326427389075115
3.9734402551173056,3.5182485275470516,6.155390811146002,2.299629854512252
4.008622740392776,3.600359398673097,6.1783871096911245,2.2578612373279983
4.044626334379507,3.681777874534394,6.200965722064405,2.2069553039637224
4.081444113124851,3.762333002570291,6.223035275104042,2.1465496275611193
4.119067443150554,3.841874824247463,6.244500771379653,2.076305715637646
4.157486191393028,3.920280734092291,6.265263828536029,1.99591358361204
4.196688998733951,3.9974623269085954,6.285222964372149,1.9050958659423798
4.236663622003037,4.073372656994595,6.304273923031573,1.8036111565395716
4.277397348572983,4.14801381735383,6.322310034596969,1.6912562231357693
4.318877486746521,4.22144473862919,6.339222596828327,1.5678667001790385
4.361091934132813,4.293789110836631,6.354901263830117,1.4333158350182442
4.404029825241179,4.365243350259752,6.369234422180299,1.2875108452260542
4.447682258743776,4.4360845733274115,6.38210953063256,1.1303864418408804
4.49204310447705,4.506678602705972,6.393413395050969,0.9618950825891438
4.53710989050411,4.577488121160132,6.40303234587686,0.7819935361037875
4.582884771715711,4.649081207911308,6.410852281237898,0.590625354510135
4.629375583794824,4.722140641127836,6.416758534783,0.38769885568015383
4.676596990206102,4.797474528751341,6.420635523339802,0.17306019331001327
4.724571735493615,4.876029037183781,6.422366125272902,-0.05353897304025798
4.773332025865453,4.958904221253103,6.421830735542499,-0.2924798184882864
4.822921068077984,5.047374213950156,6.418905937357616,-0.5443214999295325
4.873394810217485,5.142913296467325,6.413462722358321,-0.809854141412361
4.924823943182159,5.247229601427235,6.405364180944197,-1.090160922952659
4.9772962391964315,5.362308315183019,6.39446257171467,-1.386690631538518
5.030919322348262,5.490466029181291,6.380595665399285,-1.7013416693026049
5.085823982640075,5.634416872124501,6.363582248706258,-2.036556992182597
5.14216815136132,5.797348186343362,6.343216678784432,-2.3954252529844213
5.200141633224753,5.982996504729645,6.319262426254588,-2.781773269663759
5.25997159827205,6.195698488777773,6.291444693557951,-3.2002118075357004
5.321928583159828,6.440355746401226,6.259442575482594,-3.656045651179233
5.38633214062384,6.722175200031143,6.2228821189708015,-4.154849311294834
5.453553892624152,7.045885725527561,6.181333625857853,-4.701282342282308
5.524012749879428,7.41381967800784,6.13432080243503,-5.296279143497374
5.598150946659506,7.821739881055064,6.081358011000057,-5.931037004086151
5.676368345470056,8.250866325621947,6.022047640959195,-6.575641051440641
5.758877008726276,8.655866481414002,5.956291230444788,-7.162050603010403
5.845435673540416,8.95627820210109,5.884670724414684,-7.572111136188045
5.934998455561426,9.055141798499001,5.808949613052803,-7.6643340620332046
6.025549873546416,8.903897712551831,5.732306272432472,-7.366456322503614
6.114588850671935,8.557440466857363,5.658641709207435,-6.754327982303972
6.200163255340509,8.131150720483065,5.591098429384395,-5.991842671501044
6.281474762545339,7.7162718250452205,5.531180002669385,-5.210779777265005
6.3586374807957915,7.353971362772843,5.479072204896735,-4.4728351979591086
6.43217719442352,7.053061944311627,5.434343852917143,-3.7937558336795614
6.502707813866636,6.808924541764019,5.3964062945803475,-3.1698403814432186
6.570797059284277,6.613172451079417,5.364707890765915,-2.591701482551719
6.636928783795071,6.457331759752922,5.338790875940398,-2.049662569274523
6.7015021013926,6.333919233305972,5.318294250247653,-1.535466816278697
6.7648412937256595,6.236571447626566,5.302939582084866,-1.0426104312714524
6.827207008201925,6.159883784381595,5.292513477772151,-0.5662294677345948
6.888805846045741,6.0991964581888976,5.2868511830948055,-0.1028778839000632
6.949797810627629,6.050404410105125,5.285822404255805,0.3496929905391767
7.010301854728681,6.009810420004129,5.289319334161197,0.7927260830714099
7.070399958928722,5.974021541637759,5.297246594991911,1.2266215989510498
7.1301401743451,5.93988331532787,5.309512810981421,1.6510792426839114
7.189539007498379,5.904445062471787,5.32602360340826,2.0652276846182427
7.248583458123097,5.864949683218745,5.346675880254443,2.4677471508763418
7.307232954955285,5.818841736724226,5.371353351763206,2.8569883141679915
7.365421372322527,5.763787963591363,5.399923234904886,3.2310881927777726
7.423059251958441,5.69770485658395,5.432234116832664,3.5880818734943807
7.48003630052428,5.618788482224749,5.468114935567607,3.926007713693167
7.536224185346528,5.525542535671557,5.507375012704539,4.243003261632232
7.591479610703244,5.41680153299074,5.549805045320862,4.537389354778926
7.645647626033152,5.291747008691259,5.595178938868651,4.807740513253934
7.698565096120064,5.14991547166209,5.64325634400119,5.052940595397888
7.750064250836685,4.991197581400689,5.693785749955169,5.2722234982530365
7.799976226650692,4.815828494859141,5.7465079849377,5.465199310460218
7.848134511599284,4.624369623426498,5.8011599780423015,5.631866699800351
7.894378207833549,4.417682202755579,5.857478645040305,5.772612478057782
7.938555029861105,4.196893211287648,5.915204769820883,5.888199331484608
7.980523961973981,3.9633543601082524,5.974086763135729,5.979742753574677
8.020157505575064,3.71859516001892,6.0338841906714755,6.048678359687385
8.057343457175254,3.46427144001161,6.094370974268349,6.096721035949807
8.09198617157537,3.2021110839283726,6.155338184627848,6.125817749465671
8.124007282414652,2.933859079348581,6.216596362122504,6.138096244230041
8.153345873208139,2.6612241447482976,6.277977324564805,6.135812165930325
8.179958114655621,2.385829154785474,6.3393354462241085,6.121297307771117
8.203816406203476,2.1091673009865257,6.40054841930182,6.096911593910851
8.22490807921334,1.8325654364882404,6.461517535240928,6.0650011120306555
8.243233733578224,1.5571554280180864,6.522167546361234,6.027864014364505
8.258805287858404,1.2838536654834023,6.582446186504879,5.987725502333527
8.271643824513239,1.0133482484864975,6.642323441528214,5.946722480648043
8.281777306998103,0.7460928517684879,6.701790666334695,5.906897890395931
8.289238235515787,0.4823059140644221,6.7608596452386545,5.8702042607989435
8.294061294656432,0.22197361743381017,6.819561687846644,5.83851567628112
8.29628103083077,-0.035144870535792294,6.877946844609455,5.8136471227645945
8.295929582125412,-0.2895112319928314,6.9360833158371005,5.7973799994075765
8.293034469805484,-0.5418018677073513,6.994057115831176,5.79149235919548
8.287616451128411,-0.7929021181380167,7.0519720394231316,5.79779201161805
8.27968742994703,-1.0439001295056098,7.109949959539312,5.818149720488517
8.269248428651974,-1.2960779736309787,7.168131456744198,5.854527923612497
8.256287648915665,-1.5508947900945418,7.226676735980323,5.908996950520102
8.240778701014719,-1.8099518536507173,7.285766705485524,5.983724373522485
8.222679182478212,-2.074921140205275,7.345603949220749,6.080911852396746
8.201929971076158,-2.3474049870732845,7.406413067744716,6.202634514158191
8.178455921205424,-2.6286720859337778,7.4684394128862985,6.350506606129582
8.152169200346087,-2.919182771242872,7.531944478947595,6.525051468798213
8.122977372633658,-3.217780513244595,7.5971949936355765,6.724601906014732
8.090799567501211,-3.52041865265169,7.664441012695724,6.943542727295067
8.055595380974694,-3.8184074491694275,7.733876439968674,7.169863675787708
8.017411306483,-4.096605355281415,7.8055750767265515,7.3825965322709255
7.976445252930186,-4.3329404331807515,7.879401042049261,7.551048921066363
7.933115848598379,-4.501731972838145,7.954911531259924,7.639268798154681
7.888098528869998,-4.582467901570096,8.031304219241472,7.618067608405884
7.842273849854297,-4.5706311575930725,8.10748489532553,7.479919618268831
7.796567538278366,-4.481684802716737,8.182284091508219,7.244458033081051
7.751750690251199,-4.343505504218818,8.254728671839029,6.948098676342973
7.7083156352090105,-4.184079680638145,8.32420965860246,6.627240884027237
7.666474838402629,-4.0238814412819774,8.390482067442731,6.307981161237562
7.62623602398981,-3.87482527487793,8.453561879055107,6.004831357175721
7.5874877712410305,-3.742479357401368,8.513610192626864,5.723823697567626
7.550062977667017,-3.6286217735063673,8.57084842960254,5.466010238555067
7.513776759931954,-3.533079694592489,8.62550853198809,5.229941393553594
7.478445962986029,-3.4548207858220934,8.677807945923627,5.013110208531132
7.443897755127808,-3.3925343296561135,8.727939048008938,4.812701588252636
7.409972411831247,-3.3449159249050227,8.776066063891465,4.625943785216966
7.376523252582197,-3.310793628819282,8.822325501743634,4.450251175353564
7.343415316294004,-3.289173703308107,8.86682801349717,4.283264302077069
7.310523579260923,-3.2792475022346563,8.909660656517941,4.122843009970051
7.277731104238576,-3.2803806495313106,8.950889086617641,3.967041021537503
7.2449272977432635,-3.2920947993446434,8.990559496833017,3.814076024197125
7.212006349749817,-3.314046596787887,9.028700257074988,3.6623021798408173
7.178865883781938,-3.346005506032294,9.065323278873397,3.5101885504484227
7.145405828721615,-3.387830620389881,9.100425164377882,3.35630544143061
7.111527522517716,-3.4394457324412575,9.133988218792188,3.1993201515454035
7.077133065193303,-3.500811481743602,9.165981420307642,3.038003577577613
7.042124950375867,-3.5718931639937868,9.196361456083418,2.871249257854056
7.006406018735929,-3.652622741744888,9.225073948661958,2.6981065409304006
6.969879791318481,-3.74285377972042,9.252055014071262,2.517829440670483
6.932451253521276,-3.842308526261701,9.277233308477967,2.3299421747591573
6.894028168258659,-3.95051729592797,9.300532730225559,2.1343211463658496
6.854522995299379,-4.066751792530613,9.321875941689218,1.9312909931621336
6.813855477374073,-4.189956101114584,9.341188851620839,1.7217291560006143
6.771955916362927,-4.318681679446628,9.358406143180845,1.5071692886019428
6.728769099568461,-4.451035458257274,9.373477836066865,1.2898891934900794
6.684258744985888,-4.584652465712559,9.386376728001766,1.0729647917444138
6.638412220328762,-4.716705293920728,9.39710637591921,0.8602693836764588
6.5912451673895545,-4.843961215534702,9.405709069755973,0.6563988380587449
6.5428055552342075,-4.962893153399862,9.412273058136561,0.46650970153601057
6.493176623700209,-5.0698431374224135,9.416938155151922,0.29606873317966254
6.442478192325985,-5.161227617156038,9.419898842483718,0.15052744876613725
6.390865916154424,-5.233765285286535,9.42140411697138,0.03495057221195941
6.3385282633015585,-5.284702399383102,9.4217536226935,-0.04636127144032674
6.285681239307728,-5.312009653047144,9.421290009979096,-0.09021001901921981
6.232561142777256,-5.3145285491100545,9.420387909788904,-0.0947591773574994
6.1794158572861555,-5.292052514176556,9.41944031801533,-0.05968357405541883
6.12649533214439,-5.245336482057931,9.418843482274776,0.013805384003385178
6.074041967323811,-5.176036536170866,9.41898153611481,0.12305900780072951
6.022281601962102,-5.086587612420068,9.420212126192817,0.2642016081591832
5.971415725837901,-4.980032276773657,9.422854142274408,0.4324270906570278
5.921615403070165,-4.8598174832089995,9.427178413180979,0.6223491082532353
5.873017228238075,-4.729578877430685,9.433401904263512,0.8283675896688611
5.825721439463768,-4.592933022075303,9.4416855801602,1.0450145619749225
5.779792109243015,-4.453296175669369,9.45213572577995,1.267247347864185
5.735259147486321,-4.313743783209794,9.464808199258592,1.4906669194736768
5.692121709654223,-4.176918329555964,9.479714868453328,1.711651597281325
5.650352526358663,-4.044986082298356,9.496831384426141,1.927408726026558
5.60990266553568,-3.9196370849133757,9.516105471686407,2.1359568869366568
5.570706294686546,-3.802118694633818,9.537465040555773,2.336057048487846
5.532685107740208,-3.693291373898683,9.560825611040652,2.5271125845652005
5.495752194001221,-3.5936960088326355,9.586096736886304,2.7090561719677675
5.459815233912894,-3.503623997679537,9.613187298605983,2.8822376317054763
5.424778993936099,-3.4231839106349207,9.642009674923038,3.04732218916823
5.39054715482975,-3.3523610244938062,9.67248289681472,3.20520441056368
5.357023544584812,-3.2910680981205074,9.704534940920357,3.3569397664587988
5.324112863603607,-3.239187235693567,9.738104338584945,3.503693518964288
5.291720991246671,-3.196603605587693,9.773141273774588,3.646705315230188
5.259754955190794,-3.163232246898943,9.80960832692689,3.787267269235539
5.228122632721805,-3.1390393252832154,9.847480999619245,3.9267131783907994
5.196732239468973,-3.12405909820869,9.886748131403154,4.066416630300227
5.165491648486886,-3.1184075819328476,9.927412297706157,4.207795925496892
5.1343075726675576,-3.1222934956995236,9.969490256961127,4.352323816715775
5.1030846377105625,-3.136026453164371,10.013013495128284,4.501539883001639
5.0717243731789186,-3.1600214637277952,10.058028893958301,4.65706270823807
5.040124158541641,-3.1947973780563728,10.104599521040683,4.820597596803624
5.008176184761077,-3.2409645800662887,10.15280549700872,4.993932805165895
4.975766538960414,-3.299193356908674,10.202744825060378,5.178912324859681
4.942774605391327,-3.3701479671118872,10.254533948308975,5.377364732129485
4.909073125720209,-3.454361032361689,10.30830759563027,5.5909535002830495
4.874529515396592,-3.5520068356305106,10.3642171306331,5.820892069841643
4.8390094470402865,-3.662509810596129,10.422426051331517,6.06743587578528
4.802384348934325,-3.783900734964065,10.483100410089369,6.329029744326006
4.764545341584684,-3.9118295600351356,10.546390707532629,6.600982138534943
4.725427045984333,-4.038222493791836,10.612400528917979,6.8736432068676905
4.685044821046414,-4.149860599391353,10.681136960986656,7.130459919741195
4.643546215052501,-4.227804993955481,10.752441560184067,7.347174159077229
4.601268165112946,-4.249429541433482,10.82591330177484,7.494584458838075
4.55877386969861,-4.194662691277314,10.90085914636322,7.547069289240989
4.516827242785837,-4.054977706863066,10.97632983925563,7.49482971103142
4.476277465717207,-3.8389006796377343,11.051278136365944,7.351242926870425
4.437888458920829,-3.568365500442725,11.12479056563465,7.147595583729588
4.402204803916402,-3.2686350725627773,11.196266521471944,6.91912319467483
4.369518453190774,-2.959917422756452,11.265457753418692,6.693618335855296
4.33991927896321,-2.6546616767508873,11.332393936777246,6.487964074707233
4.313372662195701,-2.3588034055177456,11.397273577524318,6.310054653063432
4.289784628140524,-2.0740835100499817,11.460374124054953,6.162092509993951
4.269043793040024,-1.7999636221488915,11.521995049154892,6.0432512604618
4.251044156818535,-1.5348471262139425,11.582427561759511,5.951340793917222
4.235695685556396,-1.2767594400243734,11.641940969698684,5.883710783440817
4.222928091156152,-1.0236941103408372,11.700778077533093,5.83768904077691
4.212691150052744,-0.7737744347962245,11.759154967940862,5.810765307797977
4.2049534057047815,-0.5253204728289026,11.817262621018841,5.800645159936823
4.199700200976492,-0.27687085821425395,11.87526907261821,5.805241705540082
4.1969314923943495,-0.027185234714555223,11.93332148967361,5.82264001478947
4.196659640047204,0.22475974237409693,11.991547889821504,5.851051652141242
4.198907237470945,0.47977470929355925,12.050058406342917,5.888767665551413
4.203704984563881,0.738459634734447,12.10894608299843,5.934113929494393
4.211089580911226,1.0012029059662342,12.168287222293374,5.985410658489321
4.221101609970888,1.2681777828662397,12.228141328878268,6.040937039972946
4.2337833877995505,1.5393371256900248,12.288550699277996,6.098901666732985
4.249176759056451,1.8144076627762624,12.349539715945326,6.1574194517396865
4.267320835684213,2.0928852936235978,12.411113910462722,6.2144957985400175
4.288249688620449,2.374033048463281,12.473258868448122,6.268018867675686
4.311990019105082,2.656883341146781,12.535939057124878,6.3157607520533
4.33855885251655,2.940246036938802,12.599096664645412,6.355388205990372
4.367961312885938,3.222723590327951,12.662650546705315,6.384483242448917
4.400188548789218,3.502734083650905,12.726495379129805,6.400573427895388
4.435215889625726,3.7785424331534,12.790501113408759,6.401171104345832
4.47300131395726,4.048299374057488,12.854512824452216,6.383820126715878
4.513484307697835,4.3100871693823555,12.918351025719375,6.346148119376265
4.556585179391659,4.561970407614652,12.981812506913137,6.285921835666573
4.602204883467805,4.8020498608923345,13.044671725269803,6.201103037145365
4.650225382076728,5.028517241607609,13.106682755641256,6.089902438172649
4.700510554492804,5.239708844171158,13.167581780022982,5.950829659216902
4.752907642934516,5.4341564468500385,13.22709007661515,5.782737695198954
4.807249207403016,5.610634367745544,13.28491745356714,5.584860966936596
4.863355551080471,5.768202066859858,13.340766063236506,5.356846393359355
4.9210375717490695,5.906242005218998,13.3943345271701,5.098776938317071
