th1 (rad),w1 (rad/s),th2 (rad),w2 (rad/s),a1 (rad/s^2),a2 (rad/s^2)
4.085124368748092,2.2789661799567105,5.862957432563316,-1.7873439555209236,9.58872389157317,0.8863851783629734
4.10791403054766,2.3748534188724424,5.845083993008107,-1.778480103737294,9.638968901532616,0.1915951295138141
4.131662564736384,2.4712431078877684,5.8272991919707335,-1.7765641524421558,9.725997064563964,-0.5339404620871597
4.156374995815262,2.568503078533408,5.809533550446312,-1.7819035570630275,9.85275981938369,-1.294103737651605
4.182060026600596,2.667030676727245,5.7917145148756815,-1.7948445944395435,10.02273280868607,-2.0934696916592586
4.2087303333678685,2.7672580048141056,5.773766068931286,-1.8157792913561361,10.240022330401064,-2.9374090457827555
4.2364029134160095,2.869658228118116,5.755608276017725,-1.8451533818139636,10.50948541032692,-3.832210818999802
4.265099495697191,2.9747530822213855,5.737156742199585,-1.8834754900039616,10.836864328305113,-4.785223886287069
4.294847026519405,3.0831217255044367,5.718321987299546,-1.9313277288668322,11.228934495225937,-5.805013683488903
4.325678243774449,3.195411070456696,5.699008710010878,-1.9893778657017214,11.693660689898696,-6.90152419094253
4.3576323544790165,3.312347677355683,5.679114931353861,-2.058393107611147,12.240349242019022,-8.086224130832285
4.390755831252573,3.4347511697758732,5.658531000277749,-2.1392553489194697,12.87976997989526,-9.372195915616176
4.425103342950331,3.563548869574826,5.637138446788555,-2.2329773080756317,13.624196670885153,-10.774089191008407
4.460738831646079,3.6997908362836776,5.614808673707799,-2.340718199985716,14.487269496805508,-12.307795377586423
4.497736740008916,3.8446635312517325,5.591401491707941,-2.4637961537615802,15.48350253190968,-13.989583804703818
4.536183375321434,3.9994985565708294,5.566763530170325,-2.6036919918086183,16.62711710511523,-15.834237039531175
4.576178360887142,4.165769727621981,5.540726610252239,-2.76203436220393,17.929635475103932,-17.851372672020418
4.617836058163362,4.3450660823730205,5.5131062666302,-2.940548088924134,19.39525371171558,-20.038550696434417
4.661286718987092,4.539018619490176,5.483700785740959,-3.140933595888478,21.012348158874506,-22.36882916392106
4.706676905181993,4.749142101078921,5.4522914497820745,-3.3646218875276888,22.738517034763557,-24.76909533088361
4.754168326192782,4.976527271426557,5.418645230906797,-3.612312840836525,24.475530173567783,-27.08407507839512
4.803933598907047,5.2212825731622345,5.382522102498432,-3.8831535916204762,26.030538930946868,-29.020957784546905
4.85614642463867,5.481587962471703,5.343690566582227,-4.173363169465945,27.064273168027693,-30.075881045757303
4.9109623042633865,5.75223069415198,5.301956934887568,-4.474121979923519,27.043532732136885,-29.46716340001145
4.968484611204906,6.022666021473349,5.257215715088333,-4.768793613923633,25.254906072605202,-26.156466862272346
5.02871127141964,6.275215082199401,5.209527778949097,-5.030358282546357,20.992042268921725,-19.117611518895334
5.091463422241634,6.485135504888619,5.159224196123633,-5.22153439773531,14.013898397497977,-7.991543698413408
5.15631477729052,6.625274488863599,5.10700885214628,-5.301449834719444,5.106072829800498,6.110302118522899
5.222567522179156,6.676335217161603,5.0539943537990855,-5.240346813534215,-3.8695252793556096,20.52676418115509
5.289330874350772,6.637639964368047,5.001590885663743,-5.035079171722664,-10.886317779936682,32.33489173709253
5.355707273994453,6.52877678656868,4.951240093946517,-4.711730254351739,-14.918208803058034,40.010417793049186
5.42099504186014,6.379594698538099,4.904122791402999,-4.3116260764212475,-16.1978896072933,43.81443072262914
5.48479098884552,6.217615802465167,4.861006530638787,-3.873481769194956,-15.598742845092746,44.93406377347675
5.5469671468701724,6.061628374014239,4.822271712946837,-3.4241411314601886,-13.991959089765254,44.574127245985096
5.6075834306103145,5.921708783116586,4.788030301632236,-2.9783998590003375,-11.98613143431096,43.5812166562856
5.66680051844148,5.8018474687734765,4.758246303042232,-2.5425876924374817,-9.932674509579135,42.44309671004273
5.724818993129215,5.702520723677685,4.732820426117857,-2.1181567253370543,-8.009514761642997,41.40142176606933
5.781844200365992,5.6224255760612545,4.711638858864486,-1.704142507676361,-6.295950828822209,40.55458994840949
5.838068456126605,5.559466067773032,4.694597433787722,-1.2985966081922662,-4.821021235398283,39.92483253590425
5.893663116804335,5.51125585541905,4.6816114677058,-0.8993482828332237,-3.590717871871419,39.496341137125526
5.948775675358526,5.475348676700335,4.672617984877467,-0.5043848714619683,-2.6021158992321096,39.23543284648618
6.003529162125529,5.4493275177080145,4.667574136162847,-0.11203054299710652,-1.8502078390231325,39.10075899794947
6.0580224373026095,5.4308254393177835,4.666453830732876,0.2789770469823882,-1.3308605449948185,39.048336969789176
6.112330691695787,5.417516833867835,4.6692436012027,0.66946041668028,-1.0417563601570283,39.034034342734486
6.166505860034465,5.407099270266265,4.675938205369503,1.059800760107625,-0.9822947520913524,39.01489383081266
6.2205768527371275,5.397276322745351,4.686536212970579,1.4499496984157516,-1.1529610183726626,38.95001001228409
6.274549615964581,5.385746712561624,4.701035709954737,1.8394497985385925,-1.5544300668655766,38.80130467392736
6.328407083090197,5.3702024118929685,4.719430207940123,2.227462845277866,-2.1865571718622507,38.53434975079801
6.382109107209127,5.348336840174346,4.741704836392902,2.612806342785846,-3.04735419300649,38.11927656838974
6.4355924756108704,5.317863298244281,4.76783289982076,2.9939991084697435,-4.132026818720533,37.531747166871185
6.488771108593313,5.276543030057075,4.797772890905458,3.3693165801384555,-5.432138688713673,36.75392815804623
6.541536538893884,5.222221643169939,4.831466056706843,3.736855861718918,-6.934962617619853,35.77539026662268
6.593758755325584,5.15287201699374,4.868834615324031,4.094609764385145,-8.623073019067439,34.59385247422787
6.645287475495521,5.0666412868030655,4.9097807129678825,4.440548289127423,-10.474225081927097,33.215695331772224
6.695953888363552,4.9618990359837944,4.954186195859156,4.772705242445145,-12.461554746850439,31.656180964264017
6.74557287872339,4.83728348851529,5.001913248283608,5.089267052087785,-14.55411908365097,29.939335424801296
6.793945713608543,4.69174229767878,5.052805918804486,5.388660406335799,-16.717779302538126,28.09747089174044
6.84086313658533,4.524564504653399,5.106692522867844,5.669635115253203,-18.916408264525575,26.170350111422277
6.886108781631864,4.335400422008143,5.163388874020376,5.931338616367426,-21.113381139773438,24.204023429308062
6.929462785851945,4.124266610610409,5.22270226018405,6.173378850660506,-23.2732828234206,22.24939955697582
6.970705451958049,3.891533782376203,5.284436048690655,6.395872846230264,-25.36374136298854,20.360643638310535
7.0096207897818115,3.6378963687463175,5.348394777152958,6.59947928261337,-27.357277092377416,18.593527158066955
7.045999753469275,3.364323597822543,5.414389569979091,6.785414554194039,-29.23304744120563,17.003878946051927
7.0796429894475,3.0719931234104867,5.482243715521032,6.9554533436545585,-30.978371945337425,15.646299250685326
7.110362920681604,2.7622094039571126,5.551798248957578,7.1119163361614115,-32.58994271373676,14.573294452147145
7.137985014721175,2.4363099768197447,5.622917412319192,7.257649280682883,-34.07465997411697,13.834965133382996
7.162348114489372,2.095563377078575,5.695493905126021,7.395998932016713,-35.45007205117512,13.47933326561525
7.183303748260158,1.7410626565668237,5.769453894446189,7.530792264672866,-36.74442923974627,13.553322436844176
7.200714374825827,1.373618364169361,5.844761817092917,7.6663254890413075,-37.99635789088232,14.10429766279159
7.2144505584675205,0.9936547852605377,5.92142507198333,7.8073684656692235,-39.25408656167199,15.181896280879931
7.224387106320126,0.6011139196438178,5.999498756640022,7.959187428478023,-40.57394273588602,16.839559617465046
7.2303982455165645,0.19537449228495757,6.079090630924802,8.127583024652674,-42.017355419305666,19.134530388933122
7.2323519904394145,-0.22479906190809912,6.1603664611713285,8.318928328542006,-43.64458187098279,22.123741926575196
7.230103999820334,-0.661244880617927,6.243555744456748,8.540165747807757,-45.50130035655738,25.8502442352904
7.223491551014154,-1.1162578841835007,6.328957401934826,8.798668190160662,-47.59009962187158,30.309188815723463
7.21232897217232,-1.5921588804022164,6.416944083836432,9.101760078317897,-49.81126613286355,35.37175738333913
7.196407383368298,-2.0902715417308517,6.507961684619611,9.455477652151288,-51.84530590866955,40.628365083108385
7.175504667950989,-2.6087246008175473,6.602516461141123,9.861761302982371,-52.94004741624442,45.09772174088873
7.149417421942814,-3.1381250749799916,6.701134074170946,10.312738520391258,-51.59750068317046,46.789827067755134
7.118036171193014,-3.654100081811696,6.804261459374859,10.78063679106881,-45.35813534538685,42.386211704761564
7.081495170374897,-4.107681435265564,6.912067827285547,11.204498908116426,-31.43391561287643,28.064160708978733
7.040418356022241,-4.422020591394329,7.024112816366712,11.485140515206213,-9.316700180229676,3.0195593553331737
6.996198150108298,-4.515187593196625,7.138964221518774,11.515336108759545,15.919704675085327,-26.058226184717913
6.951046274176331,-4.3559905464457715,7.254117582606369,11.254753846912365,35.619031437789296,-47.74775337559661
6.907486368711874,-3.9998002320678787,7.366665121075493,10.7772763131564,45.251542003471954,-56.314134263676266
6.867488366391195,-3.5472848120331593,7.474437884207057,10.214134970519636,46.83073931255012,-54.74597977139081
6.832015518270864,-3.078977418907658,7.576579233912253,9.666675172805729,44.375502153271604,-48.48256493700384
6.801225744081787,-2.635222397374942,7.67324598564031,9.181849523435691,40.64059238703837,-41.1005393102221
6.774873520108038,-2.2288164735045584,7.765064480874667,8.77084413033347,36.902098874522835,-34.15678280482446
6.752585355372992,-1.85979548475933,7.852772922178001,8.429276302285226,33.60678857234189,-28.121120996323576
6.733987400525399,-1.5237275990359112,7.937065685200854,8.14806509232199,30.84449020007559,-23.020924324640706
6.718750124535039,-1.2152826970351551,8.018546336124073,7.9178558490755835,28.57568546938727,-18.74018320211793
6.706597297564688,-0.9295258423412824,8.09772489461483,7.730454017054404,26.724872925371358,-15.13626796941913
6.697302039141275,-0.6622771130875689,8.175029434785374,7.579091337360213,25.21496846759747,-12.079328443397713
6.690679268010399,-0.41012742841159416,8.250820348158976,7.458298052926236,23.978100184497045,-9.462099727983931
6.686577993726283,-0.17034642656662372,8.325403328688239,7.363677055646397,22.95756042714129,-7.199425587945945
6.684874529460617,0.059229177704789165,8.399040099244703,7.291682799766938,22.10676913833337,-5.224838400187638
6.685466821237665,0.2802968690881229,8.471956927242372,7.239434415765062,21.387477576701794,-3.486808500409384
6.688269789928547,0.49417164485514087,8.544351271400023,7.204566330760968,20.768005977887743,-1.9454771856839645
6.693211506377098,0.7018517046340182,8.616396934707632,7.185111558904128,20.22175361426342,-0.5700337184082893
6.700230023423439,0.9040692407766524,8.688248050296673,7.179411221720046,19.72601436813322,0.6633188732734495
6.709270715831205,1.1013293844579846,8.760042162513873,7.18604441045278,19.2610624916312,1.7729171632800762
6.720284009675785,1.2939400093742965,8.831902606618401,7.203773582085581,18.809456623110318,2.7728141538554945
6.733223409769528,1.4820345756053996,8.903940342439258,7.2315017236241355,18.355511629443935,3.673663941464336
6.7480437555255826,1.665589691899839,8.976255359675498,7.268238363038779,17.88489442573729,4.483376954905028
6.764699652444581,1.8444386361572118,9.048937743305887,7.313072132587829,17.384306955395694,5.207589818395683
6.783144038806153,2.0182817057111686,9.122068464631765,7.365148030771786,16.841225759428436,5.849979372073965
6.803326855863265,2.186693963305453,9.195719944939482,7.423647824492525,16.243673166489103,6.412440142263281
6.825193795496319,2.349130694970344,9.269956423184407,7.487772225915157,15.580000796207305,6.895138568184208
6.848685102446023,2.504930702932417,9.344834145443558,7.556723611597,14.838672709442736,7.296455696885493
6.873734409475347,2.6533174300268443,9.420401381559529,7.629688168565854,14.00804413270806,7.612833201502021
6.900267583775615,2.7933978713539247,9.496698263245188,7.705816500580875,13.076143116789238,7.838545935351728
6.928201562489154,2.924159302521817,9.573756428250997,7.784201959934392,12.030477384520184,7.965438224694797
6.9574431555143725,3.0444640763670185,9.651598447850342,7.863856342181339,10.857907070344496,7.982680780397101
6.987887796278042,3.1530431470704636,9.730237011272155,7.94368314998531,9.5446452131363,7.876629688844405
7.019418227748747,3.2484895992018266,9.809673842772009,8.022449446873754,8.076469408646146,7.630896119443719
7.0519031237407654,3.329254293288288,9.889898337240746,8.098758408068191,6.439245484053405,7.226760451177073
7.085195666673648,3.393646748128822,9.970885921321427,8.171026012579961,4.619870184892289,6.644079435526152
7.1191321341549365,3.439845449977745,10.052596181447226,8.237466806935222,2.607724490947487,5.862827866721176
7.153530588654714,3.4659226948872197,10.134970849516579,8.296095085602435,0.39668017530912975,4.865371905425503
7.188189815603587,3.469889496640311,10.217931800372604,8.344748804656689,-2.0123914183269798,3.639474442108258
7.22288871056999,3.449765582457041,10.30137928841917,8.381143549077771,-4.608801613818085,2.1818749003123337
7.25738636639456,3.4036775663188603,10.385190723909949,8.402962298080896,-7.369289968456272,0.5020745156111428
7.291423142057749,3.3299846666342976,10.469220346890758,8.407983043237007,-10.255885572012275,-1.3742710498690893
7.324722988724091,3.2274258109141747,10.553300177323129,8.394240332738315,-13.215054929688161,-3.4031281803904623
7.356997246833233,3.095275261617293,10.637242580650511,8.36020905093441,-16.178785597464223,-5.521842446100563
7.387949999449406,2.933487405642651,10.720844671159856,8.304990626473405,-19.06802809683364,-7.6514956752425896
7.4172848735058325,2.7428071246743144,10.80389457742459,8.228475669720979,-21.798478160014977,-9.702034574826659
7.444712944752576,2.5248223430741645,10.886179334121799,8.131455323972713,-24.288108631577934,-11.579711687074084
7.469961168183318,2.281941256758385,10.967493887361526,8.015658207101971,-26.465325154761246,-13.195742821990061
7.492780580750901,2.0172880052107725,11.047650469432545,7.883700778882071,-28.276324069715905,-14.474669875694351
7.5129534608030095,1.7345247645136133,11.126487477221366,7.7389540801251275,-29.690315833172175,-15.360899874207808
7.530298708448146,1.4376216061818914,11.203877018022617,7.58534508138305,-30.701743431469367,-15.822300917498328
7.544674924509964,1.1306041718671977,11.279730468836448,7.427122072208067,-31.329320504666487,-15.850434268846131
7.555980966228637,0.817310966820533,11.354001689558528,7.2686177295196055,-31.612401728816373,-15.457744440721118
7.564154075896842,0.5011869495323692,11.426687866853724,7.114040285112394,-31.605667215777725,-14.672580697552174
7.569165945392165,0.18513027737459192,11.497828269704849,6.967314478136872,-31.373252838647353,-13.533155210340388
7.571017248165911,-0.1286022510118816,11.567501414486218,6.831982926033469,-30.983318513657867,-12.081462159404296
7.569731225655793,-0.4384354361484603,11.635821243746552,6.7111683044394255,-30.503731809849636,-10.357893255210666
7.565346871294308,-0.7434727542469567,11.702932926790947,6.607589371887319,-29.9991890615399,-8.396923393191365
7.557912143751838,-1.0434646448623557,11.76900882050982,6.5236201379554055,-29.52980136761706,-6.223913927822244
7.547477497303214,-1.3387626585385264,11.834245021889373,6.461380998677183,-29.15098599040684,-3.8528472996286096
7.534089870717829,-1.6302725184425948,11.898858831876145,6.422852525680897,-28.914425828869568,-1.2846749074970218
7.517787145533403,-1.9194167767312904,11.963087357132954,6.410005776605926,-28.869864560549622,1.4940889582805985
7.498592977766091,-2.2081154223367867,12.027187414899013,6.424946666188732,-29.06755645415648,4.512887194147514
7.476511823542723,-2.4987909868783515,12.0914368815609,6.4700755381302075,-29.561249748118538,7.819066704598658
7.45152391367394,-2.794403484359537,12.156137636942203,6.548266205176194,-30.411606840148785,11.480464377770746
7.423579878830345,-3.098519552761025,12.221620298993965,6.663070848953901,-31.689881459948147,15.588619367847624
7.392594683302734,-3.4154183673605063,12.288251007483504,6.818957042632378,-33.48132816683107,20.26204690795869
7.358440499629129,-3.750231649028817,12.356440577909828,7.021577511711965,-35.88684701167828,25.64762509478468
7.320938183138841,-4.1091001191456,12.426656353026948,7.278053762659812,-39.01888265636754,31.91469890695966
7.279847181947385,-4.499288945709275,12.499436890653545,7.5972007517294085,-42.981494594246016,39.22804659313422
7.234854292490293,-4.929103891651735,12.575408898170839,7.98948121766075,-47.8099801962453,47.665625741068745
7.1855632535737755,-5.407203693614188,12.655303710347447,8.466137475071438,-53.31280927237835,57.00138751781603
7.131491216637634,-5.940331786337972,12.739965085098161,9.036151350249598,-58.69616937740969,66.18553501478058
7.072087898774254,-6.5272934801120694,12.830326598600656,9.698006700397404,-61.78867093954428,72.26452685514602
7.006814963973134,-7.145180189507513,12.92730666560463,10.420651968948864,-57.91370128064953,68.7987329480596
6.935363162078058,-7.724317202314008,13.03151318529412,11.108639298429459,-40.03927756644646,46.03971793425397
6.858119990054918,-8.124709977978473,13.142599578278414,11.569036477771999,-5.059733024356587,-0.3653918866960157
6.776872890275134,-8.175307308222038,13.258289943056134,11.56538255890504,34.74110461963325,-53.47565276093219
6.695119817192913,-7.827896262025706,13.373943768645184,11.030626031295718,58.658826887994536,-84.82467039071548
6.616840854572656,-7.24130799314576,13.48425002895814,10.182379327388563,62.401144035966944,-88.75709143199343
6.544427774641198,-6.61729655278609,13.586073822232025,9.29480841306863,55.857745041241294,-79.01405013175946
6.478254809113337,-6.0587191023736775,13.679021906362712,8.504667911751035,47.035333594322836,-66.52587525208813
6.417667618089601,-5.588365766430449,13.764068585480222,7.839409159230154,38.99766966876371,-55.37363037307657
6.361783960425296,-5.198389069742812,13.842462677072524,7.285672855499389,32.39563625902662,-46.35406063676104
6.309800069727868,-4.874432707152546,13.915319405627518,6.822132249131778,27.122647886537383,-39.26012235706033
6.2610557426563425,-4.603206228287172,13.983540728118836,6.429531025561175,22.916917393811598,-33.69597666763312
6.215023680373471,-4.374037054349056,14.047836038374447,6.092571258884844,19.53315175833641,-29.30230912015413
6.17128330982998,-4.178705536765692,14.108761750963295,5.7995481676833025,16.77738678256744,-25.797562334933012
6.129496254462323,-4.010931668940017,14.166757232640128,5.541572544333972,14.504345470328879,-22.970347925290586
6.089386937772923,-3.865888214236729,14.222172958083467,5.3118690650810665,12.607261692971928,-20.663004144830456
6.050728055630556,-3.7398155973070093,14.275291648734278,5.105239023632762,11.008268022548334,-18.75672293262464
6.013329899657485,-3.629732917081526,14.326344038970605,4.917671794306515,9.650972994267438,-17.1601088816021
5.97703257048667,-3.5332231871388515,14.375520756913671,4.746070705490494,8.495095378529461,-15.800823758297001
5.941700338615282,-3.4482722333535567,14.422981463968576,4.588062467907524,7.512656478288391,-14.619603582581396
5.907217616281746,-3.3731456685706727,14.46886208864765,4.44186643208171,6.685238073071903,-13.566051893360372
5.873486159596039,-3.306293287839954,14.513280752968468,4.306205913148107,6.001892018616711,-12.59581655379746
