th1 (rad),w1 (rad/s),th2 (rad),w2 (rad/s)
0.3171343802540348,2.9632904031305705,1.3074890274633275,-1.5415951341818988
0.3467672842853405,2.99325022651133,1.2920730761215085,-1.7260765541851812
0.3766997865504538,3.026578038950741,1.2748123105796567,-1.9124406537899856
0.40696556693996117,3.0635293201959226,1.2556879040417568,-2.10084956906538
0.4376008601419204,3.1042628325878603,1.234679408351103,-2.2913768917674178
0.468643488467799,3.1487947513907835,1.2117656394334289,-2.4839431488002925
0.5001314359817068,3.1969340721977177,1.186926207945426,-2.6782256169970426
0.532100776703684,3.2481942014992686,1.1601439517754555,-2.8735355236320554
0.5645827187186767,3.3016766392191808,1.131408596539135,-3.0686570544720615
0.5975994851108686,3.355926723485928,1.1007220259944144,-3.261648204810276
0.6311587523457278,3.4087712067639453,1.0681055439463116,-3.4496170895518126
0.6652464644133673,3.4571662546363306,1.0336093730507936,-3.6285134444770333
0.6998181269597307,3.497114039154203,0.9973242386060233,-3.793016098973529
0.7347892673512727,3.5237410995556746,0.9593940776162879,-3.936645689353405
0.7700266783468295,3.5316509680553585,0.9200276207227539,-4.052258309636094
0.805343188027383,3.515626296447978,0.879505037626393,-4.133023053463044
0.8404994509918629,3.4716216054319373,0.8381748070917625,-4.173798543455224
0.8752156670461823,3.397776815585701,0.7964368216572103,-4.172529299592916
0.9091934352020392,3.295028870629266,0.7547115286612811,-4.131071664744909
0.9421437239083319,3.16698720972228,0.713400812013832,-4.054986700205363
0.9738135960055547,3.0190890631592637,0.6728509450117783,-3.9523301326561757
1.0040044866371474,2.857415296610083,0.6333276436852165,-3.831978541331095
1.0325786396032481,2.6876420259035823,0.5950078582719056,-3.702158465715064
1.059455059862284,2.514409394958071,0.557986273614755,-3.5695691239989675
1.0845991538118647,2.3411225909257696,0.5222905823747652,-3.4391148116688295
1.1080103797211223,2.1700452673600896,0.4878994342580769,-3.3140471107197174
1.1297108323947231,2.0025257371297793,0.4547589631508797,-3.1962912179291987
1.149736089766021,1.8392449683335184,0.42279605097158773,-3.086800404341518
1.1681285394493561,1.6804314598109598,0.39192804692817257,-2.985861917299484
1.1849328540474657,1.526026276891281,0.36206942775517775,-2.8933314065260456
1.2001931168163786,1.3758007587602143,0.3331361136899173,-2.808799879741842
1.2139511244039807,1.2294362880856067,0.3050481148924989,-2.73170672699908
1.2262454872848367,1.0865762365923184,0.2777310476225081,-2.6614132587197057
1.23711124965076,0.9468585748353291,0.25111691503531103,-2.5972488415492743
1.246579835399113,0.8099355198385148,0.2251444266198183,-2.5385386957198235
1.2546791905974983,0.6754847204576311,0.19975903966262004,-2.4846197548201654
1.2614340378020747,0.5432150384330943,0.17491284211441838,-2.4348489452577717
1.2668661881864056,0.4128689499759295,0.15056435266184065,-2.3886067808700306
1.2709948776861648,0.2842228822736074,0.12667828485314034,-2.3452981639922394
1.273837106508901,0.1570863229965383,0.10322530321321795,-2.304351611500296
1.2754079697388663,0.0313002268639572,0.08018178709821498,-2.2652176807315025
1.2757209720075058,-0.09326496121769803,0.05752961029089995,-2.2273670807808044
1.274788322395329,-0.2167114788214345,0.03525593948309191,-2.1902887672260123
1.2726212076071146,-0.3391165109933694,0.013353051810831785,-2.1534881974995326
1.269230042497181,-0.4605344970380846,-0.008181830164163541,-2.1164858463901015
1.2646246975268,-0.5809994611665086,-0.029346688628064558,-2.078816031066046
1.258814702915135,-0.7005273684337263,-0.05013484893872502,-2.040026062464115
1.2518094292307977,-0.8191185181065637,-0.07053510956336617,-1.999675718323726
1.243618244049732,-0.9367599916599034,-0.09053186674660343,-1.9573370183249674
1.2342506441331331,-1.053428173954793,-0.1101052369298531,-1.9125942709905528
1.2237163623935852,-1.1690913650819097,-0.12923117963975864,-1.8650443535175847
1.212025448742766,-1.283712497720849,-0.14788162317493447,-1.8142971784557802
1.1991883237655574,-1.3972519712678744,-0.1660245949594923,-1.7599762945270587
1.1852158040528786,-1.5096706098641128,-0.1836243579047629,-1.7017195625674835
1.1701190979542375,-1.6209327471646817,-0.20064155353043772,-1.6391798414516217
1.1539097704825907,-1.7310094365307163,-0.21703335194495393,-1.5720256129597816
1.1365996761172836,-1.8398817815804427,-0.23275360807455175,-1.4999414690008979
1.1182008583014793,-1.947544378968395,-0.24775302276456074,-1.4226283796133956
1.0987254145117953,-2.0540088631249955,-0.2619793065606947,-1.339803655995951
1.0781853258805454,-2.1593075417065055,-0.2753773431206542,-1.2512005197815856
1.0565922504634804,-2.263497110850431,-0.2878893483184701,-1.1565671882262354
1.033957279354976,-2.3666624410836743,-0.29945502020073245,-1.0556653853733324
1.0102906549441393,-2.4689204278140147,-0.3100116740544658,-0.948268192135253
0.9856014506659991,-2.5704239044224835,-0.3194943559758183,-0.8341571543687596
0.9598972116217743,-2.6713656203408935,-0.3278359275195059,-0.7131185785600793
0.9331835554183654,-2.7719822898015223,-0.3349671133051067,-0.5849389614818907
0.9054637325203502,-2.8725587168724673,-0.3408165029199256,-0.449399526079201
0.8767381453516255,-2.9734319951097388,-0.34531049818071763,-0.3062698757357164
0.8470038254005281,-3.0749957594283317,-0.3483731969380748,-0.15530084099650684
0.8162538678062448,-3.177704423551839,-0.34992620534803986,0.0037833099671486514
0.7844768235707263,-3.282077252440074,-0.3498883722483684,0.17129297158277568
0.7516560510463256,-3.3887019693515628,-0.3481754425325406,0.34758103925104616
0.71776903135281,-3.4982373397671873,-0.3446996321400302,0.5330495157641095
0.6827866579551382,-3.611413742075947,-0.3393691369823891,0.7281532740358123
0.6466725205343786,-3.729030020611461,-0.33208760424203093,0.933398329330162
0.6093822203282641,-3.8519437519320734,-0.32275362094872934,1.1493303106131751
0.5708627828089433,-3.981050181910444,-0.3112603178425976,1.3765061686919677
0.5310522809898389,-4.117242131255609,-0.29749525615567796,1.6154379933259495
0.4898798596772828,-4.261338616242475,-0.28134087622241843,1.8664914361591158
0.44726647351485804,-4.41396325110746,-0.26267596186082726,2.129711918755462
0.40312684100378343,-4.575344503589248,-0.24137884267327264,2.404539331874373
0.35737339596789097,-4.744999870356406,-0.21733344935452892,2.6893582236221807
0.30992339726432694,-4.9212605830940435,-0.1904398671183071,2.980823492559876
0.2607107914333865,-5.100607911631681,-0.16063163219270835,3.272923176914128
0.20970471231706966,-5.276859589063545,-0.12790240042356707,3.5558368796486755
0.1569361164264342,-5.440417336621111,-0.09234403162708031,3.814893951431947
0.10253194306022309,-5.578096225343573,-0.05419509211276084,4.030374595022501
0.046750980806787364,-5.674380704392878,-0.013891346162535838,4.179353943481639
-0.009992826237141414,-5.714814896692039,0.027902193272280558,4.240589131022885
-0.06714097520406181,-5.6909812392658665,0.07030808458250941,4.201665310396531
-0.12405078759672047,-5.604489316750901,0.11232473768647472,4.064728639487812
-0.1800956807642295,-5.466901085834491,0.15297202408135285,3.8464248203072664
-0.2347646916225744,-5.295307650874417,0.1914362722844255,3.571614962991251
-0.28771776813131855,-5.10668523839071,0.22715242191433802,3.265297164699554
-0.3387846205152257,-4.914250451559193,0.25980539356133353,2.9473253462348987
-0.3879271250308176,-4.726544444650259,0.2892786470236825,2.6310009620363597
-0.4351925694773202,-4.5481799602401205,0.3155886566440461,2.324053369262967
-0.48067436907972144,-4.381059743538341,0.3388291903366758,2.0303239471233416
-0.5244849665151049,-4.225441409226693,0.3591324298079092,1.7512590051200074
-0.5667393806073718,-4.080683836654721,0.3766450198591093,1.486966391166269
-0.607546218973919,-3.945712753236292,0.391514683770772,1.236880705051573
-0.647003346506282,-3.8192901586823202,0.4038834908212877,1.0001520866656368
-0.6851962480931052,-3.70016100576962,0.41388501168794406,0.7758601394314715
-0.7221978581508014,-3.587127798779225,0.4216436130822588,0.5631237933364628
-0.7580691361385936,-3.479084689629049,0.4272748510156234,0.36115165415510586
-0.7928599830348841,-3.375029705426171,0.43088636755717447,0.16925941165188613
-0.8266102800891458,-3.2740657261291504,0.4325789616736933,-0.013130321226203945
-0.8593509373504373,-3.1753960971892994,0.4324476584614313,-0.18649702271393043
-0.8911048983223303,-3.078318040877686,0.43058268823429197,-0.35123526831468865
-0.9218880787311071,-2.9822154943649766,0.4270703355511451,-0.507669062513612
-0.9517102336747569,-2.8865521505417293,0.421993644926009,-0.6560660670995715
-0.9805757551801743,-2.7908650150000773,0.4154329842550133,-0.7966509872209724
-1.0084844053301751,-2.694758550320818,0.4074664743828036,-0.9296177574282785
-1.0354319908333833,-2.5978993602415112,0.3981702968085208,-1.0551403781547493
-1.0614109844357984,-2.500011316460873,0.3876188930269733,-1.17338236565781
-1.086411097600407,-2.400871018479355,0.3758850693703952,-1.2845048389838465
-1.1104198077852006,-2.300303484142293,0.3630400209805567,-1.388673300355326
-1.1334228426266235,-2.1981779852371046,0.34915328797700346,-1.4860631838440677
-1.1554046224789947,-2.094403962758875,0.3342926561385628,-1.5768642583798602
-1.1763486621065835,-1.9889269769705686,0.3185240135547642,-1.6612839786359366
-1.1962379318762892,-1.881724666282097,0.3019111737684048,-1.7395498827933589
-1.2150551785391102,-1.7728027052645385,0.28451567494047125,-1.8119111402629628
-1.2327832055917556,-1.6621907653393009,0.26639656353784164,-1.878639355292467
-1.2494051132451487,-1.5499384917037065,0.24761016998491697,-1.9400287339651996
-1.2649044981621858,-1.436111516950005,0.22820988264526498,-1.9963957223215392
-1.2792656133316858,-1.3207875358131589,0.2082459254220496,-2.0480782221561613
-1.2924734886898173,-1.204052466836783,0.18776514320048798,-2.0954344884816964
-1.3045140133581852,-1.0859967258193903,0.16681079831567103,-2.1388418087919003
-1.3153739806163791,-0.9667116330642181,0.14542238022775203,-2.1786950592565932
-1.3250410969470212,-0.846285972084866,0.12363542963518609,-2.2154052270339792
-1.33350395666787,-0.7248027118939411,0.1014813773648463,-2.2493979812172764
-1.3407519837868094,-0.6023358986929954,0.07898739755267353,-2.2811123677700067
-1.3467753427737392,-0.4789477160496059,0.05617627387497347,-2.3109996963562387
-1.3515648199342354,-0.3546857058458549,0.03306627691141108,-2.3395226793993738
-1.3551116769926939,-0.2295801357715061,0.00967105011741734,-2.3671548760847454
-1.3574074783504089,-0.10364149330203068,-0.014000498643430115,-2.394380486309552
-1.358443893283429,0.023141918601733563,-0.03794430350652564,-2.421694531541686
-1.3582124740974117,0.15080631183237692,-0.0621612488219425,-2.4496034506612756
-1.356704410979088,0.2794146977681947,-0.08665728332855525,-2.4786261281980027
-1.353910264001406,0.40905915128814396,-0.11144354461053528,-2.5092953584040623
-1.3498196724885245,0.5398630706880703,-0.13653649819457592,-2.5421597288602484
-1.3444210417816438,0.67198343337375,-0.1619580954831784,-2.5777858779597587
-1.3377012074479062,0.8056130183837336,-0.187735954262776,-2.6167610357101885
-1.3296450772640689,0.9409825194631731,-0.2139035646198779,-2.6596956877069995
-1.3202352520694371,1.0783623968340519,-0.2405005214969479,-2.7072260938836816
-1.3094516281010966,1.2180641970827684,-0.2675727824357847,-2.7600162254320106
-1.297270986130269,1.3604408860542545,-0.2951729446901048,-2.8187584228439344
-1.2836665772697264,1.5058854552342766,-0.32336052891854417,-2.88417167696619
-1.2686077227173838,1.6548266274773884,-0.3522022456882061,-2.9569958218935257
-1.25205945644261,1.8077198307845888,-0.38177220390714134,-3.037979000989818
-1.2339822581347641,1.9650306301732103,-0.4121519939170395,-3.127854385056383
-1.214331951833032,2.127206383721766,-0.4434305377676033,-3.2273001090401174
-1.1930598879958143,2.2946298934587386,-0.4757035388580045,-3.336873571032399
-1.1701135890612269,2.4675462013496507,-0.5090722745683285,-3.4569075261433273
-1.1454381270477303,2.6459506475203862,-0.5436413498297618,-3.587351102491548
-1.1189786205725265,2.82942377007788,-0.5795148608546772,-3.727535239616582
-1.0906843828717476,3.016899019024147,-0.616790213250843,-3.875842524961479
-1.060515392681506,3.2063578579218275,-0.6555486385004579,-4.029273413696469
-1.0284518141022878,3.3944730285821385,-0.6958413726374225,-4.182937612057527
-0.9945070838164665,3.5762768666348594,-0.7376707487579978,-4.3295784039673055
-0.9587443151501178,3.745022972766406,-0.7809665327976708,-4.459366695408095
-0.9212940854224537,3.8925080400556236,-0.8255601997517518,-4.560341131183554
-0.8823690050218975,4.010127536270861,-0.8711636110635873,-4.619882212014687
-0.842267729659189,4.090698005826583,-0.9173624331837342,-4.627271821657105
-0.8013607496009231,4.130544355257243,-0.9636351514003053,-4.576639380530863
-0.7600553060483506,4.1308533819445366,-1.009401545205614,-4.4688948620999405
-0.7187467722289053,4.097442562044511,-1.0540904938266134,-4.311450204901618
-0.6777723466084602,4.039016908751993,-1.0972049958756296,-4.115821127217038
-0.6373821775209403,3.964895071470017,-1.1383632071478,-3.8944743032159175
-0.5977332268062401,3.8832526252355497,-1.1773079501799593,-3.658382886217383
-0.5589007005538846,3.8003063761351585,-1.213891779042133,-3.415885109707477
-0.5208976367925331,3.720267437336146,-1.2480506301392078,-3.1726098895939785
-0.48369496241917165,3.6456886277336222,-1.2797767290351476,-2.9319508665628025
-0.4472380761418354,3.5779110118745194,-1.3090962377007755,-2.695679757029355
-0.41145896602309023,3.5174595391680534,-1.3360530352710691,-2.4644910531514213
-0.3762843706314097,3.4643416834499563,-1.3606979458025834,-2.2384141207986064
-0.3416409537969101,3.4182533790607037,-1.3830820870105696,-2.017098478655456
-0.3074584200063031,3.3787128858046445,-1.403253071797124,-1.800000593470349
-0.2736712911482566,3.3451439705370927,-1.4212530777318275,-1.5865015311632416
-0.24021985144288568,3.3169254533705113,-1.43711809304346,-1.3759787821710279
-0.20705059690918057,3.293419268189819,-1.4508778808651703,-1.167848800753404
-0.17411640422728236,3.2739852045762445,-1.4625563688727043,-0.9615912919374252
-0.1413765521815199,3.2579876431746557,-1.4721722817920786,-0.7567623335785849
-0.10879667574977334,3.2447976748650995,-1.4797399051278644,-0.5530007641964239
-0.07634869900112234,3.233792745020018,-1.4852699127698286,-0.35003053968969494
-0.044010771550922166,3.224355168056945,-1.4887702181667255,-0.14766066199054537
-0.011767219870352716,3.2158703551383443,-1.490246824786631,0.05421640764390814
0.020391483681030727,3.2077252813937442,-1.4897046607101918,0.25562736529263186
0.05246873649496817,3.199307518094204,-1.4871483870572655,0.45652148485923427
0.08446181167591021,3.19000502488651,-1.482583172208673,0.6567747679610288
0.11636186192477532,3.1792068092665806,-1.4760154245290629,0.8561948309638585
0.14815393001744112,3.1663044974739174,-1.4674534762194242,1.0545265735729985
0.1798169749921803,3.150694812363574,-1.4569082104836943,1.2514586799244385
0.21132392311581605,3.131782913429643,-1.44439362368445,1.446630989671231
0.24264175225011247,3.1089865187188708,-1.4299273137877375,1.6396427501496316
0.2737316174373012,3.0817406963811598,-1.4135308862862412,1.8300617264935841
0.30454902440111276,3.049503184648886,-1.3952302690213054,2.0174341085412766
0.33504405624760164,3.0117600733380017,-1.3750559279358927,2.2012951147612987
0.3651616569809817,2.968031658046526,-1.3530429767882797,2.381180156837768
0.39484197356144696,2.9178782607184424,-1.329231175219902,2.556636396102255
0.4240207561686314,2.8609057977583,-1.3036648112588793,2.7272344963420205
0.4526298141462144,2.7967708699781046,-1.276392466295459,2.8925803579217177
0.48059752284599544,2.7251851478215574,-1.2474666627162418,3.0523266066090864
0.5078493743242111,2.6459188309738253,-1.216943396650151,3.206183607785171
0.5343085626339493,2.558802973999949,-1.1848815605722993,3.353929783540694
0.5598965923739488,2.463730489329997,-1.1513422627368923,3.4954210271603863
0.5845338972672488,2.3606556657925353,-1.1163880524652885,3.6305990372588957
0.6081404539251741,2.2495920747150264,-1.0800820620926996,3.759498432773779
0.6306363746723244,2.13060877557523,-1.0424870777649617,3.8822525602294475
0.6519424624280766,2.003824777858086,-1.0036645521626673,3.999097965711538
0.6719807102066575,1.8694017629677049,-0.9636735725055519,4.110377574657846
0.6906747278363345,1.7275351168897535,-0.9225697967589734,4.216542700848515
0.7079500790052321,1.5784433674300413,-0.8804043697504883,4.31815408894715
0.7237345126795325,1.4223561557961288,-0.8372228288610168,4.415882278866347
0.7379580742374938,1.2595008980262143,-0.7930640060723534,4.510507660646825
0.7505530832177559,1.0900883055070154,-0.7479589294658852,4.602920660286608
0.7614539662728261,0.9142969359631838,-0.701929722863019,4.694122553878885
0.770596935632458,0.7322569407710965,-0.6549884973242301,4.7852274414253735
0.7779195050401689,0.5440331706451055,-0.6071362229099764,4.877465910636793
0.78335983674662,0.3496078176741598,-0.5583615638036085,4.972190864505496
0.7868559149233616,0.14886283939734055,-0.5086396551585535,5.070885837997365
0.7883445433173351,-0.05843741417481224,-0.45793079677857984,5.17517582240058
0.7877601691755869,-0.2726625702637723,-0.40617903855457405,5.286840029329973
0.7850335434729492,-0.49433004728586105,-0.3533106382612743,5.407824939898044
0.7800902430000906,-0.7241133411663364,-0.29923238886229386,5.540254002074546
0.7728491095884272,-0.9628392115752351,-0.2438298488415484,5.686426756809727
0.7632207174726748,-1.2114635289104276,-0.18696558127345114,5.848793762195799
0.7511060821835706,-1.4710073284809182,-0.12847764365149317,6.02988236642765
0.7363960088987613,-1.742420525017963,-0.06817881998721667,6.232128848689273
0.7189718036485817,-2.026317578951624,-0.005857531500323941,6.457540106071137
0.6987086278590655,-2.3224943774521445,0.05871786956038743,6.707058669609742
0.6754836840845441,-2.6290918116383204,0.12578845625648485,6.979442021545985
0.6491927659681609,-2.9412451323565105,0.19558287647194472,7.269426136979528
0.6197803146445958,-3.2491389917920475,0.26827713784174,7.565047347510794
0.5872889247266754,-3.5357900862963088,0.34392761131684796,7.844543010902077
0.5519310238637123,-3.7759026968856784,0.42237304142586873,8.074661134725623
0.5141719968948555,-3.9386212953957016,0.503119652773125,8.214263267839057
0.4747857839408985,-3.9969325456852025,0.5852622854515156,8.227033669426397
0.4348164584840465,-3.9412742847696456,0.6675326221457796,8.099964491456339
0.39540371563635,-3.7868521477809822,0.7485322670603429,7.853214219271917
0.3575351941585402,-3.566323204990147,0.8270644092530621,7.5300040561727055
0.3218719621086387,-3.3143180228490587,0.9023644498147891,7.175600031246574
0.2887287818801481,-3.0567273374443698,0.9741204501272549,6.823050682080459
0.2581615085057044,-2.8086913209604347,1.0423509569480596,6.490819303096273
0.23007459529610005,-2.5772586375662185,1.1072591499790223,6.186627589511628
0.20430200892043787,-2.3646582948307353,1.1691254258741386,5.911974393815358
0.18065542597213052,-2.17065647389281,1.2282451698122923,5.665318101597097
0.15894886123320243,-1.9939366002783245,1.2848983508282632,5.44389772955394
0.13900949523041917,-1.8328205022985928,1.3393373281238026,5.24465578463072
0.12068129020743323,-1.6856139605810707,1.3917838859701097,5.064659391804589
0.10382515060162253,-1.5507555679213043,1.4424304798881555,4.901265017569707
0.0883175949224095,-1.4268681838360928,1.4914431300638527,4.75216048300489
0.07404891308404857,-1.3127647382559116,1.5389647348939015,4.6153525641574715
0.06092126570148945,-1.2074343722603453,1.5851182605354763,4.489133599852606
0.048846921978886,-1.1100215536062115,1.6300095965340025,4.372042769484148
0.03774670644282389,-1.0198040580910108,1.673730024228844,4.262828916367999
0.027548665861913776,-0.9361723621210282,1.716358313392524,4.160417554096952
