th1 (rad),w1 (rad/s),th2 (rad),w2 (rad/s),a1 (rad/s^2),a2 (rad/s^2)
2.9474151480123942,0.9312331096903718,4.12385248407682,-2.3477511400001854,-0.8191399866210698,7.665284669758622
2.956727479109298,0.9230417098241611,4.100374972676818,-2.271098293302599,-1.0446773397259694,7.67855997501641
2.9659578962075397,0.9125949364269014,4.077663989743792,-2.1943126935524346,-1.2609990490180183,7.703495907579991
2.9750838455718087,0.8999849459367212,4.0557208628082675,-2.1172777344766347,-1.4682474676504023,7.738497297091663
2.9840836950311758,0.8853024712602171,4.034548085463501,-2.039892761505718,-1.6664644628580718,7.781979677949224
2.9929367197437777,0.8686378266316364,4.014149157848444,-1.9620729647262258,-1.8556076403447697,7.83237766265591
3.001623098010094,0.8500817502281887,3.994528428201182,-1.8837491880996668,-2.0355680005916814,7.88815649286472
3.0101239155123762,0.8297260702222718,3.975690936320185,-1.8048676231710197,-2.2061887435329077,7.94782639108718
3.018421176214599,0.8076641827869427,3.957642260088475,-1.725389359260148,-2.3672848086904197,8.009959131915949
3.0264978180424684,0.7839913347000386,3.9403883664958737,-1.6452897679409884,-2.518662615326643,8.073206062329003
3.034337731389469,0.7588047085467722,3.9239354688164636,-1.5645577073176984,-2.660139365391836,8.136316643681313
3.0419257784749365,0.7322033148928538,3.9082898917432867,-1.4831945408808853,-2.79156120439812,8.198156480795504
3.049247811623865,0.7042877028488727,3.8934579463344776,-1.4012129760729302,-2.912819512994924,8.257723761075404
3.0562906886523535,0.6751595077189234,3.879445816573748,-1.318635738462176,-3.0238646322128906,8.314163058762652
3.063042283729543,0.6449208613967945,3.8662594591891266,-1.2354941078745496,-3.1247164101241767,8.366775569358214
3.0694914923435106,0.6136736972955528,3.8539045181103813,-1.1518263521809675,-3.2154710931486554,8.415025021779414
3.0756282293164663,0.5815189863640662,3.8423862545885714,-1.0676761019631733,-3.2963042617302007,8.45853875792437
3.081443419180107,0.5485559437467642,3.8317094935689395,-0.9830907143839296,-3.367469713139331,8.497103751129037
3.0869289786175744,0.5148812466153709,3.8218785864251004,-0.8981196768726392,-3.4292944062390793,8.530657632325429
3.092077791083728,0.48058830255298013,3.812897389656374,-0.8128131005493848,-3.482169785930195,8.55927508006077
3.096883674109258,0.4457666046936782,3.80476925865088,-0.7272203497487771,-3.526539981999223,8.583150184402884
3.1013413401561944,0.41050120487368597,3.7974970551533924,-0.6413888479047483,-3.5628875151667807,8.602575596440225
3.105446352204931,0.37487232972201817,3.791083166674345,-0.555363091940346,-3.591717234200084,8.617919412684259
3.1091950755021514,0.33895515738001736,3.7855295357549417,-0.46918389781350345,-3.613539249477455,8.629600812926137
3.1125846270759516,0.3028197648852428,3.7808376967768065,-0.3828878896842421,-3.6288516230674603,8.638065474001142
3.115612824724804,0.26653124865456823,3.777008817879964,-0.2965072349442307,-3.638123530119662,8.643761729423188
3.11827813721135,0.2301500133533716,3.774043745530522,-0.21006961764999882,-3.641779530799775,8.647118348852956
3.1205796373448837,0.19373221804537386,3.771943049354022,-0.12359843416146926,-3.6401854968699796,8.648524686421093
3.1225169595253375,0.15733036307667406,3.7707070650124073,-0.037113187297258335,-3.633636632598739,8.648313807162367
3.1240902631561043,0.12099399675068667,3.770335933139435,0.04936995077436533,-3.6223479246005796,8.646749058201337
3.125300203123611,0.08477051750468087,3.7708296326471786,0.1358374413563787,-3.6064472556251683,8.644014414588064
3.1261479082986576,0.048706044948429186,3.7721880070607425,0.22227758550225934,-3.585971326646731,8.640208803822626
3.126634968748142,0.012846331681961878,3.774410782915765,0.3086796735404856,-3.5608644506160574,8.635344499555677
3.1267634320649615,-0.022762312824198695,3.77749757965117,0.39503311853604234,-3.530980208511206,8.629349572161635
3.1265358089367195,-0.05807211490931076,3.7814479108365306,0.48132661425765866,-3.496085890960095,8.622074288276172
3.1259550877876263,-0.09303297381891171,3.786261176979107,0.5675473571404204,-3.4558695831589965,8.61330125849984
3.1250247580494372,-0.12759166965050167,3.7919366505505114,0.6536803697254188,-3.409949683743333,8.602759038110225
3.123748841352932,-0.161691166487935,3.7984734542477656,0.7397079601065211,-3.3578865773768474,8.590138787000994
3.1221319296880528,-0.19527003226170347,3.805870533848831,0.825609347976531,-3.299196105509761,8.575113491683908
3.120179229365436,-0.22826199331680108,3.8141266273285965,0.91136048289337,-3.23336440157369,8.557359146468041
3.1178966094322678,-0.260595637332538,3.8232402321575303,0.9969340743580504,-3.159863579723658,8.53657718841596
3.1152906530589424,-0.2921942731297746,3.8332095729011106,1.08229984624221,-3.0781676961671316,8.512517389786629
3.1123687103276447,-0.3229759500914459,3.844032571363533,1.1674250201400762,-2.9877683468313725,8.485000342930698
3.1091389508267304,-0.3528536335597596,3.8557068215649335,1.2522750235693831,-2.8881892330497463,8.45393863737948
3.105610414491133,-0.3817355258902571,3.868229571800627,1.336814409943178,-2.7789990260993513,8.419355837762188
3.1017930592322305,-0.4095255161512506,3.881597715900059,1.4210079683208,-2.659821898049271,8.381402432204975
3.097697804070718,-0.4361237351317433,3.895807795583267,1.5048219926428497,-2.5303451637127985,8.34036803770643
3.0933365667194006,-0.4614271867688713,3.910856015509695,1.588225673019914,-2.3903235957542264,8.296689319709833
3.0887222948517117,-0.4853304227264136,3.9267382722398945,1.6711925662170124,-2.239580126879628,8.250953299509023
3.0838689906244476,-0.5077262239952098,3.9434501979020644,1.7537020992121026,-2.0780028298677373,8.20389597106307
3.0787917283844957,-0.5285062522938873,3.9609872188941853,1.8357410589227334,-1.9055382547728736,8.156396409359536
3.0735066658615566,-0.547561634841616,3.9793446294834127,1.9173050230163289,-1.7221813876998662,8.109466804120103
3.0680310495131407,-0.5647834487186146,3.998517679713576,1.99839969105753,-1.5279626616721724,8.064239073831727
3.0623832150259545,-0.5800630753353364,4.018501676624152,2.0790420817958473,-1.3229325836495922,8.021948886965676
3.056582584272601,-0.5932924011718324,4.03929209744211,2.159261570665504,-1.1071446326111694,7.983918026041231
3.050649660260883,-0.604363847497944,4.060884713148765,2.239100750925916,-0.8806371264837045,7.9515360687893475
3.0446060217859032,-0.6131702187627811,4.0832757206580235,2.3186161116138098,-0.6434147505246435,7.926242329193442
3.0384743195982753,-0.6196043662680275,4.106461881774162,2.397878534905744,-0.39543039153531906,7.909508906477028
3.032278275935595,-0.6235586701833807,4.130440667123219,2.4769736239705145,-0.1365678400577779,7.902825544320938
3.026042689233761,-0.6249243485839585,4.155210403362924,2.556001879413724,0.13337418170958576,7.907686821145636
3.0197934457479216,-0.6235906067668626,4.180770422157061,2.63507874762518,0.4146963221856748,7.9255819916135515
3.013557539680253,-0.6194436435450059,4.207121209633313,2.7143345675413157,0.7078109989597543,7.957987594913085
3.0073631032448027,-0.6123655335554083,4.234264555308727,2.7939144434904466,1.0132527551870756,8.006362749416347
3.001239447909249,-0.6022330060035376,4.2622036997436314,2.87397807098461,1.3316865070725865,8.07214687463039
2.9952171178492133,-0.5889161409328117,4.290943480453477,2.954699539730914,1.6639136569356818,8.156759424357515
2.9893279564398854,-0.572277004363455,4.320490475850787,3.036267133974489,2.010876052815987,8.26160107982765
2.9836051863962507,-0.5521682438352951,4.350853147190532,3.118883144772765,2.373657744779118,8.388055734796001
2.978083503957898,-0.5284316663875038,4.382041978638259,3.202763702120725,2.7534844187678154,8.537492499873
2.9727991872940227,-0.5008968221998257,4.414069615659467,3.288138627119455,3.1517202803531967,8.711266852336689
2.9677902190720244,-0.4693796193962937,4.446951001930661,3.375251295642822,3.569862012396189,8.910719950903028
2.9630964228780616,-0.4336809992723318,4.4807035148870895,3.4643584951518522,4.009529241301762,9.137175012582086
2.958759612885338,-0.39358570685931416,4.515347099838608,3.555730245277673,4.472450714456276,9.391929501386775
2.954823755816745,-0.3488611997147514,4.550904402291384,3.6496495402915405,4.960445114239295,9.676241697931623
2.9513351438195974,-0.2992567485723584,4.5874008976943,3.746411957270857,5.475395109270116,9.991309998418165
2.9483425763338738,-0.24450279747965725,4.624865017267009,3.8463250572550387,6.019212869734535,10.33824302771333
2.9458975483590772,-0.1843106687823119,4.663328267839559,3.949707487532172,6.5937948516498555,10.718018345337114
2.944054441671254,-0.11837272026581333,4.702825342714881,4.056887670985543,7.200963190565533,11.131427183244961
2.942870714468596,-0.046363088360158,4.7433942194247365,4.168201942817993,7.842390552681551,11.579002298650769
2.9424070835849943,0.03206081716665751,4.785076238852916,4.283991965804501,8.519504798288851,12.060925687121298
2.942727691756661,0.11725586514954603,4.827916158510961,4.404601222675714,9.233369366482357,12.576912635501344
2.9439002504081566,0.20958955881436958,4.871962170737718,4.530370349030727,9.9845349678005,13.126068485234727
2.9459961459963004,0.3094349084923746,4.9172658742280255,4.661631033883075,10.772858089003726,13.706714648210939
2.949090495081224,0.4171634893824119,4.963882184566856,4.798698180365184,11.597282139865067,14.31618104372783
2.953262129975048,0.5331363107810625,5.0118691663705075,4.941859990802462,12.455578038352751,14.950563441327374
2.9585934930828586,0.65769209116459,5.061287766278532,5.091365625215736,13.34404294447631,15.604446500884883
2.9651704139945045,0.7911325206093531,5.112201422530689,5.247410090224585,14.257159094973161,16.27059695962032
2.973081739200598,0.9337041115590847,5.164675523432935,5.410116059820788,15.187219697385332,16.93963682079943
2.982418780316189,1.085576308532938,5.218776684031143,5.5795124280287824,16.123936054282396,17.59971391799453
2.9932745434015184,1.246815669075762,5.274571808311431,5.755509567208728,17.05404985074014,18.23619708590991
3.005742700092276,1.4173561675831632,5.332126903983518,5.937871538067827,17.960986924859558,18.831435258286707
3.0199162617681075,1.5969660368317589,5.391505619364196,6.126185890650694,18.824603397490716,19.36463343248537
3.035885922136425,1.785212070806666,5.452767478270703,6.319832224975547,19.62109044138367,19.811911955400788
3.0537380428444916,1.9814229752205028,5.515965800520458,6.517951344529555,20.323117662336497,20.146626095311465
3.0735522725966966,2.184654151843868,5.581145313965754,6.71941760548267,20.900302968104025,20.34002600067429
3.095398814115135,2.393657181524908,5.6483394900205806,6.922817865489413,21.320093343496808,20.362327245573624
3.119335385930384,2.606858114959876,5.717567668675475,7.126441137945149,21.549119697567324,20.184233113645835
3.1454039670799827,2.8223493119355494,5.788832080054926,7.328283469081608,21.555044147708475,19.778896834065357
3.1736274601993384,3.037899753412634,5.862114914745742,7.526072437422262,21.308847266588263,19.124234578784524
3.2040064577334646,3.250988226078517,5.937375639119965,7.717314783210107,20.787409987462418,18.205405030834324
3.2365163399942496,3.458862325953141,6.014548786952067,7.899368833518451,19.97614348539115,17.017175494685823
3.271104963253781,3.6586237608070524,6.093542475287252,8.069540588465308,18.871333869795432,15.565824060067325
3.3076912008618513,3.847337099505007,6.174237881171905,8.225198829065981,17.48182671690496,13.87021271454678
3.3461645718569013,4.022155366674056,6.256489869462564,8.363900956211449,15.82970666155074,11.961731853072239
3.386386125523642,4.180452433289563,6.340128879024679,8.48351827474217,13.94974220121669,9.882967706766419
3.4281906498565378,4.31994985530173,6.4249640617721,8.582347951809835,11.887553255901564,7.685157880146925
3.4713901484095553,4.438825387860746,6.510787541290199,8.659199530611303,9.696679266311243,5.42472627394859
3.515778402288163,4.535792180523858,6.597379536596312,8.713446793350789,7.434921711430548,3.1593642575525034
3.5611363240934013,4.610141397638164,6.68451400452982,8.745040435926313,5.160452516006427,0.9441979545951735
3.607237738069783,4.661745922798228,6.771964408889083,8.754482415472266,2.9281883877069537,-1.171467736005508
3.6538551972977653,4.691027806675297,6.859509233043806,8.74276773811221,0.7868356267623671,-3.14648848236531
3.7007654753645185,4.698896162942921,6.9469369104249274,8.711302853288558,-1.223153215925825,-4.949164421270628
3.7477544369939477,4.686664630783663,7.034049938957813,8.661811209075852,-3.070649273791368,-6.557522080922055
3.7946210833017844,4.655958138045749,7.120668051048572,8.596235988266631,-4.734033290681823,-7.9587862210208336
3.8411806646822417,4.608617805138931,7.206630410931238,8.516648126056422,-6.2006827586455975,-9.148299383617779
3.887266842733631,4.546610977552476,7.291796892191802,8.425165132220245,-7.465982086290382,-10.128146837062527
3.932732952509156,4.471951156689572,7.376048543514004,8.32388366384962,-8.532067187479344,-10.905700266981805
3.977452464076052,4.386630484814779,7.4592873801525,8.214826661179801,-9.40647751399137,-11.492230184043411
4.0213187689242,4.292565709674865,7.541435646764298,8.099904359339368,-10.100840224979656,-11.901674597302005
4.064244426020949,4.191557307425069,7.622434690357692,7.980887613366347,-10.629665441031067,-12.149601539224017
4.106159999095199,4.085260653014759,7.702243566491355,7.859391597974107,-11.009294742776301,-12.2523691927266
4.147012605625347,3.9751677055869954,7.780837482471096,7.736867906046841,-11.257018808543146,-12.22646816816033
4.186764282681217,3.862597517501564,7.858206161531564,7.614603224365238,-11.390363121464109,-12.088022087921226
4.225390257856233,3.748693886286923,7.934352193775217,7.493723003486026,-11.426530729304856,-11.852420966154511
4.262877196719103,3.6344285789938744,8.009289423810078,7.375198793824481,-11.38198584104598,-11.534063635697349
4.299221482509042,3.5206087205834145,8.083041411748322,7.259858157467508,-11.2721598190278,-11.14618850702881
4.334427569714876,3.4078871223931366,8.155639993322998,7.148396272397219,-11.11126067829389,-10.700775066284816
4.368506440938807,3.2967745156101977,8.22712395604697,7.041388521734372,-10.912167808360804,-10.208501245216683
4.40147418609491,3.18765283752659,8.297537841264313,6.939303509282205,-10.686394869329426,-9.678744035424005
4.433350714470175,3.0807888888332955,8.366930876357136,6.8425160689279645,-10.444105440203485,-9.119612557004235
4.464158603358508,2.9763478344312606,8.435356037046416,6.751319943357922,-10.19416785317808,-8.538004352727551
4.493922081702821,2.87440615589948,8.502869236479995,6.665939899830646,-9.944237611897503,-7.939677063658093
4.522666143261816,2.774963779780505,8.569528635478301,6.586543129194065,-9.700857762299643,-7.329328908789934
4.550415781059621,2.677955202157509,8.635394066770242,6.513249840106166,-9.469569476361773,-6.710682560126167
4.577195333081196,2.583259507393891,8.700526565171304,6.446143014504904,-9.255026855404166,-6.086568072086697
4.603027928155135,2.490709238839849,8.764987995316353,6.385277333784037,-9.061111515088443,-5.459001476173091
4.627935020543533,2.4000981236889647,8.828840768654194,6.3306873190223065,-8.891043854115267,-4.829256473996775
4.651936001780423,2.311187685147812,8.892147641844417,6.282394754282339,-8.747489026386331,-4.197927344839741
4.675047878631901,2.223712794883949,8.95497158938724,6.240415480833941,-8.632656539765783,-3.5649817259727765
4.69728500658074,2.137386229486291,9.01737574419558,6.204765663574213,-8.548393110792912,-2.929802330361531
4.718658868875603,2.051902298378362,9.079423400831322,6.175467640270598,-8.496268935873811,-2.2912169486390397
4.739177891859387,1.966939609019624,9.141178077234029,6.152555470784208,-8.47765791835898,-1.6475162567581627
4.758847287949584,1.8821630298360343,9.202703631941871,6.136080308216626,-8.493812637032821,-0.9964590384525379
4.777668918247944,1.7972249034657062,9.264064435024038,6.126115717832101,-8.545934967504884,-0.3352644586768127
4.795641167282601,1.7117655537906573,9.325325592202358,6.122763073245332,-8.635243275257332,0.33940897524142777
4.812758822820507,1.625413121038084,9.386553222934811,6.126157162997747,-8.763036972320627,1.0314981059005237
4.829012954030889,1.5377827513148776,9.447814794564788,6.136472144056752,-8.930758927995567,1.745583696800527
4.844390781544037,1.4484751620349219,9.509179516005355,6.153927981024757,-9.140055667804397,2.4869527830193334
4.858875533164387,1.3570746053568778,9.570718795815603,6.1787975088549505,-9.392834342059555,3.261673983346783
4.8724462792179555,1.2631462619362823,9.632506770904152,6.211414248688419,-9.69131385433562,4.076683531401313
4.885077741837319,1.1662331233929262,9.694620913391036,6.252181084002432,-10.038064905887742,4.939877135675642
4.896740073071248,1.0658524743340487,9.75714272423106,6.301579855359188,-10.436029361387892,5.860198037132235
4.907398597814589,0.9614921807201698,9.820158522784652,6.36018183573051,-10.88850215725908,6.84770333434142
4.917013519621791,0.852607159147579,9.883760341141958,6.428658869073924,-11.399047106177193,7.913576330722247
4.9255395912132665,0.738616688085807,9.948046929832698,6.507794632381147,-11.971298344673981,9.070028205935277
4.932925758094124,0.6189037046390673,10.013124876156509,6.5984949144405,-12.608566815425643,10.329990871240348
4.939114795140515,0.4928180364848109,10.079109825300913,6.701794823152904,-13.313117976418264,11.706433201369451
4.944042975505363,0.3596868567206282,10.146127773532442,6.8188591551665985,-14.084900171283213,13.211017011373777
4.94763984407257,0.2188378550077961,10.214316365084107,6.950969325280337,-14.919363890688428,14.851619978297173
4.9498282226226475,0.06964421610091182,10.28382605833691,7.099485525063308,-15.803795596691414,16.627953134013303
4.950524664783656,-0.08839373986600232,10.354820913587544,7.265765056403441,-16.711272429788597,18.52405239670643
4.949640727384996,-0.25550646416388834,10.427478564151578,7.451005580370506,-17.590934538748183,20.495826934593254
4.9470856627433575,-0.43141580955137016,10.501988619955283,7.655963849716438,-18.352903015810863,22.451263647990427
4.942771504647844,-0.6149448397094788,10.578548258452447,7.880476486196343,-18.846336720751825,24.220960610718098
4.936622056250749,-0.803408206916997,10.65735302331441,8.122686092303523,-18.831169815486525,25.51920389304856
4.928587974181579,-0.9917199050718623,10.738579884237446,8.37787813123401,-17.950919617517005,25.904794292704402
4.9186707751308605,-1.1712291012470324,10.822358665549785,8.636926074161053,-15.729916777592784,24.772277340033217
4.90695848411839,-1.3285282690229603,10.908727926291396,8.884648847561385,-11.64376607691659,21.438968894939595
4.893673201428161,-1.4449659297921262,10.99757441476701,9.09903853651078,-5.325101329288577,15.412058812894653
4.87922354213024,-1.498216943085012,11.088564800132119,9.253159124639728,3.097926044266881,6.833779337426668
4.864241372699389,-1.4672376826423432,11.181096391378516,9.321496918013995,12.731101073228249,-3.1645226958313186
4.849568995872966,-1.3399266719100607,11.274311360558656,9.289851691055683,22.075518254214884,-12.686256243089312
4.836169729153865,-1.1191714893679119,11.367209877469213,9.162989128624789,29.705717683794177,-19.97421901135353
4.824978014260186,-0.8221143125299701,11.45883976875546,8.963246938511253,34.93677484787769,-24.275665640664
4.816756871134886,-0.4727465640511932,11.548472238140572,8.720490282104613,37.91343174397665,-25.92029695022188
4.812029405494374,-0.09361224661142664,11.635677140961619,8.461287312602394,39.22068054633626,-25.775162384389606
4.81109328302826,0.298594558851936,11.720290014087643,8.203535688758498,39.479061479739165,-24.707781675887663
4.814079228616779,0.6933851736493276,11.802325370975229,7.956457871999621,39.15425928589831,-23.35026865605471
4.821013080353272,1.0849277665083108,11.881889949695225,7.7229551854390746,38.5355293066893,-22.08753867728463
