th1 (rad),w1 (rad/s),th2 (rad),w2 (rad/s),a1 (rad/s^2),a2 (rad/s^2)
3.434727235970105,-2.7480621155977007,5.931531194267157,-1.035688397657752,3.95118227259988,1.9946297340127186
3.407246614814128,-2.708550292871702,5.92117431029058,-1.0157421003176248,3.772693964739198,2.2160906658318456
3.380161111885411,-2.6708233532243097,5.911016889287404,-0.9935811936593063,3.5865279453645718,2.4110698304810767
3.353452878353168,-2.634958073770664,5.901081077350811,-0.9694704953544956,3.3929253043766594,2.5803185573956156
3.3271032976154613,-2.6010288207268975,5.891386372397266,-0.9436673097805395,3.1921163859942534,2.72459328466635
3.3010930094081923,-2.569107656866955,5.881949699299461,-0.9164213769338759,2.9843128510589,2.84464644012304
3.2754019328395225,-2.539264528356366,5.872785485530122,-0.8879749125326455,2.769701789404177,2.9412194215345004
3.250009287555959,-2.5115675104623243,5.863905736404796,-0.8585627183173005,2.5484418072782318,3.015037773303819
3.2248936124513357,-2.486083092389542,5.855320109221623,-0.8284123405842623,2.3206610239610397,3.0668086359315163
3.2000327815274403,-2.4628764821499316,5.84703598581578,-0.7977442542249471,2.086456925551909,3.0972205349625175
3.175404016705941,-2.4420119128944124,5.839058543273531,-0.7667720488753219,1.8458980406476098,3.1069455752187487
3.150983897576997,-2.423552932487936,5.831390822784777,-0.7357025931231345,1.5990274204413089,3.0966441107961744
3.1267483682521173,-2.4075626582835232,5.824033796853546,-0.7047361520151727,1.345867922711473,3.0669719683645877
3.102672741669282,-2.3941039790564087,5.816986435333394,-0.6740664323315269,1.0864293131845497,3.0185903073486218
3.078731701878718,-2.383239685924563,5.810245771010079,-0.6438805292580406,0.8207172066396263,2.9521782019457583
3.0548993050194726,-2.3750325138581667,5.803806965717499,-0.6143587472385831,0.5487438714945045,2.868448022725238
3.031148979880891,-2.369545075143222,5.797663378245113,-0.5856742670113307,0.2705409129045819,2.7681636755216545
3.007453529129459,-2.366839666014176,5.791806635574999,-0.5579926302561142,-0.013826172098598818,2.652161717989587
2.983785132469317,-2.366977927735162,5.786226709272438,-0.5314710130762184,-0.3042416109894926,2.5213753148526012
2.9601153531919655,-2.3700203438450567,5.780911999141676,-0.5062572599276923,-0.6005212425869463,2.3768609069260234
2.936415149753515,-2.376025556270926,5.775849426542399,-0.48248865085843207,-0.9023928493386165,2.219827352141379
2.9126548941908057,-2.385049484764312,5.771024540033815,-0.4602903773370183,-1.2094752085263567,2.0516671456064
2.8888043993431625,-2.397144236849576,5.766421636260445,-0.43977370588095427,-1.5212562574793078,1.8739891382081975
2.864832956974667,-2.412356799424369,5.762023899201635,-0.4210338144988723,-1.8370709117572306,1.6886519496531585
2.8407093889804234,-2.430727508541941,5.757813561056646,-0.4041472950023407,-2.156079238439951,1.4977970154942393
2.8164021138950037,-2.4522883009263405,5.753772088106623,-0.3891693248473983,-2.4772458635186236,1.3038799260246745
2.7918792308857405,-2.477060759561527,5.749880394858149,-0.37613052558715154,-2.799321674228856,1.1096984202048132
2.767108623290125,-2.5050539763038153,5.746119089602278,-0.3650335413851034,-3.120829051958519,0.918415107825064
2.742058083527087,-2.5362622668234005,5.742468754188427,-0.35584939030685275,-3.440052023817967,0.7335727313746012
2.716695460858853,-2.5706627870615804,5.738910260285358,-0.34851366299310677,-3.7550328330750733,0.5590995743204014
2.690988832988237,-2.608213115392331,5.7354251236554274,-0.3429226672499027,-4.0635764807811015,0.39930250747034673
2.6649067018343136,-2.6488488802001418,5.731995896982928,-0.3389296421751993,-4.363264763375703,0.2588451744693435
2.638418213032312,-2.6924815278338987,5.728606600561176,-0.33634119043050587,-4.651481206261714,0.14270898486634565
2.611493397753973,-2.738996339896516,5.725243188656871,-0.3349141005818424,-4.925448058105122,0.05613493753226833
2.5841034343550078,-2.7882508204775673,5.721894047651053,-0.3343527512065197,-5.182276158441055,0.004544858932592377
2.556220926150232,-2.840073582061978,5.7185505201389875,-0.33430730261719377,-5.419028023960461,-0.006558581735639558
2.5278201903296122,-2.8942638623015826,5.715207447112816,-0.33437288843455015,-5.6327939277225685,0.028287268515604046
2.498877551706596,-2.9505918015788084,5.71186371822847,-0.3340900157493941,-5.820780090342017,0.11436483699926732
2.469371633690808,-3.0087996024822288,5.708522818070976,-0.3329463673794014,-5.980407389840915,0.2566196132538393
2.439283637665986,-3.068603676380638,5.705193354397181,-0.33038017124686303,-6.1094182586900345,0.4594912049360335
2.4085976009021794,-3.1296978589675386,5.701889552684713,-0.3257852591975027,-6.205988705673636,0.7267378903544159
2.377300622312504,-3.1917577460242748,5.698631700092737,-0.3185178802939585,-6.26884170959211,1.0612618165140846
2.3453830448522615,-3.2544461631201957,5.695446521289798,-0.30790526212881764,-6.297357614464612,1.4649432909699676
2.3128385832210596,-3.317419739264842,5.692367468668509,-0.29325582921911797,-6.2916766474191155,1.9384936995702968
2.2796643858284114,-3.380336505739033,5.689434910376318,-0.273870892223415,-6.252788323897233,2.481337340295918
2.245861020771021,-3.4428643889780055,5.686696201454084,-0.2490575188204558,-6.182602356204449,3.091532768226379
2.211432376881241,-3.50469041254005,5.6842056262658796,-0.218142191138192,-6.083995813570803,3.7657439549856133
2.1763854727558405,-3.5655303706757584,5.682024204354498,-0.18048475158833588,-5.960831782730894,4.49927052998818
2.1407301690490828,-3.625138688503067,5.680219356838615,-0.13549204628845407,-5.817945740954323,5.2861444612686785
2.104478782164052,-3.6833181459126103,5.67886443637573,-0.08263060167576729,-5.661097357566952,6.119297676775081
2.067645600704926,-3.7399291194882798,5.678038130358972,-0.021437624908016477,-5.496887522114838,6.9908013501579385
2.0302463095100434,-3.7948979947094283,5.677823754109892,0.0484703885935629,-5.332643020816278,7.892173052802293
1.9922973295629491,-3.848224424917591,5.678308457995827,0.12739211912158582,-5.176274312446715,8.814743058885197
1.9538150853137732,-3.899987168042058,5.6795823791870435,0.21553954971043782,-5.036115047508206,9.750066313862483
1.9148152136333527,-3.95034831851714,5.681737774684148,0.31304021284906264,-4.920754997756524,10.690362605492904
1.8753117304481812,-3.9995558684947055,5.684868176812639,0.4199438389039917,-4.838880542234448,11.628965022477132
1.8353161717632342,-4.04794467391705,5.689067615201679,0.536233489128763,-4.799138448160114,12.560756482837885
1.7948367250240638,-4.095936058398651,5.6944299500929665,0.6618410539571419,-4.8100391653273284,13.48257638600754
1.7538773644400774,-4.1440364500519244,5.701048360632538,0.7966668178172173,-4.879915190395655,14.393584399767272
1.7124369999395581,-4.192835601955881,5.70901502881071,0.9406026618148899,-5.016948461684215,15.295575793829887
1.6705086439199992,-4.243005086572723,5.718421055428859,1.093558419753189,-5.229278663936375,16.19325202747178
1.628078593054272,-4.295297873212087,5.729356639626391,1.2554909400279066,-5.525202393800152,17.094460762500443
1.5851256143221513,-4.350549897150088,5.74191154902667,1.4264355476529111,-5.913472102298389,18.010430382957207
1.5416201153506504,-4.409684618173072,5.756175904503199,1.6065398514824831,-6.403704335511149,18.95603493104565
1.4975232691689195,-4.473721661528184,5.772241303018024,1.7961002007929396,-7.006909691516272,19.950135917805166
1.4527860525536378,-4.543790758443347,5.790202305025954,1.9956015599709913,-7.736162570492939,21.016057894907203
1.4073481449692042,-4.621152384148276,5.810158320625663,2.2057621389200635,-8.607437382679475,22.182265325419195
1.3611366211277214,-4.707226757975071,5.832215942014864,2.4275847921742555,-9.64064899237591,23.483319195922903
1.3140643535479706,-4.80363324789883,5.856491789936607,2.6624179841334845,-10.860947160023041,24.961201519405684
1.2660280210689823,-4.91224271949906,5.883115969777942,2.912029999327541,-12.300322984525613,26.66709883651802
1.2169055938739917,-5.035245949344317,5.912236269771217,3.1787009876927215,-13.99957814521986,28.663716400268363
1.1665531343805484,-5.1752417307965155,5.944023279648144,3.465338151695405,-16.010656506643265,31.02811333994305
1.1148007170725833,-5.335348295862948,5.978676661165098,3.7756192850948356,-18.399173689585098,33.85480962574771
1.0614472341139538,-5.519340032758799,6.016432854016046,4.1141673813523125,-21.246539741840174,37.25828838467962
1.0062538337863658,-5.731805430177201,6.057574527829569,4.486750265199109,-24.649964002056944,41.37245634667249
0.9489357794845937,-5.97830507019777,6.10244203048156,4.900474828665834,-28.715941505880348,46.34084335708394
0.889152728782616,-6.265464485256573,6.151446778768219,5.363883262236673,-33.53642377772347,52.282341574116415
0.8264980839300502,-6.600828723033808,6.205085611390586,5.886706677977837,-39.1221434671763,59.196611390085344
0.7604897966997122,-6.992050157705571,6.263952678170364,6.47867279187869,-45.23599545994241,66.72899303832851
0.6905692951226564,-7.444410112304995,6.328739406089151,7.1459627222619755,-51.01414087193595,73.63728090708045
0.6161251939996064,-7.954551521024355,6.400199033311771,7.88233553133278,-54.22843078599118,76.7551344620294
0.5365796787893629,-8.496835828884267,6.479022388625099,8.649886875953074,-50.34371038511269,69.66937218058524
0.4516113205005202,-9.000272932735394,6.5655212573846295,9.346580597758926,-33.092119653302234,43.5356040964103
0.3616085911731663,-9.331194129268416,6.658987063362219,9.78193663872303,-0.7438096162634414,-4.088820315207106
0.26829664988048213,-9.33863222543105,6.7568064297494494,9.741048435570958,34.499681317114714,-56.0257133158798
0.17491032762617162,-8.993635412259904,6.854216914105159,9.18079130241216,54.653349711122786,-86.92722933599488
0.08497397350357258,-8.447101915148675,6.94602482712928,8.311519009052212,56.8172508918281,-92.59832503747363
0.0005029543520858326,-7.878929406230394,7.029140017219802,7.3855357586774755,49.87054432902034,-85.40237902659918
-0.0782863397102181,-7.38022396294019,7.102995374806577,6.5315119684114835,40.89253062266129,-75.24558516689777
-0.15208857933962,-6.971298656713577,7.168310494490692,5.779056116742506,32.656388628523764,-66.03815201661955
-0.22180156590675576,-6.6447347704283395,7.226101055658117,5.1186745965763105,25.77973799410725,-58.67602300636886
-0.28824891361103916,-6.386937390487267,7.2772878016238804,4.531914366512622,20.177901471363153,-53.06259160277001
-0.35211828751591184,-6.185158375773636,7.322606945289007,4.001288450484921,15.61400533173907,-48.875823717334825
-0.4139698712736482,-6.029018322456245,7.362619829793855,3.512530213311573,11.862919626987077,-45.798010937036345
-0.4742600544982106,-5.910389126186374,7.397745131926971,3.0545501039412093,8.747252504438627,-43.567003897917694
-0.5333639457600744,-5.822916601141987,7.428290632966383,2.6188800649620325,6.136578192895911,-41.97591933196851
-0.5915931117714943,-5.761550819213028,7.454479433616004,2.1991208716423474,3.9384429081848626,-40.861311583943355
-0.6492086199636246,-5.7221663901311794,7.476470642332427,1.7905077558029139,2.0892112847357605,-40.09131699372857
-0.7064302838649363,-5.701274277283821,7.494375719890456,1.3895945858656282,0.5465169101245597,-39.55648817423464
-0.7634430266377745,-5.6958091081825755,7.508271665749112,0.9940297041232818,-0.7166991486580546,-39.16350563817581
-0.8204011177196002,-5.702976099669156,7.518211962790345,0.6023946477415236,-1.71695938251121,-38.831337578643456
-0.8774308787162918,-5.720145693494268,7.524235909267761,0.21408127195508908,-2.4641983374277756,-38.48933453026085
-0.9346323356512345,-5.744787676868546,7.526376721987312,-0.1708120733475194,-2.9651235457417524,-38.07676913999297
-0.99208021241992,-5.774438912325963,7.524668601253836,-0.5515797647474492,-3.226083774547795,-37.54334816857324
-1.0498246015431796,-5.8066997500714415,7.519152803606362,-0.9270132464331815,-3.255425946065174,-36.85022361813269
-1.107891599043894,-5.839254009532093,7.50988267114203,-1.2955154826145083,-3.0652518356910905,-35.97103601929625
-1.166284139139215,-5.869906527889004,7.496927516315885,-1.6552258428074709,-2.672468388635602,-34.89256467618467
-1.224983204418105,-5.89663121177536,7.48037525788781,-2.0041514895693178,-2.0990622210921823,-33.614656214793285
-1.2839495165358588,-5.917621833986282,7.460333742992117,-2.3402980517172507,-1.371608540112454,-32.14925342250518
-1.3431257348757215,-5.931337919387407,7.436930762474945,-2.6617905859423026,-0.5201244235656276,-30.518528337984826
-1.4024391140695955,-5.936539163623063,7.410312856615522,-2.966975869322151,0.42353304461520463,-28.752298735646175
-1.4618045057058262,-5.932303833176912,7.3806430979223006,-3.2544988566786124,1.4274680924308076,-26.885035700475655
-1.5211275440375953,-5.918029152252603,7.348098109355514,-3.523349213683369,2.4614859015783517,-24.952825000803106
-1.5803078355601214,-5.89341429323682,7.312864617218681,-3.7728774636913998,3.4985522217648852,-22.990621513884513
-1.6392419784924896,-5.858428771019171,7.275135842581767,-4.002783678830244,4.515830380965169,-21.030050809528674
-1.6978262662026813,-5.813270467209519,7.235108005793465,-4.213084186925531,5.495240025261067,-19.097895197600366
-1.7559589708747765,-5.7583180669569085,7.192977163924209,-4.404063138901535,6.423559569179703,-17.21528476561802
-1.8135421515443455,-5.694082471265111,7.148936532535194,-4.576215986557715,7.292149488432471,-15.39752092303729
-1.8704829762569966,-5.621160976380787,7.103174372669616,-4.7301911957880876,8.096401934934768,-13.65440220414716
-1.9266945860208045,-5.540196957031439,7.055872460711735,-4.866735217829559,8.835026708005888,-11.990899580338466
-1.9820965555911187,-5.45184668995138,7.00720510853344,-4.986644213632943,9.509271440386168,-10.408033790527975
-2.0366150224906328,-5.356753975547519,6.957338666397111,-5.090724551538223,10.122152866141397,-8.903829776266926
-2.090182562246108,-5.255532446886105,6.906431420881729,-5.179762849300892,10.677752825774913,-7.474253379742617
-2.142737886714969,-5.148754918628356,6.85463379238872,-5.254505383098318,11.180611589966466,-6.114065721647573
-2.1942254359012523,-5.036948802728691,6.802088738557736,-5.315646040314794,11.635234294481172,-4.817556797179046
-2.244594923928539,-4.920596459783879,6.748932278154588,-5.363821608286584,12.045714240223434,-3.5791400375923104
-2.293800888526378,-4.800139317381645,6.6952940620717225,-5.399613008662508,12.415468965937677,-2.3938038643323885
-2.341802281700194,-4.6759846277222685,6.641297931985098,-5.423551047305831,12.747080333956411,-1.257425562284654
-2.388562127977417,-4.548513824382704,6.587062421512039,-5.436125302928677,13.042227311862831,-0.16695842050851692
-2.434047266221244,-4.418091551264076,6.5327011684827525,-5.437794887133762,13.301698786471547,0.8794937092323385
-2.4782281817338845,-4.28507456339936,6.478323219611415,-5.4289999500414385,13.525472981878785,1.8826985011501276
-2.521078927367878,-4.149819833580572,6.424033220111,-5.410172965029937,13.712849521702962,2.8423969169307335
-2.562577125703684,-4.012691338363542,6.369931490460701,-5.3817489958606295,13.862619768505166,3.7574670188080446
-2.6027040390873193,-3.87406514067849,6.316114000502094,-5.344174325672549,13.973260855287146,4.6261318637535185
-2.641444690494104,-3.7343325321256184,6.262672257245368,-5.297913007035014,14.043138954611962,5.446193533593681
-2.67878801581536,-3.5939011425794987,6.209693127175019,-5.243451071699077,14.07070798843418,6.215275911746447
-2.714727027241155,-3.453194062695157,6.157258616458028,-5.181298312581613,14.054691297114974,6.931060053984996
-2.7492589678681068,-3.312647149724007,6.105445633332212,-5.111987712041763,13.994235796796842,7.591497996211561
-2.782385439365347,-3.1727047917560385,6.054325756211794,-5.0360727320796475,13.889030783198116,8.194993563030895
-2.814112487282907,-3.0338144839240573,6.003965028890997,-4.954122796449338,13.739386601090342,8.740542033120562
-2.8444506321221477,-2.896420617913154,5.954423800926504,-4.866717376118133,13.546271627239534,9.227824127392761
-2.8734148383012794,-2.760957901640759,5.905756627165323,-4.774439134844205,13.311309111777806,9.65725340259912
-2.901024417317687,-2.627844810522981,5.85801223581688,-4.677866600818214,13.036738107081302,10.029979440541286
-2.927302865422917,-2.497477429452168,5.8112335698086985,-4.577566806412801,12.725344763933363,10.347851951925117
-2.9522776397174386,-2.3702239818128343,5.76545790174457,-4.474088286893549,12.380371562872028,10.613352879495293
-2.9759798795355668,-2.246420266184114,5.720717018875635,-4.3679547580985965,12.005412546736922,10.829504707160673
-2.998444082197408,-2.126366140716745,5.677037471294649,-4.259659711026989,11.604302394734654,10.99976348375331
-3.0197077436045756,-2.0103231167693982,5.634440874184379,-4.149662076189457,11.181006366201562,11.127904661087445
-3.0398109747722697,-1.8985130531073826,5.592944253422484,-4.038383029578582,10.739516922128493,11.217908892683356
-3.0587961053033434,-1.7911178838860977,5.552560423126698,-3.926203940651748,10.283761393217898,11.273853633882293
-3.0767072841422043,-1.6882802699539188,5.513298383720181,-3.8134654043129252,9.817523577953214,11.29981491442365
-3.0935900868417434,-1.5901050341743868,5.4751637296770514,-3.7004672551686886,9.344380762657059,11.299782183598737
-3.1094911371834875,-1.496661226547816,5.438159057125365,-3.5874694333327013,8.86765645541423,11.27758777993939
-3.1244577494489656,-1.4079846619936738,5.402284362792038,-3.4746935555333076,8.39038817177469,11.236851433154701
-3.138537596068902,-1.324080780275927,5.367537427236705,-3.3623250412017605,7.915308919355413,11.180939306269657
-3.1517784038716616,-1.2449276910823728,5.333914176824687,-3.250515648139064,7.444840588698768,11.112936437608923
-3.1642276807824854,-1.1704792851953851,5.301409020343296,-3.1393862837629745,6.9810972373985924,11.035631027775652
-3.175932473634439,-1.1006683128213992,5.270015157505667,-3.0290299734852177,6.525896211511382,10.951508803026796
-3.1869391567626533,-1.0354093507062854,5.239724857770815,-2.9195148854549497,6.080775137548816,10.862755632989483
-3.1972932502697162,-0.9746015993307973,5.210529708916265,-2.810887329125055,5.647012997143253,10.77126664588596
-3.207039266263024,-0.9181314693593647,5.182420835625015,-2.7031746626661954,5.225653727685201,10.678660229864498
-3.216220580956618,-0.8658749320825128,5.155389088998353,-2.5963880603675507,4.817531045979842,10.58629550181313
-3.224879330277443,-0.8176996216227144,5.129425208394678,-2.4905251053494193,4.423293445919739,10.495292038977274
-3.23305632649367,-0.773466687163517,5.104519957341184,-2.3855721849596465,4.04342855994591,10.406550884312862
-3.240790993365305,-0.7330324015640579,5.080664235491588,-2.2815066761165177,3.6782862882120764,10.320776040339746
-3.248121317380946,-0.6962495386819372,5.057849168730423,-2.1782989157131203,3.328100284104816,10.238495849954518
-3.255083812767765,-0.662968535840889,5.036066179573291,-2.075913957213575,2.993007538801942,10.160083821860768
-3.261713498126174,-0.6330384604528696,5.015307040001155,-1.9743131189949672,2.6730659319469963,10.085778591583479
-3.268043882730703,-0.6063078011333997,4.995563908811206,-1.8734553330791324,2.368269712838091,10.01570281711702
-3.2741069607420368,-0.5826251040050188,4.976829355480414,-1.7732983049079623,2.0785629501182616,9.949880893081948
-3.2799332117820867,-0.5618394745038362,4.959096372431334,-1.6737994959771427,1.8038510414379985,9.888255431539
-3.2855516065271253,-0.5438009640894562,4.942358377471563,-1.5749169416617528,1.544010411501967,9.830702504341962
-3.29098961616802,-0.5283608599744365,4.926609208054946,-1.476609916618333,1.2988965505981873,9.777045674137463
-3.296273224767764,-0.5153718944684547,4.911843108888762,-1.3788394598769584,1.068350559035046,9.727068861703275
-3.301426943712449,-0.5046883888781042,4.898054714289993,-1.2815687712599257,0.8522043683388439,9.680528108845637
