th1 (rad),w1 (rad/s),th2 (rad),w2 (rad/s),a1 (rad/s^2),a2 (rad/s^2)
0.13183200028502556,-1.22200603758375,0.6543355728724907,-1.7775482315985178,3.8548945549193134,-10.050373559115124
0.11961193990918806,-1.1834570920345568,0.6365600905565055,-1.8780519671896692,4.075001419066344,-10.060171643952822
0.10777736898884249,-1.1427070778438935,0.6177795708846089,-1.9786536836291975,4.290735904601314,-10.058586304802
0.09635029821040356,-1.0997997187978803,0.5979930340483169,-2.0792395466772176,4.500224068875491,-10.044657424932135
0.08535230102242475,-1.0547974781091254,0.5772006385815448,-2.179686120926539,4.7012399160421845,-10.017059017657777
0.0748043262413335,-1.0077850789487035,0.5554037773722794,-2.2798567111031165,4.89116181907305,-9.97402504510904
0.06472647545184647,-0.958873460757973,0.5326052102612483,-2.3795969615542067,5.066925005057111,-9.913266702268698
0.05513774084426674,-0.9082042107074019,0.5088092406457062,-2.4787296285768936,5.22497209406738,-9.831883545702102
0.046055698737192716,-0.855954489766728,0.4840219443599373,-2.577048464033915,5.36120522826259,-9.726272895588453
0.03749615383952543,-0.8023424374841022,0.45825145971959813,-2.6743111929897996,5.470945474907588,-9.592044811315166
0.029472729464684412,-0.7476329827350263,0.43150834778970015,-2.770231641102951,5.548908022706375,-9.423953771665683
0.02199639963733415,-0.6921439025079625,0.40380603137867066,-2.864471178819608,5.589205215543089,-9.215863006423872
0.015074960612254525,-0.6362518503525316,0.3751613195904746,-2.9566298088838465,5.5853935004946385,-8.960763016051953
0.008712442108729209,-0.5803979153475852,0.3455950215016361,-3.046237439044366,5.530584411760316,-8.650871549038888
0.002908462955253356,-0.525092071229982,0.3151326471111925,-3.132746154534755,5.417642794476571,-8.277846905235677
-0.0023424577570464646,-0.4709156432852163,0.28380518556584494,-3.2155246235871116,5.23949599100393,-7.833147763037625
-0.0070516141898986275,-0.418520683375177,0.2516499393299738,-3.2938561012174876,4.989573404833323,-7.308567733654928
-0.011236821023650399,-0.36862494932684375,0.21871137831779894,-3.366941778554037,4.662384046627341,-6.696957865710231
-0.014923070516918836,-0.3220011088605703,0.18504196053225858,-3.4339113572111395,4.254217997803407,-5.993122069744074
-0.01814308160552454,-0.27945892888253626,0.15070284696014719,-3.4938425779085804,3.7639255411996886,-5.194827844037677
-0.0209376708943499,-0.24181967347053937,0.11576442118106138,-3.5457908563489573,3.193687931552372,-4.303821495755489
-0.023355867629055296,-0.20988279415501565,0.08030651261757181,-3.5888290713065123,2.5496546459333076,-3.326684172101563
-0.02545469557060545,-0.18438624769568257,0.044418221904506686,-3.622095913027528,1.8422972341257107,-2.275330885841668
-0.027298558047562278,-0.16596327535442545,0.008197262774231405,-3.644849221885945,1.0863360004196563,-1.166961466291043
-0.028958190801106534,-0.15509991535022888,-0.028251229444628045,-3.6565188365488552,0.3001450853631017,-0.02333679572195284
-0.03050918995460882,-0.15209846449659786,-0.0648164178101166,-3.6567522045060747,-0.49536624231288817,1.1306244808147672
-0.0320301745995748,-0.15705212691972675,-0.10138393985517735,-3.645445959697927,-1.278282077962539,2.268779738146242
-0.03360069586877207,-0.16983494769935215,-0.13783839945215662,-3.6227581623164644,-2.0273990471696175,3.365938767538973
-0.03529904534576559,-0.19010893817104832,-0.17406598107532126,-3.5890987746410747,-2.7238611716486476,4.399922112002462
-0.037200134727476075,-0.2173475498875348,-0.209956968821732,-3.5450995535210503,-3.35245193129596,5.353164459449333
-0.03937361022635142,-0.25087206920049443,-0.2454079643569425,-3.491567908926557,-3.902369254812173,6.21363979274589
-0.041882330918356366,-0.28989576174861614,-0.2803236434462081,-3.4294315109990983,-4.367430544013539,6.975046697313709
-0.044781288535842526,-0.33357006718875154,-0.31461795855619906,-3.3596810440259612,-4.745771848704576,7.63634630925056
-0.04811698920773004,-0.3810277856757973,-0.34821476899645865,-3.283317580933456,-5.039184666433432,8.200847773487757
-0.05192726706448801,-0.43141963234013164,-0.3810479448057932,-3.2013091031985783,-5.252262273021294,8.675069989731508
-0.05624146338788933,-0.4839422550703446,-0.413061035837779,-3.114558403301263,-5.391511659321636,9.067583800103629
-0.061080885938592774,-0.537857371663561,-0.44420661987079163,-3.023882565300227,-5.464545054697095,9.387980366672204
-0.06645945965522838,-0.592502822210532,-0.4744454455237939,-2.930002761633505,-5.4794157946986894,9.646045047239292
-0.0723844878773337,-0.6472969801575189,-0.503745473140129,-2.8335423111611124,-5.444120572568012,9.851159557383303
-0.0788574576789089,-0.701738185883199,-0.53208089625174,-2.7350307155872793,-5.3662602075086125,10.011916551383694
-0.08587483953774089,-0.7554007879582851,-0.5594312034076129,-2.634911550073442,-5.252834437028647,10.135910109916304
-0.09342884741732374,-0.8079291323285716,-0.5857803189083473,-2.533552448974279,-5.110140157728552,10.229658973901147
-0.10150813874060946,-0.859030533905857,-0.61111584339809,-2.4312558592352675,-4.94374331686303,10.298621597503725
-0.11009844407966803,-0.9084679670744873,-0.6354284019904427,-2.32826964326023,-4.75849902323816,10.347268776513193
-0.1191831237504129,-0.9560529573068689,-0.658711098423045,-2.224796955495098,-4.558600061132081,10.379187641766418
-0.1287436533234816,-1.0016389579181897,-0.680959067977996,-2.1210050790774337,-4.347639456398035,10.397198389315724
-0.13876004290266347,-1.0451153524821701,-0.7021691187687703,-2.0170330951842765,-4.12867738496038,10.40347142384479
-0.14921119642748518,-1.086402126331774,-0.722339449720613,-1.9129983809458286,-3.904306322940769,10.39963740898985
-0.1600752176908029,-1.1254451895611817,-0.7414694335300713,-1.80900200685593,-3.6767109631123773,10.386886163780167
-0.1713296695864147,-1.1622122991923054,-0.7595594535986306,-1.7051331452181284,-3.4477212250597096,10.36605266842724
-0.18295179257833777,-1.1966895114429026,-0.7766107850508119,-1.601472618533856,-3.218857854892744,10.33768991883349
-0.1949186876927668,-1.2288780899918301,-0.7926255112361505,-1.498095719345521,-2.991370818511396,10.302129241430078
-0.2072074685926851,-1.258791798176944,-0.8076064684296057,-1.3950744269312203,-2.766271082864311,10.259529143656478
-0.21979538657445455,-1.2864545090055872,-0.8215572126989179,-1.2924791354946554,-2.544356561200901,10.209913976486051
-0.23265993166451043,-1.3118980746175963,-0.8344820040538644,-1.190379995729795,-2.3262330498365347,10.153203727417655
-0.2457789124106864,-1.3351604051159618,-0.8463858040111624,-1.0888479584556183,-2.112330960365936,10.08923621574306
-0.259130516461846,-1.3562837147196212,-0.8572742835957186,-0.9879555962981877,-1.9029185895732037,10.017782872855783
-0.2726933536090422,-1.3753129006153533,-0.8671538395587004,-0.8877777675696299,-1.6981125936903105,9.93855918812174
-0.28644648261519573,-1.3922940265522563,-0.8760316172343967,-0.7883921756884125,-1.4978862595060025,9.851230803221025
-0.3003694228807183,-1.4072728891473163,-0.8839155389912808,-0.6898798676562022,-1.3020761015607079,9.75541615533124
-0.3144421517721914,-1.4202936501629233,-0.8908143376678429,-0.5923257061028898,-1.1103872678255131,9.650686507823536
-0.32864508827382066,-1.4313975228411784,-0.8967375947288718,-0.49581884102465446,-0.9223982088371766,9.536564169121739
-0.34295906350223243,-1.44062150492955,-0.9016957831391184,-0.40045319933343704,-0.7375650584591585,9.412519686938545
-0.35736527855152794,-1.4479971555141418,-0.9057003151324527,-0.30632800246405156,-0.5552261880767211,9.27796881564557
-0.37184525010666936,-1.453549417394909,-0.9087635951570933,-0.21354831430759585,-0.37460742857345497,9.132270086913241
-0.38638074428061847,-1.4572954916806435,-0.9108990783001693,-0.12222561343846344,-0.19482850274909203,8.974723863896907
-0.4009536991974249,-1.4592437767081345,-0.9121213344345539,-0.03247837479949438,-0.014911269747698436,8.804573820449958
-0.41554613696450626,-1.4593928894056116,-0.9124461181825488,0.055567363405005205,0.1662095552867094,8.621011848880277
-0.4301400658585624,-1.4577307938527446,-0.9118904445484988,0.14177748189380798,0.3496724899796229,8.423187447855035
-0.44471737379708987,-1.4542340689529485,-0.9104726697295606,0.22600935637235833,0.5366714362754379,8.210222655963317
-0.45925971448661934,-1.448867354590194,-0.9082125761658371,0.3081115829319915,0.7284331634087114,7.981233549964498
-0.4737483880325213,-1.4415830229561069,-0.9051314603365171,0.3879239184316365,0.9261894727650695,7.735359188071698
-0.48816421826208234,-1.4323211282284563,-0.9012522211522008,0.4652775103123535,1.1311435713424842,7.471798612131624
-0.5024874295443669,-1.4210096925150315,-0.8965994460490773,0.5399954964336697,1.3444304781708212,7.1898560927749395
-0.5166975264695172,-1.4075653877333234,-0.8911994910847406,0.6118940573614191,1.5670717293928642,6.888994179812654
-0.5307731803468504,-1.3918946704393949,-0.8850805505111264,0.6807839991595457,1.7999252433546362,6.568893294046115
-0.5446921270512444,-1.3738954180058485,-0.8782727105195309,0.7464729321000069,2.0436319470186612,6.229515582525429
-0.5584310812313028,-1.3534590985356618,-0.8708079811985309,0.8087680879252611,2.2985616091352896,5.871169615039723
-0.5719656722166594,-1.330473482444309,-0.8627203003192783,0.8674797840756583,2.564761195490541,5.494571335501808
-0.5852704070411024,-1.3048258704894036,-0.8540455024785217,0.9224254974306764,2.841909837518587,5.100895664147409
-0.5983186657459965,-1.2764067721142176,-0.844821247504215,0.9734344540721505,3.129285032672393,4.691812488347313
-0.6110827334671386,-1.2451139217874936,-0.8350869029634934,1.0203525789556236,3.425744801555703,4.269500715125092
-0.6235338726850135,-1.2108564737719365,-0.8248833771739372,1.0630475861068744,3.7297300569726395,3.8366347962235148
-0.6356424374227329,-1.1735591732022101,-0.8142529013128685,1.1014139340691096,4.039290296335367,3.3963398016132262
-0.647378029154755,-1.1331662702388565,-0.8032387619721775,1.1353773320852418,4.35213391693736,2.952113689337069
-0.6587096918571436,-1.089644931069483,-0.7918849886513251,1.1648984689786126,4.665702114473236,2.50771868978827
-0.6696061411678383,-1.0429879099247505,-0.7802360039615389,1.1899756558764953,4.977262740042432,2.0670472895614256
-0.6800360202670859,-0.9932152825243262,-0.768336247402774,1.2106461287721095,5.284018047501815,1.633971619229789
-0.6899681730923292,-0.9403751020493081,-0.7562297861150529,1.2269858449644073,5.583218384040949,1.2121875349425562
-0.6993719241128222,-0.8845429182088986,-0.7439599276654087,1.239107720313833,5.87227292413174,0.8050658425042149
-0.7082173532949112,-0.8258201889675812,-0.7315688504622704,1.2471583787388751,6.148848729022151,0.41552267243254826
-0.716475555184587,-0.7643317016773598,-0.7190972666748816,1.2513136054632006,6.41095072599603,0.04591900461152402
-0.7241188722013606,-0.7002221944173994,-0.7065841306202496,1.2517727955093159,6.656977420647059,-0.3020039047501873
-0.7311210941455346,-0.6336524202109288,-0.6940664026651564,1.248752756461814,6.88574989300242,-0.6271503631642935
-0.7374576183476439,-0.5647949212809046,-0.6815788751005383,1.242481252830171,7.096514425215042,-0.9290584653950049
-0.743105567560453,-0.4938297770287542,-0.6691540625722365,1.233190668176221,7.28892154031852,-1.2078551962559052
-0.7480438653307405,-0.420940561625569,-0.6568221558904743,1.221112116213662,7.462985993962884,-1.4641853031335976
-0.7522532709469962,-0.34631070168594014,-0.6446110347283377,1.206470263182326,7.619033213746216,-1.6991220569433223
-0.7557163779638556,-0.27012036954847796,-0.6325463320965145,1.189479042612893,7.757637844628325,-1.9140681281576117
-0.7584175816593404,-0.1925439911021947,-0.6206515416703855,1.1703383613313167,7.879559577531518,-2.1106540091045343
-0.7603430215703623,-0.11374839532687951,-0.6089481580570724,1.1492318212402715,7.985680521679526,-2.290640021705971
-0.7614805055236311,-0.033891590110084246,-0.5974558398446697,1.1263254210232116,8.076947250876106,-2.455826279452526
-0.7618194214247319,0.04687788239867682,-0.5861925856344375,1.1017671582286863,8.15431950102986,-2.6079732952847063
-0.7613506426007451,0.12842107740897543,-0.5751749140521507,1.0756874252758393,8.218726459367756,-2.7487344372637397
-0.7600664318266553,0.210608342002653,-0.5644180397993923,1.048200080903202,8.271030745765934,-2.879600242044324
-0.7579603484066288,0.29331864946031233,-0.5539360389903603,1.0194040784827587,8.311999573762764,-3.001853740558809
-0.7550271619120257,0.37643864519793996,-0.5437419982055327,0.9893855410771706,8.342282186406173,-3.1165354170393593
-0.7512627754600463,0.4598614670620017,-0.533848142794761,0.958220186906777,8.362392461174723,-3.224416166662775
-0.7466641607894262,0.543485391673749,-0.5242659409256932,0.9259760252401492,8.372695530363567,-3.325976581186854
-0.7412293068726887,0.6272123469773847,-0.5150061806732917,0.8927162594282807,8.373397329928872,-3.421391019020819
-0.7349571834029149,0.7109463202766735,-0.5060790180790089,0.8585023492380726,8.364536137759895,-3.510515157872965
-0.7278477202001482,0.7945916816542724,-0.4974939945866282,0.8233971976593429,8.34597536682556,-3.5928760482844186
-0.7199018033836054,0.878051435322528,-0.48926002261003476,0.7874684371764987,8.31739712341509,-3.667664061492311
-0.7111212890303802,0.961225406556679,-0.4813853382382698,0.7507917965615756,8.278296317207777,-3.7337265427266946
-0.7015090349648134,1.0440083697287568,-0.47387742027265406,0.7134545311343087,8.227975415354598,-3.7895634369558966
-0.6910689512675259,1.1262881238823028,-0.46674287496131095,0.6755588967647497,8.165540267542497,-3.8333256484020968
-0.6798060700287029,1.2079435265577279,-0.45998728599366345,0.6372256402807287,8.089897793738633,-3.862817427963461
-0.6677266347631255,1.2888425044951142,-0.45361502959085614,0.5985974660010941,7.999756718172038,-3.8755046488233607
-0.6548382097181744,1.3688400716768345,-0.4476290549308452,0.5598424195128605,7.893632941661629,-3.8685314133689666
-0.6411498090014061,1.4477764010934508,-0.4420306307357166,0.5211571053791708,7.769861546691971,-3.8387479989485715
-0.6266720449904716,1.5254750165603705,-0.43681905968192486,0.4827696253896851,7.62661778498994,-3.7827536348317605
-0.6114172948248678,1.60174119441027,-0.431991363428028,0.4449420890413675,7.461949642557218,-3.6969579140450346
-0.5953998828807652,1.6763606908358422,-0.42754194253761435,0.40797250990091716,7.273824623553997,-3.577664650838833
-0.5786362759724067,1.749098937071382,-0.4234622174386052,0.3721958633925288,7.0601931295405045,-3.421181532395806
-0.5611452866016929,1.819700868366787,-0.4197402588046799,0.33798404806857074,6.819070106848553,-3.223957796206805
-0.542948277918025,1.8878915694352725,-0.41636041832399423,0.3057444701065027,6.548635369955179,-2.9827502154251895
-0.5240693622236723,1.9533779231348243,-0.4133029736229292,0.2759169679522508,6.247351099505397,-2.6948147752413862
-0.504535582992324,2.0158514341298783,-0.4105438039434067,0.24896882019983693,5.914092463519364,-2.3581175835826707
-0.48437706865102526,2.074992358765072,-0.4080541157414084,0.22538764436401024,5.548284264104442,-1.971553996525993
-0.46362714506337455,2.1304752014061163,-0.40580023929776826,0.2056721043987503,5.150033303402336,-1.5351601467660618
-0.44232239304931337,2.1819755344401397,-0.40374351825378074,0.19032050293108968,4.7202433315519094,-1.050296838244504
-0.420502637704912,2.2291779677556587,-0.40184031322446984,0.17981753454864463,4.2606976920662625,-0.5197831507079013
-0.3982108580273554,2.2717849446763214,-0.4000421378789834,0.17461970304156563,3.774094868699208,0.05204280671510335
-0.3754930085805922,2.3095258933633134,-0.39829594084856773,0.17514013110871665,3.264024664007185,0.6593548529482687
-0.3523977496469591,2.342166140003385,-0.3965445395374806,0.18173367963819934,2.734877914950211,1.2949726321073478
-0.32897608824692526,2.3695149191528873,-0.39472720274109857,0.1946834059592728,2.191690093650349,1.9505986562981792
-0.3052809390553964,2.391431820089391,-0.39278036868150584,0.2141893925222546,1.6399278075521402,2.6171457955644866
-0.2813666208545025,2.4078310981649125,-0.39063847475628327,0.24036085047789948,1.0852355350039926,3.28513001431296
-0.25728830987285334,2.4186834535149524,-0.3882348662515043,0.2732121506210291,0.5331661740584186,3.9450936012620796
-0.2331014753377038,2.4240151152555365,-0.385502744745294,0.3126630866336499,-0.011078278663971514,4.588019651917688
-0.20886132418514844,2.4239043324688967,-0.3823761138789575,0.3585432831528268,-0.5428710365812149,5.205700177091309
-0.18462228086045948,2.4184756221030845,-0.3787906810474292,0.4106002849237399,-1.058330239992158,5.791027554070074
-0.16043752463942865,2.407892319703163,-0.3746846781981918,0.4685105604644406,-1.554422482800357,6.338190434989115
-0.13635860144239703,2.3923480948751594,-0.3699995725935474,0.5318924648143317,-2.028997498495473,6.842768224371745
-0.11243512049364543,2.372058119890205,-0.36468064794540406,0.6003201470580491,-2.4807595371274576,7.301730313176185
-0.08871453929474338,2.3472505245189303,-0.3586774464748236,0.673337450189811,-2.909187070681689,7.713355466682985
-0.06524203404955407,2.3181586538121133,-0.3519440719729255,0.7504710048566408,-3.3144158493537677,8.077092111994439
-0.04206044751143294,2.285014495318576,-0.3444393619243591,0.8312419259765852,-3.6971010287940453,8.393381738303372
-0.01921030255824718,2.2480434850306352,-0.33612694266459325,0.9151757433596189,-4.058272634246936,8.66346592855324
0.003270132292059174,2.207460758688166,-0.32697518523099706,1.0018104026451513,-4.399195804611,8.88919378122825
0.02534473987894083,2.1634688006420557,-0.3169570812045455,1.0907023404574339,-4.721243859325344,9.072841786681892
0.046979427885361386,2.1162563620488024,-0.3060500577999712,1.1814307583242527,-5.025788892228523,9.2169535218897
0.0681419915058494,2.065998473126517,-0.29423575021672865,1.2736002935431496,-5.3141117352295755,9.324202439523468
0.08880197623711458,2.0128573557742215,-0.2814997472812972,1.3668423179383844,-5.587330949268076,9.397277861235922
0.1089305497948568,1.9569840462815407,-0.26783132410191335,1.4608150965507436,-5.846349019847737,9.438792105450458
0.1285003902576722,1.8985205560830634,-0.2532231731364059,1.5552030176052483,-6.091813081969808,9.451205393046976
0.14748559581850285,1.8376024252633654,-0.23767114296035344,1.649715071535718,-6.324087147548452,9.436764609076535
0.1658616200711365,1.7743615537878807,-0.22117399224499626,1.7440827176264835,-6.543232822979715,9.397451967538222
0.18360523560901532,1.7089292255580837,-0.20373316506873143,1.8380572373018658,-6.748995769571888,9.334939963561013
0.20069452786459616,1.6414392678623648,-0.18535259269571278,1.9314066369374758,-6.940795589938712,9.250549578082063
0.2171089205432198,1.5720313119629776,-0.16603852632633803,2.0239121327182965,-7.117717367887863,9.145209445777525
0.23282923366284958,1.500854138284099,-0.14579940499915506,2.1153642271760718,-7.278503727730904,9.019414573157468
0.24783777504569057,1.4280691010067899,-0.12464576272739433,2.2055583729076464,-7.42154701708211,8.873184203452654
0.26211846605575845,1.3538536308359688,-0.10259017899831786,2.294290214942173,-7.544882079714782,8.70601959971341
0.27565700236411816,1.278404810038821,-0.07964727684889614,2.3813504109393073,-7.646181106580464,8.516863905854395
0.28844105046450635,1.2019429989730164,-0.05583377273950306,2.466519049997851,-7.722753266707459,8.304067896995166
0.3004604804542365,1.1247154663059418,-0.03116858223952455,2.549559728967803,-7.771553240121827,8.065367374005804
0.31170763511729593,1.0469999339047236,-0.00567298494984652,2.6302134027078607,-7.7892043746314314,7.797880167424974
0.3221776344563432,0.9691078901584093,0.020629149077232088,2.7081922043821103,-7.772043864329896,7.498133068019045
0.3318687133579273,0.8913874515151103,0.04771107112105319,2.783173535062301,-7.7161988799023336,7.162131212322685
0.34078258787307836,0.814225462716087,0.0755428064716762,2.8547948471855276,-7.617703587241251,6.785484016822342
