th1 (rad),w1 (rad/s),th2 (rad),w2 (rad/s),a1 (rad/s^2),a2 (rad/s^2)
2.642643416891627,-2.0756763581953273,4.058275964859376,-1.905508536738803,-3.205976285504037,4.015947586226274
2.621886653309674,-2.1077361210503676,4.039220879491988,-1.8653490608765402,-3.437835899288742,3.79730124787773
2.60080929209917,-2.1421144800432548,4.020567388883222,-1.8273760483977628,-3.662411148948931,3.5614841009827978
2.5793881472987374,-2.178738591532744,4.0022936283992445,-1.7917612073879348,-3.8799532236956797,3.3079724110459554
2.55760076138341,-2.217538123769701,3.984376016325365,-1.7586814832774753,-4.090730926091063,3.0362333833990163
2.535425380145713,-2.2584454330306114,3.9667892014925905,-1.728319149443485,-4.29502686252472,2.745728093027384
2.512840925815407,-2.3013957016558586,3.9495060099981556,-1.7008618685132113,-4.493132928840255,2.4359141482890885
2.4898269687988486,-2.346327030944261,3.9324973913130234,-1.6765027270303203,-4.685344987176272,2.1062481987816164
2.466363698489406,-2.3931804808160235,3.91573236404272,-1.655440245042504,-4.871956630066909,1.756188422341472
2.442431893681246,-2.4419000471166927,3.899177961592295,-1.6378783608190894,-5.053251927931596,1.3851971529934102
2.418012893210079,-2.4924325663960087,3.8827991779841042,-1.6240263892891553,-5.229497056271772,0.9927438402545429
2.3930885675461187,-2.5447275369587263,3.866558914091213,-1.61409895088661,-5.400930699244344,0.578308560021121
2.3676412921765313,-2.59873684395117,3.850417924582347,-1.6083158652863987,-5.567753126956532,0.14138632760720335
2.3416539237370197,-2.6544143752207354,3.834334765929483,-1.6069020020103266,-5.730113845127261,-0.31850750656248006
2.3151097799848124,-2.711715513672008,3.81826574590938,-1.6100870770759514,-5.888097718183826,-0.8018304697414749
2.2879926248480924,-2.7705964908538463,3.80216487513862,-1.6181053817733662,-6.041709471157394,-1.3090044539062229
2.260286659939554,-2.83101358556542,3.7859838213208863,-1.6311954263124284,-6.190856482962733,-1.8404051222025115
2.2319765240839,-2.8929221503950475,3.769671867057762,-1.6495994775344536,-6.335329795212199,-2.3963488661352206
2.2030473025799493,-2.9562754483471694,3.753175872282417,-1.6735629661958058,-6.474783278442319,-2.9770769403621857
2.1734845480964777,-3.0210232811315927,3.7364402426204593,-1.7033337355994276,-6.60871092377854,-3.582736409770133
2.143274315285162,-3.087110390369378,3.719406905264465,-1.739161099697129,-6.736422265327518,-4.213357567128032
2.112403211381468,-3.1544746130226535,3.7020152942674938,-1.7812946753684094,-6.857015990084033,-4.868827523102415
2.080858465251241,-3.223044772923494,3.6842023475138097,-1.8299829505994336,-6.969351861343891,-5.548859738428457
2.0486280175220064,-3.2927382915369328,3.6659025180078153,-1.8854715479837183,-7.072021172237596,-6.252959365737787
2.0157006346066373,-3.3634585032593085,3.647047802527978,-1.9480011416410963,-7.16331606181101,-6.980384401536706
1.9820660495740443,-3.4350916638774187,3.627567791111567,-2.0178049856564635,-7.241198170642954,-7.730102822877845
1.9477151329352702,-3.5075036455838484,3.6073897412550022,-2.0951060138852418,-7.303267289309781,-8.500746103981337
1.9126400964794317,-3.580536318476946,3.58643868111615,-2.1801134749250553,-7.346730863069809,-9.290559780385415
1.8768347332946622,-3.6540036271076444,3.5646375463668996,-2.2730190727289092,-7.368375460348817,-10.097352055777442
1.8402946970235858,-3.7276873817111325,3.5419073556396103,-2.3739925932866837,-7.364541589108261,-10.918441831000498
1.8030178232064744,-3.801332797602215,3.5181674297067436,-2.4831770115966885,-7.331103549098058,-11.750607974331036
1.7650044952304522,-3.8746438330931956,3.4933356595907767,-2.6006830913399988,-7.263456330612896,-12.590042141413065
1.7262580568995203,-3.9472783963993248,3.4673288286773767,-2.7265835127541296,-7.156511898252268,-13.432307981575086
1.686785272935527,-4.018843515381848,3.4400629935498355,-2.8609065925698802,-7.004707512343378,-14.272310117991864
1.6465968377817086,-4.088890590505281,3.4114539276241365,-3.003629693749799,-6.802029015806454,-15.104276838832261
1.6057079318766558,-4.156910880663346,3.3814176306866384,-3.1546724621381217,-6.54205221801497,-15.921760954373285
1.5641388230700224,-4.222331402843495,3.349870906065257,-3.3138900716818545,-6.218005599818854,-16.717663722684623
1.5219155090415875,-4.284511458841684,3.3167320053484386,-3.481066708908701,-5.822857497739776,-17.484287077934994
1.4790703944531707,-4.342740033819082,3.2819213382593517,-3.6559095796880507,-5.349430644948081,-18.213419557290948
1.4356429941149798,-4.396234340268562,3.245362242462471,-3.83804377526096,-4.7905463890694495,-18.89646125434246
1.391680650712294,-4.444139804159257,3.2069818047098613,-4.0270083878043845,-4.13920000291819,-19.5245927619643
1.3472392526707015,-4.485531804188439,3.1667117208318176,-4.222254315424028,-3.3887671809201443,-20.08899233277541
1.302383934628817,-4.5194194759976405,3.124489177677577,-4.423144238751782,-2.533239999464812,-20.581104304631165
1.2571897398688407,-4.544751875992288,3.0802577352900595,-4.628955281798094,-1.5674882519028444,-20.992960136994785
1.211742221108918,-4.5604267585113165,3.0339681824720786,-4.838884883168042,-0.4875391109467513,-21.317551118018322
1.1661379535238048,-4.565302149620784,2.985579333640398,-5.052060394348225,0.709135468789776,-21.54924889716351
1.120484932027597,-4.5582107949328865,2.9350587296969155,-5.26755288331986,2.023338234440623,-21.684266496609194
1.074902824078268,-4.53797741258848,2.8823832008637167,-5.484395548285952,3.453891977270417,-21.721148474819227
1.0295230499523833,-4.503438492815777,2.827539245380857,-5.701607033034144,4.997434025385589,-21.661274718649768
0.9844886650242255,-4.453464152561921,2.7705231750505157,-5.918219780220642,6.648286971401338,-21.509358376617715
0.9399540234986062,-4.386981282847907,2.7113409772483092,-6.13331336398682,8.398435328429782,-21.27391538497325
0.8960842106701272,-4.3029969295636095,2.650007843608441,-6.3460525178365526,10.237638464166212,-20.967681760686368
0.8530542413744912,-4.200620544921947,2.5865473184300756,-6.5557293354434165,12.153708096885126,-20.60795636347803
0.8110480359252716,-4.079083463953096,2.5209900250756414,-6.761808899078197,14.132973242460444,-20.21685217710902
0.7702572012857407,-3.937753731528492,2.4533719360848596,-6.963977420849287,16.160946535041923,-19.821449104155416
0.7308796639704558,-3.7761442661780724,2.3837321618763667,-7.162191911890841,18.22319360251496,-19.453856051174107
0.6931182213086751,-3.5939123301529228,2.3121102427574582,-7.356730472402582,20.306392558432506,-19.15120908844895
0.6571790980071458,-3.390848404568598,2.2385429380334325,-7.548242563287071,22.39955499114616,-18.955653900157476
0.6232706139614598,-3.166852854657136,2.1630605124005617,-7.737799102288646,24.495364245257292,-18.91438122700294
0.5916020854148885,-2.921899212204563,2.085682521377675,-7.926942914558675,26.591571110669758,-19.079797937973115
0.5623830932928429,-2.6559835010978654,2.0064130922320884,-8.117740893938407,28.692367569130447,-19.509914353932547
0.5358232582818642,-2.369059825406561,1.9252356832927044,-8.312840037477732,30.80962491340197,-20.26899351168189
0.5121326600277986,-2.0609635762725413,1.842107282917927,-8.515529972594551,32.96380749497026,-21.428406824396802
0.49152302426507316,-1.7313255013228388,1.7569519831919815,-8.72981404083852,35.184202136629025,-23.0674035217469
0.47420976925184477,-1.3794834799565485,1.6696538427835963,-8.960488076055988,37.50772011170648,-25.27297974939071
0.46041493445227927,-1.0044062788394836,1.5800489620230365,-9.213217873549896,39.97469358465841,-28.136908961051784
0.45037087166388445,-0.6046593429928995,1.4879167832875375,-9.494586963160414,42.61830953062605,-31.745596682884173
0.4443242782339555,-0.17847624768663894,1.3929709136559334,-9.812042929989255,45.44062862664877,-36.153390169195404
0.4425395157570891,0.2759300385798487,1.2948504843560409,-10.17357683168121,48.360789555279844,-41.3198197550056
0.4452988161428876,0.7595379341326471,1.1931147160392288,-10.586775029231266,51.10779229585165,-46.97263053114132
0.45289419548421406,1.2706158570911636,1.0872469657469161,-11.056501334542679,53.0125711446069,-52.33252014914947
0.4656003540551257,1.8007415685372328,0.9766819524014894,-11.579826536034174,52.656651600539334,-55.634747936203226
0.483607769740498,2.327308084542626,0.8608836870411476,-12.136174015396206,47.46817381339187,-53.5576481739274
0.5068808505859242,2.801989822676545,0.7395219468871855,-12.671750497135479,33.89154219221925,-41.393163663983344
0.5349007488126897,3.1409052445987373,0.6128044419158307,-13.085682133775313,9.661574186794791,-16.036641910004906
0.566309801258677,3.237520986466685,0.4819476205780776,-13.246048552875362,-21.501465571235894,17.765838364046544
0.5986850111233439,3.022506330754326,0.349487135049324,-13.068390169234895,-49.10968167928538,46.49010345751182
0.6289100744308872,2.531409513961472,0.21880323335697505,-12.603489134659776,-64.93371133501836,59.97701995598332
0.6542241695705019,1.8820724006112886,0.09276834201037729,-12.003718935099943,-69.71045530514593,59.98667553412647
0.6730448935766148,1.1849678475598293,-0.027268847340622154,-11.40385217975868,-68.48220416771753,53.53635077657887
0.684894572052213,0.500145805882654,-0.14130736913820896,-10.86848867199289,-65.11261271138359,45.68925432952446
0.6898960301110396,-0.15098032123118188,-0.2499922558581379,-10.411596128697646,-61.40806113151326,38.666170931576566
0.6883862268987277,-0.7650609325463145,-0.35410821714511437,-10.02493441938188,-57.973645526298895,33.12633670339372
0.6807356175732646,-1.3447973878093036,-0.4543575613389332,-9.693671052347943,-54.905504040149665,29.113350512001723
0.6672876436951716,-1.8938524282108002,-0.5512942718624126,-9.402537547227926,-52.12266438765267,26.48076547420569
0.6483491194130636,-2.4150790720873268,-0.6453196473346919,-9.137729892485869,-49.50047022929767,25.04734168950402
0.6241983286921904,-2.9100837743803036,-0.7366969462595506,-8.887256475590828,-46.91982537961335,24.643157862724134
0.5950974909483874,-3.379282028176437,-0.825569511015459,-8.640824896963586,-44.28409856339796,25.116846956436515
0.561304670666623,-3.8221230138104167,-0.9119777599850948,-8.38965642739922,-41.524214148457155,26.331013795667467
0.5230834405285189,-4.237365155294988,-0.995874324259087,-8.126346289442546,-38.599471435187425,28.15568912088354
0.480709788975569,-4.623359869646862,-1.0771377871535124,-7.8447893982337105,-35.496610209707235,30.463218916356386
0.43447619027910034,-4.978325971743934,-1.1555856811358496,-7.540157209070147,-32.22780460769126,33.1255898692938
0.384692930561661,-5.300604017820847,-1.2309872532265511,-7.208901310377208,-28.827692350121918,36.01426266029704
0.3316868903834525,-5.588880941322066,-1.3030762663303233,-6.848758683774238,-25.34946700270332,39.00217823086114
0.27579808097023184,-5.842375611349099,-1.3715638531680656,-6.458736901465627,-21.8601604797467,41.96739416235353
0.21737432485674085,-6.060977216146566,-1.436151222182722,-6.0390629598420915,-18.435379657588324,44.79770059896638
0.1567645526952752,-6.245331012722449,-1.4965418517811429,-5.591085953852428,-15.153868198044758,47.39553283649631
0.09431124256805071,-6.396869694702897,-1.5524527113196671,-5.117130625487465,-12.092315310983064,49.682532603767285
0.030342545621021733,-6.517792847812728,-1.6036240175745418,-4.620305299449792,-9.320823029876657,51.6032036603666
-0.03483538285710555,-6.611001078111494,-1.6498270705690397,-4.104273262846126,-6.899380742138782,53.12724876873787
-0.1009453936382205,-6.6799948855328815,-1.690869803197501,-3.5730007751587474,-4.8755929688508655,54.25035197632069
-0.16774534249354933,-6.72875081522139,-1.7265998109490883,-3.0304972553955407,-3.283777385483199,54.99336694334119
-0.23503285064576324,-6.761588589076221,-1.7569047835030438,-2.4805635859621287,-2.145408948687409,55.40006676492526
-0.30264873653652546,-6.7830426785630955,-1.7817104193626652,-1.926562918312876,-1.4707475491284145,55.533773296787665
-0.3704791633221564,-6.79775015405438,-1.800976048545794,-1.3712251853449993,-1.261363976829666,55.47327887613875
-0.4384566648627002,-6.810363793822677,-1.814688300399244,-0.8164923965836117,-1.513177180412972,55.30846441367113
-0.5065603028009269,-6.825495565626806,-1.8228532243650801,-0.2634077524469004,-2.219521627717886,55.13586931314269
-0.5748152584571949,-6.847690781903985,-1.8254873018895492,0.28795094068452654,-3.3736323033333435,55.05413378097157
-0.6432921662762348,-6.881427104937319,-1.822607792482704,0.8384922784942422,-4.969671113543686,55.158623452382784
-0.712106437325608,-6.9311238160727555,-1.8142228696977616,1.3900785130180702,-7.000843629391703,55.53346796547386
-0.7814176754863356,-7.001132252366673,-1.800322084567581,1.9454131926728087,-9.451952117901499,56.237310943841464
-0.8514289980100023,-7.095651773545687,-1.7808679526408528,2.5077863021112234,-12.281376738338643,57.27559004691635
-0.9223855157454591,-7.218465540929073,-1.7557900896197407,3.080542202580387,-15.383287065102218,58.54621811086462
-0.9945701711547499,-7.372298411580095,-1.7249846675939369,3.6660043836890335,-18.514743125846177,59.7370032253315
-1.0682931552705508,-7.557445842838557,-1.6883246237570466,4.263374415942349,-21.16811556583341,60.1475596480872
-1.1438676136989363,-7.7691269984968905,-1.645690879597623,4.86485001242322,-22.386024527409717,58.43284898282598
-1.2215588836839053,-7.992987243770988,-1.5970423794733908,5.44917850225148,-20.611433481641306,52.401171188202625
-1.301488756121615,-8.1991015785874,-1.542550594450876,5.973190214133506,-13.928173505351142,39.370481495435264
-1.3834797719074892,-8.338383313640913,-1.4828186923095408,6.366895029087859,-1.3256518053547248,17.976759879045126
-1.4668636050438983,-8.35163983169446,-1.4191497420186623,6.54666262787831,15.150433784659718,-8.772433170060742
-1.550380003360843,-8.200135493847862,-1.3536831157398792,6.458938296177703,30.101624007630416,-33.092472735793855
-1.6323813582993216,-7.899119253771557,-1.2890937327781022,6.128013568819764,38.72685577457095,-48.055116901905016
-1.7113725508370372,-7.5118506960258475,-1.2278135970899047,5.647462399800713,40.53021030312854,-52.88924153266663
-1.7864910577972957,-7.106548592994562,-1.1713389730918975,5.118569984474047,38.02906411820292,-51.173753512267574
-1.8575565437272412,-6.726257951812533,-1.120153273247157,4.606832449351371,33.78360217930656,-46.605200225276356
-1.9248191232453666,-6.388421930019468,-1.0740849487536435,4.140780447098607,29.27824410853912,-41.372253424301455
-1.9887033425455614,-6.095639488934077,-1.0326771442826574,3.7270579128555927,25.138551039144495,-36.43780602907441
-2.049659737434902,-5.844253978542632,-0.9954065651541015,3.3626798525648485,21.544946376287427,-32.1176699895542
-2.1081022772203286,-5.628804514779758,-0.9617797666284531,3.0415031526693066,18.492334228916643,-28.44955129696582
-2.164390322368126,-5.443881172490592,-0.93136473510176,2.7570076396996486,15.913113575684138,-25.370788552263644
-2.2188291340930317,-5.28475003673375,-0.9037946587047635,2.503299754177012,13.727760608421807,-22.79330893692568
-2.2716766344603694,-5.147472430649532,-0.8787616611629934,2.2753666648077555,11.86305319616797,-20.631981004096726
-2.323151358766865,-5.028841898687852,-0.8560079945149158,2.069046854766788,10.257081967899271,-18.813519974360908
-2.3734397777537435,-4.92627107900886,-0.835317525967248,1.880911655023179,8.859306524110728,-17.27781777185793
-2.422702488543832,-4.837678013767753,-0.8165084094170162,1.7081334773045997,7.629025595017014,-15.976632520630147
-2.4710792686815095,-4.761387757817582,-0.7994270746439702,1.5483671520982982,6.533561039651946,-14.871600226891843
-2.5186931462596855,-4.696052147421063,-0.7839434031229873,1.3996511498293798,5.546609538046277,-13.932295055271643
-2.5656536677338964,-4.6405860520406,-0.7699468916246934,1.2603281992766633,4.646882359566847,-13.13456413742677
-2.6120595282543024,-4.594117228444932,-0.7573436096319268,1.1289825579023955,3.817030772195938,-12.459169466414657
-2.658000700538752,-4.555946920722973,-0.7460537840529029,1.004390863238249,3.042816375192303,-11.890702124315464
-2.7035601697459817,-4.52551875697105,-0.7360098754205204,0.8854838419950943,2.3124797414590943,-11.416716970609011
-2.748815357315692,-4.50239395955646,-0.7271550370005695,0.7713166722890042,1.6162659925065506,-11.027037450127796
-2.7938392969112567,-4.486231299631394,-0.7194418702776795,0.6610462977877263,0.9460738997332816,-10.713187539281888
-2.8387016099075706,-4.476770560634062,-0.7128314072998022,0.5539144223949074,0.29520271259922864,-10.467916087054999
-2.8834693155139113,-4.473818533508069,-0.7072922630758531,0.44923526152435744,-0.34182280719108044,-10.284786247556081
-2.928207500848992,-4.47723676157998,-0.7027999104606095,0.3463873990487966,-0.969363867743558,-10.157808992549807
-2.9729798684647917,-4.486930400257416,-0.6993360364701215,0.24480930912329854,-1.5907269295127389,-10.08110498512018
-3.0178491724673657,-4.502837669552543,-0.6968879433788886,0.14399825927209672,-2.2081798165585864,-10.048583696626565
-3.062877549162891,-4.524919467718129,-0.6954479607861677,0.043512422305831064,-2.822932444182717,-10.053632880833126
-3.108126743840072,-4.553148792159956,-0.6950128365631093,-0.05702390650250019,-3.435089582833009,-10.088815657264353
-3.1536582317616717,-4.587499687988286,-0.6955830756281343,-0.15791206307514372,-4.043583451008363,-10.145576695473872
-3.1995332286415548,-4.62793552249837,-0.6971621962588856,-0.25936783002988245,-4.646094898126516,-10.213963420278509
-3.2458125838665386,-4.674396471479635,-0.6997558745591844,-0.36150746423266755,-5.238973318870608,-10.282372729287365
-3.292556548581335,-4.726786204668341,-0.7033709492015111,-0.4643311915255412,-5.817166993928392,-10.337338229838863
-3.3398244106280184,-4.784957874607625,-0.7080142611167666,-0.5677045738239298,-6.374176978592476,-10.363377108685247
-3.3876739893740946,-4.84869964439355,-0.7136913068550059,-0.6713383449107823,-6.902048620553242,-10.342918962133698
-3.43616098581803,-4.917720130599083,-0.7204046903041137,-0.7747675345321192,-7.391414952173056,-10.256340696888671
-3.4853381871240208,-4.991634280120813,-0.7281523656494349,-0.877330941501006,-7.831605333165072,-10.082131482036424
-3.5352545299252287,-5.069950333452464,-0.736925675064445,-0.9781522563213703,-8.210830769259115,-9.79720941812693
-3.5859540332597533,-5.1520586411450555,-0.7467071976276587,-1.0761243505026394,-8.516454526817729,-9.377407165072361
-3.637474619671204,-5.237223186413233,-0.7574684411326851,-1.169898422153363,-8.735353523368104,-8.798137721513367
-3.689846851535336,-5.324576721646913,-0.7691674253542187,-1.2578797993684967,-8.854373223265108,-8.035244677572814
-3.743092618751805,-5.413120453879564,-0.7817462233479037,-1.3382322461442249,-8.86087708964091,-7.066034387922795
-3.797223823290601,-5.501729224775973,-0.7951285458093459,-1.4088925900234528,-8.743391296752831,-5.870480953588395
-3.8522411155383605,-5.589163137743501,-0.8092174717095804,-1.4675973995593368,-8.492345774059318,-4.432587874134625
-3.9081327469157956,-5.674086595484094,-0.8238934457051738,-1.511923278300683,-8.100911881229075,-2.7418803686377955
-3.9648736128706363,-5.755095714296385,-0.8390126784881806,-1.5393420819870611,-7.565931949579776,-0.794985690824785
-4.0224245700136,-5.830755033792182,-0.8544060993080512,-1.547291938895309,-6.888922584585748,1.4027695129809428
-4.080732120351522,-5.899644259638039,-0.8698790186970043,-1.5332642437654995,-6.077108356427285,3.8358594024739654
-4.139728562947902,-5.960415343202312,-0.8852116611346593,-1.4949056497407598,-5.144403905936732,6.477330152394548
-4.199332716379925,-6.0118593822616795,-0.900160717632067,-1.4301323482168142,-4.112213812637155,9.288082108606696
-4.259451310202542,-6.052981520388051,-0.9144620411142351,-1.3372515271307472,-3.0098709521388605,12.216959098274767
-4.319981125406422,-6.08308022990944,-0.9278345563855426,-1.2150819361479996,-1.8745033497391588,15.2019588846788
