th1 (rad),w1 (rad/s),th2 (rad),w2 (rad/s),a1 (rad/s^2),a2 (rad/s^2)
3.8843688434765817,0.9720673681579062,2.1034613353336016,0.878018562108532,5.588637093178077,-6.352527655419296
3.894089517158161,1.027953739089687,2.112241520954687,0.8144932855543391,5.727845424387417,-6.165095588386923
3.9043690545490577,1.0852321933335611,2.12038645381023,0.7528423296704698,5.863102601210762,-5.965285357337664
3.915221376482393,1.1438632193456688,2.1279148771069347,0.6931894760970931,5.995101027127937,-5.7523068016772045
3.92666000867585,1.2038142296169483,2.1348467718679056,0.635666408080321,6.124589591898766,-5.525385002883081
3.9386981509720194,1.265060125535936,2.1412034359487087,0.5804125580514903,6.252375387804373,-5.283752388002426
3.951348752227379,1.3275838794139796,2.1470075615292235,0.527575034171466,6.3793248302610905,-5.026639924733817
3.9646245910215185,1.3913771277165905,2.152283311870938,0.47730863492412784,6.506364182195349,-4.753267504882531
3.9785383622986843,1.456440769538544,2.1570563982201794,0.42977595987530254,6.634479479130383,-4.462833647214848
3.9931027699940698,1.5227855643298478,2.1613541578189324,0.38514762340315406,6.764715844277824,-4.154504688968316
4.0083306256373685,1.590432722772626,2.1652056340529637,0.3436025765134709,6.8981761690688925,-3.8274036782751497
4.024234952865095,1.659414484463315,2.1686416598180984,0.30532853973071944,7.036019113458925,-3.480599228618406
4.040829097709728,1.7297746755979042,2.1716949452154055,0.27052254744453536,7.179456350917982,-3.113094652604074
4.058126844465707,1.801569239107084,2.174400170689851,0.23939160091849462,7.329748944203835,-2.7238177575883276
4.076142536856778,1.8748667285491225,2.176794086699036,0.21215342334261134,7.488202688780178,-2.3116117621648344
4.094891204142269,1.9497487554369244,2.1789156209324623,0.189037305720963,7.656162200201167,-1.8752278825554705
4.114388691696639,2.026310377438936,2.180805993989672,0.1702850268954083,7.835003449284836,-1.41332024401797
4.134651795471028,2.1046604119317847,2.182508844258626,0.1561518244552286,8.026124364202007,-0.9244438967867665
4.155698399590346,2.1849216555738047,2.1840703625031783,0.14690738548736093,8.23093302212073,-0.40705686055333135
4.177547616146084,2.267230985795012,2.185539436358052,0.14283681688182762,8.450832846162406,0.14047271328768413
4.200219926004034,2.351739314256636,2.18696780452687,0.14424154401470446,8.687204108992239,0.7198529877155395
4.2237373191466006,2.4386113553465583,2.1884102199670172,0.15144007389185984,8.941380927308417,1.3328470206659164
4.2481234327000665,2.5280251646196423,2.189924620705936,0.16476854409851902,9.214622819615164,1.981241799796671
4.273403684346263,2.620171392815794,2.191572306146921,0.18458096209648572,9.50807980462469,2.666805852768952
4.299605398274421,2.7152521908620413,2.193418115767886,0.21124902062417525,9.822749956074308,3.3912333871744376
4.3267579201830415,2.8134796904227843,2.1955306059741275,0.24516135449591964,10.159428324470316,4.156072811726822
4.354892717087269,2.9150739736674876,2.1979822195190866,0.2867220826131879,10.518646217286483,4.962637498949071
4.384043456823944,3.020260435840352,2.2008494403452183,0.3363484576026786,10.900600034254705,5.811896830543659
4.4142460611823475,3.1292664361828995,2.204212924921245,0.39446742590811523,11.305069228826268,6.704345996625187
4.445538725544177,3.242317128471162,2.208157599180326,0.4615108858743671,11.731323561312628,7.639853789605058
4.477961896828888,3.359630364084288,2.21277270803907,0.5379094237704177,12.178020675134064,8.61748884182112
4.511558200469731,3.481410570835629,2.218151802276774,0.6240843121886289,12.643096209184845,9.635326499545208
4.546372306178088,3.6078415329274773,2.22439264539866,0.720437577184081,13.123650180689703,10.690240880203397
4.582450721507363,3.739078034734374,2.231597021170501,0.8273399859861149,13.61583522042696,11.777689651238667
4.619841501854706,3.875236386938644,2.2398704210303624,0.9451168824985016,14.114754342251082,12.89150263944157
4.658593865724093,4.016383930361155,2.2493215898553474,1.0740319088929173,14.614378123910292,14.023689341878933
4.698757705027704,4.162527711600258,2.2600619089442766,1.2142688023117068,15.107493203987353,15.164284406181817
4.740382982143707,4.313602643640131,2.2722045969673936,1.365911646373525,15.58569548462064,16.30125362133629
4.783519008580108,4.4694595984863374,2.285863713431129,1.528924182586888,16.03944189655491,17.42048515457083
4.828213604564971,4.629854017451887,2.3011529552569976,1.7031290341325964,16.458173507691114,18.505890786107088
4.87451214473949,4.794435752528798,2.3181842455983235,1.8881879419936674,16.830519658645553,19.539638814165315
4.922456502264778,4.962740949115254,2.3370661250182603,2.0835843301353205,17.14458738948952,20.502533395692982
4.97208391175593,5.1341868230101495,2.3579019683196134,2.28860966409225,17.38833272235287,21.374544069424513
5.023425779986032,5.308070150233678,2.380788064960536,2.502355104786495,17.55000091206607,22.135474509363252
5.0765064814883685,5.483570159354339,2.405811616008401,2.7237098498801275,17.618612655557744,22.765742517221994
5.1313421830819115,5.659756285909916,2.433048714507202,2.9513672750523474,17.58446403849494,23.247226134354886
5.18793974594101,5.835600926294865,2.4625623872577256,3.1838395363958965,17.439601531535985,23.56411644679409
5.246295755203959,6.009996941610225,2.4944007826216845,3.4194807008638373,17.178231329386957,23.70370920023885
5.306395724620061,6.181779254904094,2.528595589630323,3.6565177928662256,16.797025846658002,23.65706715444595
5.368213517169102,6.349749513370674,2.5651607675589854,3.893088464410685,16.295299323691072,23.419494269904504
5.4317110123028085,6.512702506607585,2.6040916522030924,4.12728340710973,15.675038132021326,22.990780598839617
5.496838037368884,6.669452887927799,2.6453644862741896,4.357191213098126,14.940787326244326,22.375200573275578
5.5635325662481625,6.818860761190241,2.688936398405171,4.580943218830882,14.099410504240852,21.58127333398022
5.631721173860065,6.95985486623265,2.73474583059348,4.796755952170684,13.159752430156352,20.621317483444447
5.701319722522391,7.091452390534213,2.7827133901151866,5.002969127005128,12.13224119876061,19.510850432386118
5.772234246427733,7.212774802521819,2.832743081385238,5.19807763132899,11.028468194402066,18.26789203373197
5.844361994452951,7.32305948446584,2.884723857698528,5.380756551666309,9.86078018583646,16.912232971356243
5.91759258929761,7.421667286324205,2.938531423215191,5.549878881379871,8.64191004786635,15.464721595538501
5.991809262160852,7.508086386802868,2.99403021202899,5.704526097335256,7.38466276877747,13.946610934601209
6.066890126028881,7.581933014490643,3.0510754730023426,5.843992206681268,6.101663536412654,12.378993267751433
6.142709456173787,7.642949649854769,3.109515395069155,5.967782139358782,4.805166327098439,10.782335503294176
6.219138952672335,7.691001313125753,3.169193216462743,6.0756054943917235,3.5069154550453976,9.176116585035318
6.2960489658035925,7.726070467676207,3.2299492714066607,6.1673666602420765,2.218049238929341,7.578559313792644
6.373309670480355,7.7482509600655005,3.2916229380090813,6.243152253380003,0.9490340595536678,6.006443588760865
6.4507921800810095,7.757741300661038,3.3540544605428813,6.303216689267611,-0.29038194448044985,4.474985813205193
6.5283695930876195,7.754837481216233,3.4170866274355576,6.347966547399663,-1.4912041486346794,2.99776938704208
6.6059179678997815,7.739925439729887,3.480566292909554,6.377944241270083,-2.645221613698844,1.5867130172589008
6.68331722229708,7.713473223592898,3.544345735322255,6.3938113714426725,-3.7450354114556057,0.25206625044606756
6.760451954533009,7.676022869478342,3.6082838490366815,6.396332033947133,-4.784086039791107,-0.9975754549631026
6.837212183227792,7.628182009080431,3.6722471693761527,6.386356279397503,-5.756679099916378,-2.1552410922555807
6.913494003318596,7.570615218081268,3.7361107321701277,6.364803868474946,-6.658007271562034,-3.2155426525680593
6.989200155499409,7.5040351453656475,3.799758770854877,6.3326484419492655,-7.484166082404507,-4.174622974090075
7.064240506953066,7.429193484541602,3.8630852552743695,6.290902212208365,-8.232160936681806,-5.030093004630589
7.138532441798482,7.346871875174784,3.925994277396453,6.240601282162059,-8.899903225781605,-5.780958132740283
7.21200116055023,7.257872842916968,3.9884002902180735,6.182791700834656,-9.486193963728601,-6.4275332384272374
7.284579888979399,7.163010903279682,4.05022820722642,6.118516368450384,-9.990694153771251,-6.971346438174976
7.356209998012196,7.0631039617419695,4.111413370910924,6.0488029040686335,-10.413881896094836,-7.41503202591368
7.426841037629616,6.958965142781021,4.171901399951611,5.974652583809497,-10.75699700939774,-7.762213727567511
7.496430689057426,6.8513951726870435,4.231647925789706,5.8970304465338215,-11.02197460090651,-8.017379995094208
7.564944640784296,6.741175426677978,4.290618230255044,5.816856646582879,-11.211369541453234,-8.185753591180239
7.632356395051076,6.629061731263446,4.348786796720873,5.734999110671077,-11.328274164120392,-8.273158105248193
7.69864701236371,6.515778989622242,4.406136787827584,5.652267529618595,-11.37623170196526,-8.285884264628768
7.763804802259933,6.402016672602589,4.46265946312377,5.569408686972308,-11.359148020316269,-8.23055895134789
7.827824968985959,6.288425192399426,4.518353549993493,5.487103097458829,-11.281204099425647,-8.114019712073024
7.890709220909953,6.1756131514051695,4.573224580968081,5.405962900338099,-11.146771507748332,-7.943197277201155
7.952465352424005,6.064145436327686,4.627284209971462,5.326530927566087,-10.960332802517863,-7.725008215499143
8.013106806787281,5.954542108302507,4.680549519247123,5.2492808454110955,-10.726408431727426,-7.466259379440827
8.072652227870305,5.8472780239852336,4.7330423277012335,5.174618251616687,-10.449491318519634,-7.17356528155273
8.131125008110157,5.742783110800037,4.784788510217401,5.10288259880116,-10.133989911334577,-6.853279020173095
8.188552839218158,5.641443211686691,4.835817336205412,5.034349808599429,-9.784180103235288,-6.511436876223233
8.244967271335025,5.543601410654338,4.886160834291407,4.969235439837196,-9.404166079321273,-6.153716256806581
8.300403285441568,5.449559749861125,4.935853188689779,4.90769827726913,-8.997849854788559,-5.7854062853641395
8.35489888294018,5.359581251313239,4.98493017146247,4.849844214415489,-8.568909025781897,-5.4113900429014254
8.408494695453312,5.27389216105542,5.033428613606625,4.795730313986475,-8.120782073918605,-5.036137254634912
8.461233617063867,5.192684340316234,5.081385916746489,4.745368941440126,-7.656660442510353,-4.663706089411234
8.513160460467029,5.11611773589113,5.1288396061608905,4.698731880546013,-7.17948653419795,-4.2977526888095925
8.564321637825941,5.044322870549151,5.17582692496635,4.655754353657917,-6.691956759805748,-3.9415470589893946
8.614764866531432,4.977403302951093,5.22238446850293,4.616338883068023,-6.196528789163287,-3.597994029160448
8.664538899560943,4.91543801505946,5.26854785733361,4.580358942776418,-5.695432208222124,-3.2696580933514485
8.713693279711539,4.858483692977239,5.314351446761374,4.547662361842904,-5.1906818647843895,-2.9587910944636526
8.76227811664131,4.806576874329395,5.359828070379803,4.5180744508982675,-4.6840932797695345,-2.667361869879916
8.810343885384604,4.7597359415317,5.405008814888785,4.491400832199468,-4.177299605153773,-2.397087145972518
8.857941244799921,4.717962945480162,5.44992282321078,4.467429960739743,-3.6717697174284147,-2.1494631361032233
8.905120874254722,4.681245248305878,5.494597122818178,4.4459353293787105,-3.1688271415122733,-1.925797456096574
8.95193332673778,4.649556976890755,5.5390564761119645,4.426677354817745,-2.6696696003173876,-1.7272411170887898
8.998428896506688,4.622860280887582,5.583323249660142,4.409404943646857,-2.1753890761953887,-1.5548204837115474
9.044657499315564,4.6011063901256275,5.627417299096611,4.393856738809742,-1.6869923495080155,-1.4094691922725495
9.09066856321682,4.584236466630547,5.671355866484708,4.379762046887016,-1.2054220442342791,-1.2920601060539323
9.136510927883124,4.572182246188205,5.715153486953579,4.366841445826477,-0.731578258759636,-1.2034374404578918
9.182232750345007,4.564866463600608,5.758821901411843,4.354807071421898,-0.2663408897484875,-1.1444492168654978
9.227881414981013,4.562203054703123,5.802369972126062,4.343362579253243,0.18940723390211409,-1.1159801978288382
9.273503445528045,4.564097127042144,5.845803597918595,4.332202777274954,0.6347563041015015,-1.1189854141456979
9.319144416798466,4.570444690083159,5.889125625691344,4.321012923133497,1.068744510920347,-1.1545243122833395
9.364848863699297,4.581132135192362,5.932335754922679,4.3094676800106635,1.490332051686118,-1.2237954234371693
9.41066018505122,4.596035455709224,5.975430431722786,4.297229725776292,1.898374283676053,-1.3281712771536553
9.456620539608313,4.615019198545984,6.018402728980549,4.283948013004756,2.29159427640909,-1.4692330458747067
9.502770731593772,4.637935141310075,6.061242209110596,4.269255682546009,2.6685552096941314,-1.6488041041795944
9.549150083006873,4.6646206934070165,6.1039347659360566,4.252767641504214,3.0276333068461834,-1.868981309868391
9.595796289940944,4.694897026475478,6.1464624423510985,4.23407782840553,3.3669922963355,-2.1321623560009377
9.642745260205698,4.728566949438833,6.188803220635154,4.212756204845521,3.6845607667529587,-2.4410669985267526
9.690030929700086,4.765412557106362,6.230930782683609,4.188345534860253,3.9780142248620556,-2.7987493329765445
9.73768505527115,4.805192699354983,6.272814238032212,4.160358041530488,4.244764186387103,-3.2085975841602727
9.7857369822647,4.847640341218853,6.314417818447517,4.128272065688885,4.481957218791519,-3.6743171071317806
9.834213385676888,4.892459913406769,6.355700539104405,4.091528894617568,4.686487497806911,-4.19989151906619
9.883137984810956,4.9393247883848375,6.396615828050581,4.0495299794269055,4.855027100364505,-4.789516163481217
9.932531232694805,4.987875059388482,6.43711112784485,4.001634817792094,4.984078875924675,-5.447497564514929
9.98240998328869,5.037715848147729,6.477127476022771,3.9471598421469443,5.070057221761632,-6.178112325778669
10.032787141770168,5.088416420365346,6.51659907444424,3.8853787188891578,5.109402298105985,-6.985419292965057
10.083671305973821,5.139510443346405,6.555452861633132,3.815524525959507,5.098732968960858,-7.8730200240112795
10.135066410407285,5.190497773036014,6.593608106892727,3.7367943257193943,5.035042806544536,-8.843765043284577
10.186971388137644,5.240848201101459,6.630976050149921,3.6483566752865486,4.915941575970983,-9.899407371189593
10.239379870148658,5.2900076168611685,6.667459616902787,3.5493626015746527,4.739941439413014,-11.040210756670602
10.29227994631727,5.337407031255299,6.702953242918533,3.438960494007947,4.506782455764954,-12.264528097820742
10.345654016629824,5.382474855812948,6.737342847858613,3.3163152130297395,4.217785719358344,-13.56837562836497
10.399478765187954,5.424652713006531,6.77050599998891,3.18063145674609,3.8762148696434022,-14.945040014704338
10.453725292318019,5.463414861702965,6.802312314556371,3.0311810565990465,3.4876183214667043,-16.384767324232325
10.508359440935049,5.498291044917632,6.832624125122361,2.867333383356723,3.060116565893924,-17.874592869273506
10.563342351384225,5.528892210576571,6.861297458955929,2.6885874546639883,2.604593017326944,-19.398376411854013
10.61863127348999,5.554938140749841,6.888183333502568,2.494603690545448,2.134745348452955,-20.937104876185245
10.674180654897489,5.5762855942343705,6.913129370408023,2.2852326417835958,1.6669593889489376,-22.469511505912838
10.729943510839833,5.5929551881238595,6.935981696825859,2.060537526724467,1.2199812860567691,-23.973034506287412
10.785873062721071,5.6051550009844275,6.956587072093104,1.8208071816615932,0.814386235371613,-25.42510026423087
10.841924612730915,5.6132988633381435,6.97479514390972,1.5665561790192846,0.47187209984407985,-26.80467033517394
10.898057601364297,5.6180175843365845,6.990460705699912,1.298509475667545,0.21443958819970443,-28.093945321077282
10.954237777207663,5.620161980218581,7.003445800456588,1.017570022456772,0.06355121397052275,-29.280083034831822
11.010439397009849,5.620797492358286,7.013621500681156,0.7247691921084538,0.039382074887870926,-30.356773761568967
11.066647371933431,5.621191313107165,7.02086919260224,0.42120145449276414,0.16028090996443775,-31.325529838618532
11.122859285064504,5.622794122206809,7.025081207147168,0.10794615610657882,0.44254763146848075,-32.19659204168781
11.179087226286573,5.627219598521494,7.026160668708234,-0.2140197643102993,0.900606057734942,-32.98942581512697
11.235359422271788,5.6362256590988435,7.024020471065131,-0.5439140224615691,1.5476149561415027,-33.73286430036836
11.291721678862777,5.651701808660259,7.018581330840515,-0.8812426654652528,2.3965266346852787,-34.465037597480034
11.348238696949378,5.675667075007111,7.009768904185862,-1.225893041440053,3.4615800768024942,-35.23329559816802
11.404995367699449,5.710282875775136,6.997509973771462,-1.5782259974217332,4.760211937521381,-36.09437718892402
11.4620981964572,5.75788499515035,6.981727713797245,-1.9391697693109733,6.315385290694832,-37.1150998057344
11.519677046408704,5.821038848057299,6.9623360161041346,-2.3103207673683173,8.158367251136815,-38.37384078186425
11.577887434889277,5.902622520568667,6.939232808430451,-2.69405917518696,10.332015807747537,-39.963048623816235
11.636913660094963,6.005942678646143,6.912292216678582,-3.093689661425122,12.894624542521889,-41.99292208014217
11.696973086881425,6.134888924071362,6.881355320064331,-3.513618882226544,15.924229486753147,-44.59611394015936
11.758321976122138,6.294131218938893,6.846219131242065,-3.9595800216281374,19.52277920615799,-47.93254744108737
11.821263288311528,6.489359011000473,6.806623331025784,-4.438905496039011,23.818140136787857,-52.19138431048685
11.886156878421533,6.727540412368351,6.762234276065394,-4.960819339143879,28.9581247408903,-57.581850298176086
11.953432282545217,7.0171216597772545,6.712626082673955,-5.53663784212564,35.08103200076572,-64.29101610113311
12.02360349914299,7.367931979784911,6.657259704252699,-6.179548003136971,42.22312807019023,-72.35289942107254
12.097282818940839,7.790163260486814,6.595464224221329,-6.903076997347696,50.06775014933755,-81.29511132244987
12.175184451545707,8.29084076198019,6.526433454247853,-7.7160281105721955,57.334743807413744,-89.28075264303814
12.25809285916551,8.864188200054327,6.449273173142131,-8.608835637002578,60.537598331327025,-91.36388643164204
12.346734741166053,9.469564183367597,6.363184816772105,-9.522474501318998,52.49946214225974,-77.41230583029639
12.441430382999728,9.994558804790195,6.267960071758915,-10.296597559621961,24.48112784296268,-35.12231877349155
12.54137597104763,10.239370083219821,6.164994096162695,-10.647820747356876,-20.74670224057328,31.569275274454405
12.643769671879829,10.031903060814088,6.058515888689126,-10.332127994612332,-58.74355046314557,88.20680247096863
12.74408870248797,9.444467556182632,5.955194608743002,-9.450059969902645,-70.69853811531206,108.21624335281079
12.838533378049796,8.73748217502951,5.860694009043976,-8.367897536374537,-64.35389366708755,102.32887182308251
12.92590819980009,8.093943238358635,5.777015033680231,-7.344608818143712,-52.779981470034286,88.84899323258782
13.006847632183677,7.566143423658293,5.703568945498794,-6.456118885817833,-41.83376619031608,76.04155124139726
13.08250906642026,7.147805761755132,5.639007756640615,-5.695703373403861,-32.84624312571215,65.8395378435211
13.15398712403781,6.81934333049801,5.582050722906577,-5.03730799496865,-25.710122413864443,58.143501003011096
13.22218055734279,6.562242106359366,5.531677642956891,-4.455872984938539,-20.038522912988853,52.441029122336126
13.287802978406384,6.361856877229478,5.487118913107505,-3.9314626937151775,-15.474758833221719,48.24330617959722
13.35142154717868,6.207109288897261,5.447804286170353,-3.4490296319192053,-11.747377899127097,45.16511698147599
