th1 (rad),w1 (rad/s),th2 (rad),w2 (rad/s)
5.648518511696057,0.7885274072776552,0.42695033621427425,0.14000299747161257
5.656403785768834,0.8672899323880319,0.42835036618899036,0.055598869454106165
5.665076685092714,0.9460043516078197,0.4289063548835314,-0.030466377342550227
5.674536728608793,1.0247825303384097,0.4286016911101059,-0.11837326990533878
5.684784553912177,1.103743957758915,0.4274179584110525,-0.20830311713019026
5.6958219934897665,1.1830165639252115,0.4253349272397506,-0.3004388865415168
5.707652159129019,1.262737421882399,0.42233053837433543,-0.3949659956961288
5.720279533347843,1.343053285585034,0.41838087841737415,-0.4920729493564681
5.7337100662036935,1.424120892340022,0.41346014892380945,-0.5919517212200349
5.747951275127094,1.5061069273614833,0.4075406317116091,-0.6947977340318978
5.763012344400709,1.5891875043675325,0.4005926543712901,-0.8008092294503695
5.778904219444384,1.6735469552278461,0.3925845620767864,-0.9101857325211303
5.795639688996663,1.7593756371985396,0.3834827047515751,-1.0231251963072452
5.813233445368648,1.8468663501250173,0.37325145278850264,-1.1398192488230698
5.831702108869898,1.9362087981114833,0.36185326030027193,-1.2604457429780933
5.851064196851013,2.0275813191143124,0.349248802870491,-1.38515751488638
5.8713400100421556,2.1211388307511667,0.33539722772162717,-1.5140658714778947
5.892551398349667,2.2169955954631733,0.32025656900684824,-1.6472168469145394
5.914721354304299,2.3152010022133704,0.30378440053770284,-1.784557702125312
5.937873364326433,2.415706138919503,0.2859388235164497,-1.925890554715336
5.962030425715628,2.5183186034985985,0.26667991796929635,-2.0708095777176183
5.987213611750613,2.62264301381921,0.24597182219212016,-2.2186182356216237
6.013440041888805,2.7280054831570046,0.2237856398359039,-2.36822417452977
6.040720096720375,2.83336269074934,0.2001033980906062,-2.5180127218362016
6.069053723627868,2.9372012013673587,0.17492327087224419,-2.6657070307302977
6.098425735641542,3.0374416102682384,0.14826620056494122,-2.808235461568523
6.128800151744224,3.1313754780237746,0.12018384594925599,-2.9416456176856443
6.160113906524462,3.215678961982487,0.09076738977239955,-3.0611268497947126
6.192270696144287,3.2865584205750946,0.060156121274452426,-3.161218974949422
6.225136280350037,3.3400759651464877,0.028543931524958203,-3.23627458280285
6.258537040001502,3.3726600598650216,-0.003818814303070295,-3.2811818511452158
6.292263640600153,3.381723537312225,-0.03663063281452245,-3.2922382643587578
6.3260808759732745,3.366218711984253,-0.06955301545811003,-3.2679351520853106
6.359743063093117,3.3269224380576894,-0.10223236697896314,-3.2093611651708325
6.393012287473694,3.266318935951185,-0.13432597863067147,-3.1200384119597477
6.425675476833206,3.188113545633038,-0.16552636275026894,-3.0052377442440514
6.457556612289536,3.096562183548099,-0.19557874019270946,-2.8710331608699398
6.488522234125017,2.9958417447553933,-0.22428907180140886,-2.7234124198444576
6.51848065157257,2.8896123217630816,-0.25152319599985345,-2.567656530874096
6.547376774790202,2.7808077524449573,-0.2771997613085944,-2.4080400553150927
6.575184852314651,2.671608909267319,-0.30128016186174533,-2.247788630939475
6.601900941407324,2.5635261763419,-0.32375804817114007,-2.0891906481366926
6.627536203170743,2.4575271144325286,-0.344649954652507,-1.9337732397989593
6.652111474315069,2.3541680714329303,-0.36398768705049656,-1.7824845847584345
6.675653155029398,2.253709257034739,-0.3818125328980809,-1.6358536201707583
6.6981902475997455,2.1562065576819025,-0.3981710690997885,-1.4941175653823053
6.719752313176564,2.061580660947646,-0.4131122447536116,-1.357317917255739
6.740368119786041,1.9696670556104867,-0.426685423926169,-1.2253698137929931
6.760064790342145,1.8802511348666389,-0.4389391220640989,-1.0981106211634484
6.778867301690812,1.793092241851697,-0.4499202282757334,-0.9753330803704247
6.796798224109329,1.7079397635007463,-0.45967355907943763,-0.8568073413000661
6.813877621744337,1.62454363124966,-0.4682416324924383,-0.7422951778759209
6.8301230580568335,1.5426609513087552,-0.4756645842711975,-0.631558796374333
6.845549667569921,1.462059991308195,-0.48198017223494083,-0.5243659600321925
6.860170267483003,1.3825223817199483,-0.48722383183526274,-0.42049264051002705
6.873995491300202,1.3038441249133885,-0.49142875824036303,-0.31972403661570126
6.887033932549336,1.2258358169824526,-0.49462599860652007,-0.22185453837478958
6.899292290719161,1.1483223565184197,-0.49684454399026795,-0.1266870308769431
6.910775514284345,1.0711423239879803,-0.4981114142990374,-0.03403180474051895
6.921486937524225,0.9941471532690727,-0.4984517323464426,0.05629474816722979
6.931428409056916,0.9172001745472669,-0.4978887848647703,0.14447153592195505
6.940600410802388,0.8401755790767698,-0.49644406950555076,0.23067418867005543
6.949002166593156,0.7629573369982503,-0.4941373276188502,0.31507645451830546
6.9566317399631385,0.685438086524178,-0.49098656307366717,0.39785154183586613
6.963486120828381,0.6075180043118731,-0.48700804765530853,0.4791733942726438
6.9695613008715,0.5291036613450353,-0.4822163137125821,0.5592178941992241
6.9748523374849505,0.4501068651816103,-0.47662413477058985,0.6381639967261832
6.979353406136767,0.3704434873569501,-0.470242494803328,0.7161948008379075
6.983057841010336,0.2900322736355341,-0.463080546794949,0.7934985670472771
6.985958163746691,0.20879363442363566,-0.4551455611244762,0.8702696926902377
6.988046100090927,0.12664841285635417,-0.4464428641975738,0.9467096567104598
6.9893125842194905,0.043516628828455625,-0.4369757676304692,1.0230279455676008
6.989747750507775,-0.040683801376703535,-0.4267454881747932,1.0994429706352904
6.989340912494009,-0.1260383680094117,-0.4157510584684403,1.1761829848855778
6.9880805288139145,-0.2126372881534756,-0.40398922861958453,1.253487002353405
6.9859541559323795,-0.30057683329466117,-0.3914543585960505,1.3316057171689875
6.982948387599433,-0.3899606467792787,-0.3781383014243606,1.4108024088441804
6.97904878113164,-0.48090102313271965,-0.3640302773359188,1.491353805551901
6.974239770900312,-0.5735201056624899,-0.34911673928039977,1.573550855251434
6.968504569843687,-0.6679509361656457,-0.33338123072788545,1.6576993226777252
6.961825060482031,-0.7643382578059756,-0.3168042375011082,1.7441200841252793
6.954181677903971,-0.8628389249351518,-0.2993630366598554,1.8331489254940279
6.94555328865462,-0.9636217056252009,-0.28103154740491515,1.925135553582277
6.935917071598368,-1.0668661653522125,-0.2617801918690924,2.0204413940494126
6.925248409944846,-1.1727601818517663,-0.24157577792859827,2.1194355552928656
6.913520808126329,-1.281495445998886,-0.22038142237566963,2.2224880636429885
6.90070585366634,-1.3932600317747146,-0.19815654173923974,2.3299590937003254
6.886773253348593,-1.5082267467737516,-0.17485695080223648,2.4421823953981123
6.871690985880855,-1.626535480705942,-0.15043512684825536,2.5594404241010573
6.855425631073796,-1.7482671416005813,-0.12484072260724478,2.681927794619686
6.8379429596577905,-1.8734060317497983,-0.09802144466104792,2.809698635912049
6.819208899340293,-2.0017867756117953,-0.06992445830192744,2.9425923686981537
6.799191031584175,-2.1330214520381205,-0.0404985346149459,3.0801317548461316
6.777860817063794,-2.2664030094926315,-0.009697217066484586,3.2213876205348093
6.755196786968868,-2.400783492731987,0.02251665913886351,3.3648080257162114
6.731188952041547,-2.534431934320812,0.05616473939602562,3.508018437154298
6.705844632698339,-2.664889402482219,0.0912449237675686,3.647617092122251
6.679195738673517,-2.7888595659138504,0.12772109468879111,3.77901893779972
6.651307143014378,-2.902200511862778,0.1655112840667883,3.8964399447041123
6.622285137895751,-3.0001064827476682,0.20447568351382944,3.993145955286478
6.5922840730682735,-3.0775615505692957,0.24440714306669423,4.062081391697593
6.561508457562581,-3.130077889081225,0.28502795698367017,4.096896647128921
6.530207678671768,-3.1545888751251443,0.3259969234549594,4.093194131785762
6.498661789920517,-3.150210314788813,0.366928864772817,4.049593458283972
6.467159686772629,-3.1185402245317633,0.40742479935565673,3.9681558773175527
6.435974284527311,-3.0633323295223045,0.44710635812883226,3.8539375742208284
6.4053409612320875,-2.9896744507816817,0.48564573387104054,3.7138541120307575
6.37544421672427,-2.9030156512083525,0.5227842749913482,3.5553344903409396
6.346414060212187,-2.8083745820721266,0.5583376198947576,3.385226856357668
6.318330314391465,-2.709886967216095,0.5921898884583343,3.2091746355601027
6.291231444719305,-2.610671210061373,0.6242816348139353,3.03143306838687
6.265124732618691,-2.5129025741681064,0.654595965497804,2.854973612961359
6.23999570687701,-2.4179831410184183,0.6831457016274176,2.681719730293041
6.215815875466825,-2.326730225890779,0.709962898930348,2.5128071604531796
6.192548573207918,-2.239543758833467,0.7350909705348798,2.348814370088964
6.170153135619583,-2.156539109125852,0.7585791142357694,2.1899448023687538
6.148587744528324,-2.077645533062489,0.7804785622594569,2.036161433838853
6.1278112891977,-2.002675900978509,0.8008401765978455,1.887281618507261
6.107784530187915,-1.9313744821947025,0.8197129927829181,1.7430416720343784
6.088470785365968,-1.8634488351204241,0.8371434095032618,1.6031395837483413
6.0698362970147635,-1.798590573768731,0.8531748053407452,1.4672624488840584
6.0518503912770765,-1.7364885359087083,0.8678474298295857,1.3351034755963398
6.034485505917989,-1.676836857137117,0.8811984645855492,1.2063720046391813
6.017717137346618,-1.619339685674988,0.893262184631941,1.080798916230473
6.001523740489868,-1.5637137191629298,0.9040701737942457,0.9581390366229063
5.985886603298239,-1.509689357550777,0.9136515641604748,0.8381716260641283
5.970789709722731,-1.4570110000734888,0.9220332804211161,0.7206996666427844
5.956219599721996,-1.4054368334730312,0.929240277087544,0.6055484230186464
5.942165231387266,-1.3547383366666759,0.9352957613177304,0.49256358451316434
5.9286178480205995,-1.3046996452550799,0.940221397162862,0.38160918752811046
5.915570851568049,-1.2551168646363824,0.9440374890381431,0.2725654448141026
5.903019682921685,-1.205797384181557,0.9467631434862841,0.16532656048699626
5.890961709079869,-1.156559220925805,0.9484164090911541,0.059798578610549546
5.879396116870612,-1.107230405491638,0.9490143948772596,-0.04410270694192203
5.868323812815695,-1.0576484127580903,0.9485733678078404,-0.14645376650360065
5.857747328688114,-1.0076596332972436,0.9471088301428044,-0.2473252658014405
5.847670732355142,-0.9571188775838734,0.94463557748479,-0.3467839126874876
5.838099543579303,-0.9058889026188756,0.9411677383579151,-0.444894220928271
5.829040654553114,-0.8538399493341453,0.9367187961486324,-0.5417201945160685
5.820502255059773,-0.8008492785886558,0.9313015942034717,-0.6373269372208764
5.812493762273886,-0.7468006934670222,0.924928324831263,-0.7317821929910198
5.805025755339216,-0.6915840357791653,0.9176105029013528,-0.8251578235494625
5.798109914981424,-0.6350946450147817,0.9093589246658582,-0.9175312302617475
5.791758968531276,-0.5772327684494122,0.9001836123632407,-1.0089867281577214
5.785986640846782,-0.517902911577449,0.8900937450816635,-1.099616880923765
5.780807611731007,-0.45701311852941595,0.8790975762724258,-1.189523806768633
5.7762374805457135,-0.3944741726016201,0.8672023382047395,-1.2788204663044787
5.772292738819697,-0.33019870748828906,0.8544141335416947,-1.3676319449523733
5.7689907517448145,-0.26410022028199465,0.840737814092171,-1.4560967438285628
5.766349749541995,-0.19609197784641835,0.8261768466538854,-1.5443680945076679
5.76438882976353,-0.12608580885283588,0.8107331657088087,-1.6326153143544744
5.763127971675002,-0.05399077475005508,0.7944070125652639,-1.7210252200539768
5.762588063927502,0.020288285568228176,0.7771967603647242,-1.8098036172247698
5.762790946783184,0.09685234027526562,0.7590987241924765,-1.8991768830803324
5.763759470185937,0.17580987741777634,0.7401069553616731,-1.9893936562597732
5.765517568960115,0.257278739151815,0.7202130187990754,-2.0807266420563937
5.768090356351633,0.34138806110070785,0.6994057523785114,-2.1734745306257066
5.77150423696264,0.4282802857466067,0.6776710070722544,-2.267964007781941
5.775787039820106,0.5181131958115032,0.6549913669944349,-2.3645518088086166
5.780968171778221,0.6110618781803916,0.6313458489063488,-2.4636267194489285
5.787078790560025,0.7073204746416981,0.6067095817118595,-2.5656113560586284
5.794151995306442,0.8071034929282717,0.5810534681512732,-2.6709634454844466
5.802223030235725,0.9106463258430799,0.5543438336964288,-2.7801761546245776
5.8113294934941555,1.0182044363188414,0.526542072150183,-2.893776760156588
5.821511537857344,1.130050380875283,0.49760430454861715,-3.012322556969167
5.832812041666097,1.246467418344818,0.4674810789789255,-3.1363923165898773
5.845276715849545,1.3677378229385648,0.43611715581302674,-3.2665707368741206
5.858954094078931,1.4941231099291317,0.40345144844428554,-3.403422056567719
5.873895325178222,1.6258320952307777,0.36941722787860837,-3.5474472089105666
5.89015364613053,1.7629709691867217,0.3339427557895027,-3.69901644121206
5.9077833558223976,1.9054673858728515,0.2969525913773821,-3.8582662417630957
5.926838029681126,2.052958246948307,0.25836992895975114,-4.024946082388362
5.947367612150609,2.204629353716408,0.21812046813586752,-4.198198214342127
5.969413905687773,2.3589967430446825,0.17613848599244625,-4.3762557614481485
5.99300387311822,2.513629043622339,0.13237592837796475,-4.5560572061119995
6.018140163554444,2.6648355297678354,0.08681535631684476,-4.732810144231724
6.044788518852122,2.807395314875912,0.03948725487452751,-4.899607394910334
6.072862472000881,2.9344817251833666,-0.009508819074575833,-5.047307828103442
6.102207289252714,3.03801548317364,-0.059981897355610256,-5.165005649772123
6.132587444084451,3.109676576354063,-0.1116319538533315,-5.241408273875213
6.163684209847991,3.1425897965435095,-0.1640460365920836,-5.2671463709268025
6.195110107813426,3.133238896087436,-0.21671750030135165,-5.237402497903196
6.2264424967743,3.082732201593559,-0.2690915252803836,-5.153646434131967
6.257269818790236,2.9966470463942922,-0.32062798962170325,-5.023412321054566
6.287236289254179,2.8834641361567304,-0.3708621128322489,-4.858139852200433
6.316070930615746,2.75243248604439,-0.41944351135425323,-4.670246150990156
6.34359525547619,2.6118381256385543,-0.46614597286415477,-4.470769139382023
6.369713636732576,2.4681313523324433,-0.510853664257975,-4.268199617405012
6.394394950255901,2.3258060797096225,-0.5535356604320251,-4.06834472046734
6.417653011052997,2.1876958774375623,-0.5942191076366985,-3.874755165960799
6.4395299698273725,2.055397581232565,-0.6329666592963065,-3.6893180172366415
6.460083945639698,1.9296635613584483,-0.6698598394686729,-3.5127988558414787
6.479380581253283,1.810706538254704,-0.7049878280270877,-3.3452592031905053
6.49748764663583,1.6984147086757548,-0.7384404200589928,-3.1863484857977493
6.514471793722588,1.5924946084734328,-0.7703039049169703,-3.0354960070571866
6.530396739807322,1.4925619232049803,-0.8006588649875421,-2.892031522212134
6.545322359039371,1.3981970917478743,-0.8295791802096635,-2.7552579354609334
6.55930432995685,1.3089780173213694,-0.8571317595642728,-2.6244931550897808
6.572394110130064,1.2244982988681223,-0.8833766911151706,-2.49909265172529
6.584639093118746,1.144376509553718,-0.9083676176324235,-2.378460242860505
6.596082858214283,1.0682600651475587,-0.9321522200610285,-2.2620518835808205
6.606765458865758,0.9958259152710247,-0.9547727388968367,-2.149375445367604
6.616723718018468,0.9267794461373918,-0.9762664933505127,-2.0399883141354036
6.625991512479842,0.8608524470407622,-0.9966663764918667,-1.933493913435999
6.634600036950249,0.7978006554745882,-1.0160013156262266,-1.8295378067057593
6.642578043504995,0.7374011851590111,-1.0342966936932843,-1.7278037532921187
6.649952055356585,0.6794500107469003,-1.0515747312262054,-1.6280099223516435
6.656746555464054,0.6237596027987566,-1.0678548304497217,-1.5299053657322714
6.662984151492042,0.5701567579385031,-1.0831538841070445,-1.4332667899526534
6.668685719071427,0.5184806400651215,-1.097486552006571,-1.337895632289693
6.673870525472078,0.4685810316451747,-1.110865508329468,-1.2436154267379078
6.67855633578853,0.4203167847712061,-1.123301662596847,-1.1502694359522072
6.682759503636242,0.37355445691069816,-1.134804356956369,-1.0577185213381481
6.686495048205349,0.32816711425840944,-1.1453815421697506,-0.9658392228007605
6.689776719347933,0.284033285201361,-1.1550399343977582,-0.874522020821007
6.692617052199947,0.24103604690478783,-1.1637851546059683,-0.7836697555933553
6.695027412668995,0.19906222899598933,-1.171621852161902,-0.6931961803861337
6.697018034958955,0.1580017194987743,-1.1785538139657632,-0.6030246287610963
6.698598052153942,0.11774685939780105,-1.1845840602533741,-0.5130867776325538
6.69977552074792,0.07819191339871205,-1.1897149280296997,-0.4233214902681547
6.700557439881908,0.03923260554553635,-1.1939481429323813,-0.33367372519356486
6.700949765937363,0.0007657093341629576,-1.197284880184317,-0.244093498553229
6.7009574230307045,-0.03731131719357421,-1.1997258151698493,-0.154534888807534
6.700584309858769,-0.07510066018205676,-1.2012711640579248,-0.06495507373005087
6.699833303256948,-0.11270445075699995,-1.2019207147952253,0.024686609472741594
6.698706258749378,-0.1502250456877221,-1.2016738487004979,0.11442958944289502
6.697204008292501,-0.18776529542395717,-1.2005295528060689,0.20431297941061638
6.695326355338262,-0.22542880685106123,-1.1984864230119627,0.294376497156097
6.693072067269751,-0.26332020807433243,-1.1955426580404018,0.38466139382880726
6.690438865189007,-0.30154542263716344,-1.1916960441021138,0.4752113992902356
6.687423410962635,-0.3402119607949785,-1.1869439301092115,0.5660736918358147
6.684021291354686,-0.379429235802527,-1.1812831931908534,0.6572999005038945
6.680226998996661,-0.4193089136197883,-1.1747101941858145,0.7489471486999977
6.676033909860463,-0.45996530499282523,-1.1672207226988145,0.8410791485599853
6.671434256810534,-0.5015158095080057,-1.1588099312132147,0.9337673563511635
6.666419098715454,-0.5440814219326994,-1.1494722576497032,1.0270922002651086
6.660978284496127,-0.5877873119148218,-1.139201335647052,1.1211443931780456
6.655100411376979,-0.6327634888740306,-1.1279898917152715,1.2160263443119923
6.648772776488238,-0.6791455646112015,-1.1158296282721516,1.311853685157898
6.641981320842127,-0.7270756266839039,-1.1027110914205727,1.4087569264038873
6.634710564575288,-0.7767032357780242,-1.0886235221565337,1.5068832637494076
6.626943532217508,-0.8281865598906794,-1.0735546895190395,1.6063985510554546
6.618661666618602,-0.8816936567249977,-1.0574907040084849,1.707489458763799
6.609844730051352,-0.93740391266033,-1.0404158094208469,1.8103658330968604
6.600470690924748,-0.9955096410398117,-1.0223121510898783,1.9152632659472757
6.59051559451435,-1.0562178328277316,-1.0031595184304054,2.022445874597092
6.579953416186072,-1.119752036648804,-0.9829350596844345,2.132209271395854
6.568755895819584,-1.1863543193193828,-0.9616129669704759,2.2448836715208422
6.556892352626391,-1.2562872168224963,-0.9391641302552675,2.36083703460222
6.544329480458166,-1.3298355209843609,-0.9155557599092452,2.48047805200563
6.531031125248322,-1.4073076461939322,-0.8907509793891889,2.6042586585144183
6.516958048786383,-1.4890361639986143,-0.8647083928040448,2.732675538347498
6.502067687146397,-1.5753768519100246,-0.8373816374205698,2.866269770203452
6.486313918627297,-1.6667052321121858,-0.8087189397185353,3.0056232529794564
6.469646866306175,-1.7634090108452805,-0.7786627071887406,3.1513497820517933
6.452012776197723,-1.8658739768361312,-0.7471492093682227,3.3040774747531567
6.433354036429361,-1.9744596509359644,-0.7141084346206912,3.464417494537622
6.413609439920002,-2.0894591451890396,-0.679464259675315,3.6329114766444706
6.3927148484681116,-2.2110351440945366,-0.6431351449088702,3.8099465033633426
6.370604497027166,-2.339120649316419,-0.6050356798752368,3.9956218756933497
