th1 (rad),w1 (rad/s),th2 (rad),w2 (rad/s),a1 (rad/s^2),a2 (rad/s^2)
4.800304549942934,1.3521548310870157,5.323471365530031,-2.991249763769114,14.270810323086524,-5.248973381977148
4.813826098253805,1.494862934317881,5.293558867892339,-3.0437394975888856,14.363853203192772,-5.582760654060623
4.828774727596984,1.6385014663498088,5.263121472916451,-3.0995671041294917,14.408133706694219,-5.849046777206853
4.845159742260482,1.782582803416751,5.2321258018751555,-3.1580575719015602,14.377220128480381,-6.007399394698259
4.86298557029465,1.9263550047015547,5.20054522615614,-3.2181315658485428,14.238984450094037,-6.009043532984016
4.882249120341665,2.068744849202495,5.168363910497654,-3.278222001178383,13.956928958118809,-5.798640306506104
4.90293656883369,2.2083141387836833,5.13558169048587,-3.336208404243444,13.49341906718937,-5.318760681722249
4.925019710221527,2.343248329455577,5.102219606443436,-3.3893960110606667,12.81535753346747,-4.5178314648636135
4.948452193516083,2.471401904790252,5.068325646332829,-3.4345743257093027,11.902234533601582,-3.3614946525532305
4.973166212563985,2.5904242501262678,5.0339799030757355,-3.468189272234835,10.755299985784374,-1.8456535056809258
4.999070455065247,2.6979772499841115,4.999298010353387,-3.486645807291644,9.405091168192088,-0.007340288458344598
5.026050227565088,2.7920281616660323,4.9644315522804705,-3.4867192101762274,7.913588635850931,2.0718392251330093
5.053970509181749,2.8711640480245415,4.929564360178708,-3.4660008179248973,6.368079786538813,4.273842508575754
5.082682149661994,2.9348448458899297,4.894904351999459,-3.4232623928391397,4.866876095830599,6.463801754262788
5.112030598120893,2.9835136068482355,4.860671728071068,-3.358624375296512,3.5010439649726917,8.515380141901684
5.141865734189375,3.0185240464979626,4.827085484318103,-3.273470573877495,2.3385798547641836,10.332922384040378
5.172050974654355,3.0419098450456046,4.794350778579329,-3.170141350037091,1.4161842451193005,11.863172156457763
5.202470073104811,3.0560716874967975,4.762649365078958,-3.0515096284725134,0.7398926026383221,13.094727269889205
5.233030789979779,3.063470613523181,4.7321342687942325,-2.9205623557736216,0.2920893820387724,14.04860251130949
5.263665496115011,3.0663915073435684,4.702928645236496,-2.7800763306605267,0.0409278841984355,14.76538459918409
5.294329411188446,3.066800786185553,4.675127881929891,-2.6324224846686857,-0.0511012053577181,15.293488570131485
5.324997419050302,3.0662897741319757,4.648803657083204,-2.4794875989673706,-0.021053751568321878,15.680742674609844
5.355660316791622,3.0660792366162926,4.62400878109353,-2.322680172221272,0.09795208171163225,15.969564200588417
5.386321109157785,3.0670587574334087,4.600781979371318,-2.162984530215388,0.27815604135054156,16.194954640699404
5.4169916967321186,3.0698403178469142,4.579152134069164,-2.0010349838083936,0.49725810069519893,16.38429414405325
5.447690099910588,3.074812898853866,4.55914178423108,-1.8371920423678612,0.7378298877439381,16.558077705391078
5.478438228899127,3.0821911977313055,4.540769863807402,-1.6716112653139503,0.9864587739796776,16.73101461467635
5.50926014087644,3.092055785471102,4.524053751154262,-1.504301119167187,1.2328675955241288,16.913160430577967
5.540180698731151,3.1043844614263434,4.50901073996259,-1.3351695148614073,1.469127051042062,17.11092342344111
5.571224543345414,3.119075731936764,4.4956590448139755,-1.1640602806269962,1.6890024822909788,17.327890711801455
5.602415300664782,3.1359657567596737,4.484018442007706,-0.9907813735089817,1.887437371437388,17.565473340830103
5.633774958232379,3.1548401304740477,4.474110628272616,-0.8151266401006806,2.060158564583876,17.82339345210908
5.665323359537119,3.1754417161198862,4.465959361871609,-0.6368927055795898,2.203382958342529,18.1000441691581
5.697077776698318,3.1974755457033117,4.459590434815813,-0.45589226388800874,2.31360595454589,18.392752349206273
5.729052532155351,3.2206116052487705,4.455031512176933,-0.271964740395946,2.3874549077924336,18.697970658154933
5.761258648207839,3.2444861543266947,4.452311864772973,-0.08498503381439665,2.421594271121208,19.01142090544372
5.793703509751106,3.268702097037907,4.45146201443483,0.10512917524004056,2.4126723624701056,19.32820629491724
5.826390530721485,3.2928288206626077,4.45251330618723,0.298411238189213,2.3573023127238124,19.642906577169402
5.859318818928111,3.316401843789846,4.455497418569122,0.49484030396090706,2.252071745607106,19.94966706455438
5.89248283736601,3.338922561245917,4.460445821608731,0.6943369746064508,2.093577118193025,20.242289989184773
5.925872062978469,3.3598583324278475,4.467389191354796,0.8967598744982985,1.8784794948429762,20.514334603584004
5.959470646302747,3.3786431273762774,4.4763567900997785,1.1019032205341386,1.6035789218256435,20.759230606903834
5.9932570775765095,3.394678916594534,4.48737582230512,1.309495526603177,1.2659045969434055,20.97040781782586
6.027203866742455,3.407337962563968,4.500470777571151,1.5191996047814356,0.8628177658669327,21.141443434089844
6.061277246368094,3.4159661402226376,4.515662773618966,1.730614039122334,0.3921237988388872,21.266226678872293
6.0954369077703205,3.4198873782110266,4.53296891401019,1.943276305911057,-0.14781071923456,21.339139129155868
6.129635781552431,3.418409271018681,4.5524016770693,2.1566676972026158,-0.7579407430083599,21.35524757147138
6.163819874262618,3.410829863588597,4.573968354041326,2.3702201729173296,-1.4384309112466218,21.310504878180186
6.197928172898504,3.396445554476131,4.597670555770499,2.5833252216991314,-2.1885552415902865,21.201953200180384
6.231892628443265,3.374560002060228,4.623503807987491,2.795344753700935,-3.0066150042469344,21.02792279614122
6.265638228463867,3.344493852017759,4.6514572555245,3.0056239816623473,-3.889881658558276,20.78821913500706
6.299083166984045,3.305595035432176,4.6815134953411235,3.213506173012418,-4.834571712790982,20.484290589449326
6.332139117338366,3.2572493183042663,4.713648557071248,3.4183490789069113,-5.835860004460332,20.119369153881184
6.364711610521409,3.198890718259663,4.747832047860317,3.6195427704457233,-6.887937143427614,19.698577239052568
6.396700517704006,3.1300113468253867,4.784027475564774,3.8165285428362488,-7.9841156742188115,19.22899477659107
6.42800063117226,3.0501701900831986,4.822192760993136,4.00881849060216,-9.116987882131227,18.7196826572021
6.458502333073092,2.959000311261886,4.862280945899158,4.19601531717418,-10.27863611008431,18.18166094466467
6.488092336185711,2.856213950161043,4.9042410990709,4.377831926620827,-11.460894038968616,17.627843328725437
6.5166544756873215,2.741605009771357,4.9480194183371085,4.554110359908081,-12.65565474060436,17.072932812570006
6.544070525785035,2.6150484623653134,4.993560521936189,4.72483968803378,-13.855218623548243,16.53328749789755
6.570221010408688,2.476496276129831,5.040808918816527,4.890172563012756,-15.052671880573808,16.02676925322841
6.594985973169987,2.325969557324093,5.089710644446654,5.05044025554504,-16.24228393025917,15.572591634118531
6.618245668743228,2.163546718021501,5.140215047002105,5.206166171886226,-17.4199107605914,15.191186142009128
6.639881135923443,1.9893476104155872,5.192276708720967,5.358078033306317,-18.58338997028078,14.904107067597808
6.659774612027599,1.8035137107127794,5.24585748905403,5.507119103982295,-19.732912237350437,14.733993801600944
6.677809749134727,1.6061845883392751,5.300928680093853,5.6544590419983045,-20.87135187447021,14.704604140742793
6.693871595018119,1.3974710695945731,5.357473270513836,5.801505083405733,-22.004533967580286,14.840920292059424
6.707846305714065,1.1774257299187703,5.415488321347893,5.949914286326327,-23.141403492891534,15.169306508940739
6.719620563013253,0.9460116949898549,5.474987464211156,6.101607351415734,-24.294035864075354,15.717655227294868
6.729080679963151,0.7030713363491014,5.536003537725313,6.258783903688683,-25.477376221511985,16.51538150437172
6.7361113933266425,0.44829757413398147,5.5985913767622,6.4239377187324,-26.708494266556094,17.592984115884054
6.740594369067982,0.18121263146842054,5.662830753949524,6.599867559891241,-28.004952877912604,18.980631657660954
6.742406495382666,-0.0988368973107055,5.728829429548436,6.78967387646785,-29.381542307031808,20.70475608386988
6.74141812640956,-0.3926523203810236,5.796726168313114,6.996721437306549,-30.84401016761428,22.78077793348921
6.73749160320575,-0.7010924220571664,5.866693382686179,7.224529216641441,-32.37734445907541,25.198591700782497
6.730480678985178,-1.0248658666479205,5.938938674852594,7.476515133649266,-33.92445172500274,27.895015528508747
6.720232020318699,-1.3641103838979478,6.0137038261890865,7.755465288934353,-35.34878867111813,30.704101895451434
6.706590916479719,-1.717598270609129,6.09125847907843,8.062506307888867,-36.37302776669961,33.27381357245439
6.6894149337736275,-2.081328548276125,6.171883542157318,8.39524444361341,-36.490813888853474,34.94376036609754
6.668601648290866,-2.4462366871646597,6.2558359865934525,8.744682047274386,-34.876026855081314,34.615426945133414
6.6441392814192195,-2.794996955715473,6.343282807066196,9.09083631672572,-30.392353918815534,30.753617845729117
6.6161893118620645,-3.098920494903628,6.434191170233453,9.398372495183011,-21.935080375814575,21.836712401371173
6.585200106913028,-3.3182712986617737,6.528174895185283,9.616739619196723,-9.32400323805986,7.559454150416906
6.552017393926411,-3.411511331042372,6.624342291377251,9.692334160700891,5.662042522359248,-9.767114021061925
6.517902280615987,-3.3548909058187797,6.7212656329842595,9.594663020490271,19.535041156380416,-25.562827347110353
6.484353371557799,-3.1595404942549754,6.8172122631891625,9.339034747019168,29.25547772231858,-35.89975104995008
6.452757966615249,-2.8669857170317896,6.910602610659354,8.980037236519667,34.09509461090293,-39.96989193129201
6.424088109444932,-2.5260347709227604,7.000402983024551,8.580338317206747,35.22358226227324,-39.45275852770323
6.398827761735704,-2.173798948300028,7.086206366196619,8.185810731929715,34.23810312639368,-36.51205471080103
6.377089772252703,-1.8314179170360911,7.168064473515916,7.8206901848217045,32.32049356945776,-32.694745796476795
6.358775593082343,-1.5082129813415135,7.246271375364133,7.4937427268569365,30.13744984014133,-28.83686354230349
6.343693463268928,-1.2068384829401002,7.321208802632702,7.205374091433901,28.004111125394058,-25.305965240200837
6.331625078439527,-0.9267973716861596,7.393262543547041,6.952314439031893,26.043503263861417,-22.222905663185063
6.322357104722665,-0.6663623390475455,7.46278568793736,6.730085382400042,24.28574629557984,-19.595330093827517
6.31569348133219,-0.4235048760917471,7.53008654176136,6.534132081461767,22.720398864124743,-17.385792909712634
6.311458432571272,-0.19630088745049964,7.595427862575978,6.36027415236464,21.321868445885826,-15.543389001285156
6.3094954236967675,0.01691779700835863,7.659030604099624,6.204840262351789,20.06103739839246,-14.01723862914428
6.309664601666851,0.21752817099228325,7.721079006723142,6.064667876060346,18.910223432658686,-12.761500456836803
6.311839883376774,0.4066304053188701,7.781725685483745,5.937052871491978,17.84503496128091,-11.736632985986759
6.315906187429963,0.5850807549316792,7.841096214198665,5.81968654163211,16.84483611284935,-10.909114360626784
6.32175699497928,0.7535291160601727,7.899293079614987,5.710595398025842,15.89262765553135,-10.250622980078349
6.329292286139882,0.9124553926154861,7.956399033595245,5.608089168225058,14.974713211136228,-9.73711558518054
6.338416840066037,1.0622025247268485,8.012479925277496,5.510718012373253,14.08031289980159,-9.347979339585246
6.349038865313306,1.2030056537248643,8.067587105401229,5.417238218977401,13.201189676900519,-9.065317472768543
6.3610689218505545,1.3350175504938695,8.121759487591003,5.326585044249716,12.331309543309061,-8.873377405761376
6.374419097355493,1.45833064592696,8.1750253380335,5.237851270192102,11.466537897036451,-8.758109891808331
6.389002403814763,1.5729960248973245,8.22740385073542,5.150270171274018,10.604367269718969,-8.706840778100158
6.404732364063736,1.679039697594514,8.278906552448161,5.063201763493017,9.743670146281627,-8.708035795500365
6.421522761039681,1.7764763990573305,8.329538570083091,4.976121405538013,8.88447138817348,-8.75113982985344
6.439287525030254,1.8653211129390652,8.379299784138471,4.888610007239478,8.02773644987764,-8.826473927147251
6.457940736159645,1.9455984774378416,8.428185884210865,4.800345267968006,7.175173351545967,-8.925175252086182
6.477396720934023,2.0173502109533015,8.476189336890545,4.7110935154471445,6.329047891646964,-9.039167169307529
6.497570223043557,2.080640689869771,8.523300272045017,4.620701843754069,5.492012697982189,-9.161148515812943
6.518376629942254,2.1355608168495928,8.569507290482557,4.52909035859594,4.666951380824678,-9.284592990373644
6.53973223811075,2.1822303306578394,8.614798194068516,4.436244428692203,3.8568392925714345,-9.403751402429277
6.561554541417328,2.220798723583554,8.659160638355438,4.34220691466791,3.0646222796056324,-9.513651280150176
6.583762528653163,2.25144494637961,8.702582707502117,4.2470704018664085,2.2931144229631015,-9.610089996636384
6.606276978116959,2.274376090609241,8.74505341152078,4.150969501900045,1.544915203236879,-9.68961908642608
6.629020739023051,2.28982524264161,8.78656310653978,4.0540733110357845,0.8223458878676644,-9.749518744084233
6.651918991449468,2.2980487015202864,8.827103839650139,3.956578123594942,0.1274043097124146,-9.787762585239607
6.6748994784646705,2.2993227446174105,8.86666962088609,3.858700497742546,-0.5382633494998025,-9.802973586904024
6.697892705910845,2.2939401111224123,8.905256625863515,3.760670761873506,-1.1733755939953416,-9.794372705857
6.720832107022069,2.282206355182459,8.94286333348225,3.6627270348149357,-1.7770155855249632,-9.761722016742644
6.743654170573894,2.2644361993272093,8.9794906038304,3.565109814647509,-2.348620320099941,-9.705264345093761
6.766298532567166,2.24094999612621,9.015141701976875,3.4680571711965715,-2.887961294241902,-9.625661334018563
6.788708032528429,2.212070383183791,9.049822273688841,3.371800557856386,-3.395118848508697,-9.52393172021155
6.810828736360267,2.178119194698704,9.083540279267405,3.2765612406542703,-3.870452193978253,-9.401391348192327
6.832609928307254,2.1394146727589214,9.116305891673948,3.182547327172347,-4.314566888108285,-9.259596159922205
6.854004075034843,2.0962690038778384,9.148131364945671,3.0899513655731248,-4.728281256385232,-9.100289092288886
6.874966765073621,2.048986191313986,9.179030878601402,2.998948474650236,-5.112592977927679,-8.925351521786254
6.8954566269867605,1.9978602615347094,9.209020363347905,2.9096949594323736,-5.468646784227739,-8.736759630747649
6.9154352296021075,1.943173793692432,9.23811731294223,2.822327363124897,-5.797703972818887,-8.53654584246996
6.9348669675390315,1.8851967539642431,9.26634058657348,2.7369619047001974,-6.101114219382742,-8.326765287523788
6.953718935078674,1.8241856117704156,9.293710205620481,2.6536942518249593,-6.380289986155174,-8.109467120194346
6.971960791196379,1.7603827119088638,9.320247148138732,2.5725995806230157,-6.636683671861054,-7.886670399108179
6.989564618315468,1.6940158751902532,9.345973143944962,2.4937328766319338,-6.871767527006066,-7.660344174704329
7.00650477706737,1.6252981999201925,9.37091047271128,2.4171294348848904,-7.087016265025958,-7.432391382564859
7.022757759066572,1.554428037269933,9.395081767060129,2.342805521059242,-7.283892230686615,-7.20463611992589
7.038302039439271,1.4815891149630669,9.418509822270721,2.270759159859983,-7.463832938198532,-6.9788138775448045
7.053117930588902,1.4069507855810817,9.441217413869321,2.200971021084535,-7.628240758867785,-6.756564305771627
7.067187438444713,1.3306683779924038,9.463227124080166,2.133405378026819,-7.778474518230137,-6.539426108215035
7.080494122224637,1.2528836328101025,9.484561177860435,2.0680111169446684,-7.915842752456509,-6.328833675646889
7.093022958552738,1.1737252052855374,9.505241289029883,2.0047227801881995,-8.041598370835388,-6.126115094326383
7.104760210605593,1.0933092215771836,9.525288516831765,1.9434616292449356,-8.156934473278607,-5.932491184955455
7.115693302821365,1.0117398768443975,9.544723133124213,1.8841367173953811,-8.26298107745867,-5.749075249749144
7.125810701589809,0.9291100660698107,9.563564500298167,1.8266459648978897,-8.360802518157188,-5.57687322480612
7.135101802250507,0.8455020408882389,9.581830959947146,1.7708772326498285,-8.451395290815453,-5.416783952647973
7.143556822659389,0.7609880879800843,9.599539732273644,1.7167093931233488,-8.535686121549116,-5.269599305314677
7.1511667035391895,0.6756312267645932,9.616706826204878,1.664013400070202,-8.614530056694022,-5.136003901877611
7.157923015806835,0.5894859261976529,9.63334696020558,1.612653361051426,-8.688708376190846,-5.016574176025991
7.163817875068812,0.5025988424357445,9.649473493816094,1.562487619291166,-8.75892614690597,-4.911776560109356
7.168843863493169,0.4150095809666848,9.665098370009005,1.5133698536900726,-8.825809244645365,-4.821964562548263
7.172993959302836,0.3267514885202311,9.680232068545905,1.46515020806459,-8.889900687676302,-4.74737452701316
7.176261474188038,0.2378524816434681,9.694883570626551,1.4176764627944582,-8.95165614077239,-4.688119875685358
7.178639999004473,0.1483359202357442,9.709060335254495,1.3707952640376047,-9.011438468105812,-4.644183657068656
7.1801233582068305,0.058221535554686094,9.722768287894871,1.3243534274669182,-9.069511236917096,-4.615409243398924
7.180705573562378,-0.03247357681448487,9.73601182216954,1.278199335032929,-9.126031103202672,-4.601489056265593
7.180380837794233,-0.1237338878465116,9.74879381551987,1.2321844444702732,-9.181039047272346,-4.601951244539723
7.179143498915767,-0.21554427831923506,9.761115659964572,1.186164932024876,-9.234450472681113,-4.616144299331606
7.176988056132575,-0.30788878304604617,9.772977309284821,1.1400034890315598,-9.286044238524445,-4.643219669902211
7.173909168302115,-0.4007492254312906,9.784377344175136,1.0935712923325376,-9.33545076411673,-4.682112545653989
7.169901676047802,-0.4941037330724579,9.795313057098461,1.0467501668759978,-9.38213942809158,-4.731521095671843
7.164960638717077,-0.5879251273533738,9.805780558767221,0.9994349559192793,-9.425405581890297,-4.789884611233008
7.1590813874435435,-0.6821791831722768,9.815774908326414,0.9515361098069492,-9.464357610514027,-4.8553611795025144
7.152259595611821,-0.7768227592774171,9.825290269424483,0.9029824980119241,-9.497904600153205,-4.925805727666058
7.144491368019047,-0.8718018052789491,9.834320094404603,0.8537244407352635,-9.52474531006711,-4.998749512787741
7.135773349966257,-0.9670492583796202,9.842857338811957,0.8037369456073862,-9.543359289979485,-5.071382387045842
7.126102857382461,-1.062482851279415,9.850894708268031,0.7530231217369278,-9.552001126934908,-5.140539429792655
7.115478028869667,-1.1580028625487642,9.8584249394854,0.7016177274390012,-9.548698936977948,-5.202693791331233
7.10389800024418,-1.2534898519185436,9.865441116759792,0.6495907895256888,-9.53125832441666,-5.253957817425724
7.091363101724994,-1.3488024351627101,9.871937024655049,0.5970512113514316,-9.497273099686954,-5.2900946923627545
7.077875077373367,-1.4437751661595797,9.877907536768562,0.544150264427804,-9.444144059233254,-5.306542921723615
7.063437325711771,-1.5382166067519123,9.88334903941284,0.49108483521056784,-9.36910707036001,-5.298455941399641
7.048055159644251,-1.6319076774555124,9.888259887764946,0.4381002757965714,-9.26927155519314,-5.260758954611243
7.031736082869696,-1.7246003930074438,9.89264089052291,0.38549268625045896,-9.141670218919288,-5.188224735520888
7.014490078939622,-1.8160170951966368,9.896495817385416,0.3336104388952501,-8.98332051255741,-5.075569576303315
6.996329907987656,-1.905850300322211,9.899831921774368,0.2828547431322169,-8.791297861963619,-4.917569786444984
6.9772714049844335,-1.9937632789418471,9.90266046920569,0.2336790452677671,-8.562820144294975,-4.709198186734995
6.957333772195015,-2.079391480384797,9.904997259658368,0.18658706340041714,-8.295342271996326,-4.44577890214117
