th1 (rad),w1 (rad/s),th2 (rad),w2 (rad/s),a1 (rad/s^2),a2 (rad/s^2)
1.559311056393579,-1.1985663146879928,3.977897114310494,-2.707692503594375,-6.959985243073169,1.1040554923782049
1.547325393246699,-1.2681661671187245,3.95082018927455,-2.696651948670593,-7.058986076865014,0.7887495175907284
1.5346437315755117,-1.3387560278873747,3.923853669787844,-2.6887644534946857,-7.155873450600619,0.458836877664418
1.521256171296638,-1.410314762393381,3.896966025252897,-2.6841760847180414,-7.24964168881819,0.1144501956644578
1.5071530236727042,-1.4828111792815628,3.8701242644057166,-2.6830315827613966,-7.339311153762538,-0.24429873584152928
1.4923249118798885,-1.5562042908191882,3.843293948578103,-2.685474570119812,-7.423909825976252,-0.6172944370892725
1.4767628689716965,-1.6304433890789507,3.8164392028769045,-2.691647514490705,-7.502455990256006,-1.0043948668705986
1.460458435080907,-1.7054679489815108,3.7895227277319976,-2.7016914631594107,-7.573941861202757,-1.4054099042598944
1.4434037555910917,-1.7812073675935383,3.7625058131004034,-2.7157455622020095,-7.6373180121491435,-1.820080928204737
1.4255916819151564,-1.8575805477150298,3.7353483574783835,-2.733946371484057,-7.6914785107757035,-2.2480612771602835
1.407015876438006,-1.9344953328227867,3.7080088937635427,-2.7564269842556595,-7.735246711436566,-2.6888974191687525
1.3876709231097781,-2.0118477999371525,3.680444623920986,-2.783315958447347,-7.767361706321397,-3.1420107173057166
1.3675524451104066,-2.0895214170003666,3.6526114643365126,-2.814736065620404,-7.786465493982133,-3.6066797355224804
1.346657230940403,-2.167386071940188,3.6244641036803085,-2.850802862975629,-7.79109098377767,-4.0820230954834855
1.3249833702210012,-2.245296981777965,3.595956075050552,-2.891623093930464,-7.779651018000106,-4.5669829662489505
1.3025304004032217,-2.323093491957966,3.5670398441112474,-2.9372929235929535,-7.750428659483958,-5.0603093459587445
1.279299465483642,-2.4005977785528057,3.537666914875318,-2.987896017052541,-7.701569060957587,-5.560545378421272
1.2552934876981139,-2.4776134691623817,3.5077879547047925,-3.0435014708367536,-7.631073302702387,-6.0660140379894605
1.2305173530064901,-2.5539242021894055,3.477352939996425,-3.1041616112166484,-7.536794656389583,-6.574806613406615
1.204978110984596,-2.629292148753301,3.4463113238842586,-3.1699096773507147,-7.41643780401546,-7.084773525229273
1.1786851894970631,-2.7034565267934556,3.4146122271107515,-3.2407574126030076,-7.267561609855621,-7.593518121381341
1.1516506242291287,-2.7761321428920116,3.3822046529847216,-3.3166925938168212,-7.0875861077857065,-8.098394210223177
1.1238893028002086,-2.8470080039698686,3.3490377270465532,-3.397676535919053,-6.8738044226998465,-8.596508208350379
1.09541922276051,-2.915746048196867,3.3150609616873625,-3.4836416180025567,-6.623400388406267,-9.084726898283973
1.0662617622785413,-2.9819800520809294,3.280224545507337,-3.5744888869853964,-6.3334726490432915,-9.559691905012977
1.036441961757732,-3.0453147785713623,3.244479656637483,-3.670085806035526,-6.001066028561462,-10.01784210388571
1.0059888139720183,-3.105325438856977,3.2077787985771278,-3.7702642270743834,-5.623210912669382,-10.455445257069297
0.9749355595834486,-3.161557547983671,3.1700761563063837,-3.8748186796450765,-5.196971296713839,-10.86864023008337
0.9433199841036118,-3.2135272609508094,3.131327969509933,-3.98350508194591,-4.719501995335574,-11.25349114845277
0.9111847114941037,-3.260722280904165,3.091492918690474,-4.096039993430438,-4.188115266862459,-11.606054797889259
0.8785774886850621,-3.3026034335727896,3.0505325187561696,-4.21210054140933,-3.600356756824155,-11.922462426072453
0.8455514543493342,-3.3386070011410314,3.008411513342076,-4.331325165670055,-2.9540901898861027,-12.199016843187694
0.8121653843379238,-3.368147903039892,2.9650982616853754,-4.453315334101932,-2.247589619353642,-12.432305313618349
0.778483905307525,-3.3906237992334285,2.920565108344356,-4.577638387238116,-1.4796372658322348,-12.619328156408464
0.7445776673151907,-3.405420171891751,2.874788724471975,-4.7038316688022,-0.6496240407910111,-12.75764220863773
0.7105234655962732,-3.4119164122996612,2.827750407783953,-4.831408090888577,0.24235122621403724,-12.84551734992706
0.6764043014732766,-3.4094929000375207,2.779436326875067,-4.959863264387848,1.1953890139598229,-12.882103158149228
0.6423093724729013,-3.3975390098979226,2.7298376942311884,-5.08868429596934,2.207709148712807,-12.867601520079345
0.6083339823739221,-3.3754619184107946,2.678950851271495,-5.217360311170133,3.2765911343886605,-12.803439752819415
0.5745793631898142,-3.342696007066908,2.6267772481597937,-5.345394708698327,4.39834314625244,-12.692437646964239
0.5411524031191451,-3.298712575604384,2.5733233010728105,-5.472319085167969,5.568308562256471,-12.538961012059076
0.5081652773631014,-3.243029489981819,2.5186001102211306,-5.59770869528856,6.7809188393344115,-12.34905401657734
0.47573498246328316,-3.175220301588475,2.462623023268245,-5.721199235454334,8.0298007510171,-12.130543110205569
0.4439827794473984,-3.094922294078304,2.4054110309137013,-5.84250466655639,9.307944387326456,-11.893106818046691
0.41303355650661533,-3.001842850205039,2.3469859842481373,-5.961435734736856,10.607935872323829,-11.648308365505313
0.38301512800456494,-2.8957634914818007,2.287371626900769,-6.077918818391909,11.922255601915234,-11.40959198515784
0.35405749308974693,-2.7765409354626485,2.2265924387168496,-6.192014738243488,13.243639214811743,-11.19224878783293
0.3262920837351204,-2.644104543314531,2.1646722913344147,-6.303937226121818,14.565494892327203,-11.013364004944183
0.2998510383019751,-2.4984495943912592,2.1016329190731966,-6.41407086617126,15.882367442344773,-10.89176382975997
0.2748665423580625,-2.3396259199678116,2.037492210411484,-6.522988504468859,17.190437472926234,-10.847986478502476
0.2514702831583844,-2.167721545238549,1.9722623253667955,-6.631468369253884,18.488043195391214,-10.904307843707935
0.2297930677059989,-1.982841113284637,1.9059476416742567,-6.740511447690964,19.77621311287316,-11.084856517995819
0.20996465657315252,-1.7850789821559054,1.838542527197347,-6.851360012870922,21.05919960835419,-11.415855127298029
0.19211386675159348,-1.5744869860723636,1.7700289270686378,-6.965518564143902,22.3450049025964,-11.926023394767093
0.17636899689086985,-1.3510369370463995,1.7003737414271987,-7.084778798091572,23.645889123016925,-12.647170379541022
0.16285862752040586,-1.1145780458162302,1.629525953446283,-7.211250501886982,24.97883964879611,-13.614983031589183
0.15171284706224356,-0.8647896493282691,1.5574134484274131,-7.3474003322028745,26.365950521103617,-14.869973032710519
0.14306495056896087,-0.601130144117233,1.4839394451053844,-7.49610006252998,27.834589085128187,-16.458447298217568
0.13705364912778856,-0.3227842532659511,1.4089784444800846,-7.660684535512155,29.417071526920243,-18.43316392804199
0.13382580659512905,-0.028613537996748706,1.332371599124963,-7.845016174792575,31.149243995772647,-20.85290974085623
0.13353967121516155,0.28287890196097776,1.253921437377037,-8.053545272201138,33.06669992530793,-23.779352389340524
0.13636846023477134,0.613545901214057,1.1733859846550256,-8.291338796094543,35.19601893913622,-27.2677088532917
0.14250391924691191,0.9655060906054194,1.0904725966940803,-8.56401588462746,37.535755604219624,-31.344139169619876
0.1521589801529661,1.3408636466476156,1.0048324378478057,-8.877457276323659,40.01689955194889,-35.955823238607294
0.16556761661944228,1.7410326421671045,0.9160578650845691,-9.237015508709732,42.42409728191637,-40.86775665318238
0.1829779430411133,2.165273614986268,0.8236877099974718,-9.645693075241555,44.24879998765316,-45.465411017835535
0.204630679190976,2.6077616148628,0.7272307792450562,-10.10034718541991,44.45006327953659,-48.42646206061841
0.230708295339604,3.052262247658166,0.6262273073908571,-10.584611806026095,41.18259664776423,-47.33632085647322
0.2612309178161856,3.464088214135808,0.5203811893305961,-11.057975014590827,31.862952449233983,-38.746741782070806
0.2958717999575437,3.782717738628148,0.4098014391846878,-11.445442432411536,14.485664309154862,-19.923030489540796
0.3336989773438252,3.9275743817196966,0.29534701486057247,-11.644672737306944,-9.34586271584631,7.0779523061655265
0.37297472116102215,3.8341157545612337,0.17890028748750303,-11.573893214245288,-32.826127014472654,33.30108751557135
0.4113158787066345,3.505854484416507,0.06316135534505014,-11.240882339089575,-48.64342669409471,49.29968967094936
0.4463744235507996,3.01942021747556,-0.04924746804584561,-10.747885442380081,-55.16112943982689,53.34199670974512
0.4765686257255552,2.4678089230772913,-0.1567263224696464,-10.21446547528263,-55.45377047013071,49.83405385580923
0.5012467149563281,1.9132712183759841,-0.2588709772224727,-9.716124936724537,-52.96473053784767,43.41732732443704
0.520379427140088,1.3836239129975074,-0.35603222658971806,-9.281951663480166,-49.71850910313968,36.702502651935305
0.5342156662700631,0.8864388219661106,-0.4488517432245197,-8.914926636960812,-46.58042064850765,30.734009525771498
0.5430800544897242,0.4206346154810341,-0.5380010095941279,-8.607586541703098,-43.82115505356475,25.79021784384451
0.5472864006445345,-0.01757693505461344,-0.6240768750111588,-8.349684363264652,-41.46328712729142,21.851809028526016
0.5471106312939884,-0.4322098063275277,-0.7075737186438054,-8.131166272979392,-39.44171565139197,18.80885541904679
0.5427885332307131,-0.8266269628414474,-0.7888853813735993,-7.943077718788924,-37.66928834993598,16.539613509079732
0.5345222636022986,-1.2033198463408072,-0.8683161585614886,-7.777681583698127,-36.061359325045835,14.935728877580145
0.5224890651388905,-1.5639334395912656,-0.9460929743984698,-7.628324294922325,-34.54389445003211,13.906995547776768
0.5068497307429778,-1.9093723840915868,-1.0223762173476931,-7.489254339444557,-33.055413568749856,13.379106230133768
0.48775600690206194,-2.239926519779085,-1.0972687607421387,-7.355463277143219,-31.546858637296648,13.289574034576665
0.4653567417042711,-2.5553951061520515,-1.170823393513571,-7.2225675367974524,-29.980914996201022,13.583722047970443
0.4398027906427506,-2.8552042561140616,-1.2430490688815454,-7.086730316317748,-28.331278499809432,14.211372006552159
0.41125074808160994,-3.1385170411121557,-1.313916372044723,-6.944616596252226,-26.58195800373929,15.124391041112867
0.3798655776704884,-3.4043366211495485,-1.3833625380072452,-6.793372685841097,-24.726562149654544,16.275083834296737
0.3458222114589929,-3.651602242646094,-1.4512962648656562,-6.63062184749813,-22.767490218266484,17.61535305181481
0.30930618903253193,-3.879277144828759,-1.5176024833406374,-6.454468316979982,-20.714965187086918,19.096520987369647
0.27051341758424435,-4.086426796699628,-1.5821471665104372,-6.263503107106286,-18.585883782091084,20.669686309555075
0.22964914961724808,-4.272285634520539,-1.6447821975815,-6.056806244010735,-16.402497808092,22.28647712941846
0.1869262932720427,-4.436310612601459,-1.7053502600216073,-5.833941472716551,-14.190974166334854,23.90005707701707
0.1425631871460281,-4.578220354264808,-1.7636896747487727,-5.59494090194638,-11.979902459736046,25.466246774399387
0.09678098360338,-4.698019378862168,-1.8196390837682366,-5.340278434202387,-9.798827120750234,26.94463898219067
0.04980078981475832,-4.7960076500696704,-1.8730418681102605,-5.07083204438048,-7.676876799638631,28.299609216212218
0.0018407133140616178,-4.872776418066056,-1.9237501885540653,-4.787835952218358,-5.641550762178014,29.50115059407364
-0.046887050866598945,-4.929191925687837,-1.971628548076249,-4.492824446277622,-3.7177046630820323,30.525487744046767
-0.09617897012347731,-4.966368972318657,-2.016556792539025,-4.187569568837154,-1.9267603230153612,31.355446661324187
-0.1458426598466639,-4.985636575548811,-2.0584324882273966,-3.8740151022239124,-0.2861487635458352,31.980574236622044
-0.195699025602152,-4.988498063184269,-2.0971726392496355,-3.554209359857692,1.1910161965557047,32.397013462045884
-0.24558400623399468,-4.976587901218712,-2.1327147328482123,-3.230239225237233,2.4960453433110654,32.60714979038875
-0.2953498852461818,-4.951627447785602,-2.1650171251005847,-2.9041677273333453,3.6245808653782077,32.61905261617058
-0.3448661597240378,-4.9153816391318195,-2.194058802373918,-2.5779772011716395,4.576326812382406,32.44574440913311
-0.394019976115356,-4.869618371007995,-2.2198385743856344,-2.2535197570803085,5.35463289617502,32.104338538558856
-0.44271615982543594,-4.816072042046245,-2.2423737719564376,-1.93247637169472,5.965966109954738,31.615094129471416
-0.4908768802458984,-4.756412380946697,-2.2616985356733847,-1.6163254304000059,6.419308112192482,31.000440767275066
-0.5384410040553653,-4.692219299824773,-2.277861789977385,-1.3063210227272553,6.7255176402276975,30.284026109607314
-0.5853631970536131,-4.624964123422496,-2.2909250002046577,-1.003480761631182,6.896695806808307,29.489834830819902
-0.631612838287838,-4.5559971653544125,-2.3009598078209694,-0.708582413322983,6.945587934010883,28.641418166983286
-0.6771728099413821,-4.486541286014304,-2.308045631954199,-0.42216823165315015,6.885049106120366,27.76126087296069
-0.7220382228015251,-4.4176907949531,-2.3122673142707306,-0.14455562292354324,6.727592827863463,26.870298373378397
-0.7662151307510561,-4.350414866674465,-2.313712870499966,0.12414736081024075,6.485034210472748,25.98758304433694
-0.8097192794178008,-4.285564524569738,-2.3124713968918638,0.3840231912536102,6.1682320883299395,25.130086284773203
-0.8525749246634982,-4.223882203686438,-2.3086311649793276,0.6353240541013422,5.78692929347917,24.312613076764023
-0.8948137467003625,-4.166012910751647,-2.302277924438314,0.8784501848689824,5.349687605456654,23.5477981311963
-0.936473875807879,-4.11251603469708,-2.2934934225896244,1.1139281661809455,4.86391402897298,22.84614684821489
-0.9775990361548498,-4.0638768944073504,-2.282354140927815,1.3423896346630944,4.335978278888924,22.216079034116294
-1.0182378050989234,-4.020517111618461,-2.268930244581184,1.5645504250042572,3.771427926326987,21.66392705015119
-1.058442976215108,-3.982802832355191,-2.253284740331141,1.781189695505769,3.1753179730879757,21.193830984379193
-1.09827100453866,-3.9510496526243113,-2.2354728433760833,1.993128005349561,2.552686254584962,20.80745955042868
-1.137781501064903,-3.9255227900784617,-2.2155415633225877,2.201202600853848,1.909225671972127,20.503464881785252
-1.1770367289656876,-3.9064305333587406,-2.193529537314049,2.4062372496717006,1.2522290274488805,20.276551241615497
-1.216101034299275,-3.893908243084252,-2.1694671648173323,2.6090027620878558,0.5919106155442296,20.116003643820655
-1.2550401167301175,-3.8879891369288098,-2.143377137196454,2.810162798526062,-0.0567656220060019,20.00349102304167
-1.2939200080994055,-3.8885567931488696,-2.1152755092111932,3.010197708756479,-0.6716158139899471,19.909953648235092
-1.3328055760308943,-3.895272951288769,-2.0851735321236284,3.20929724523883,-1.2200414571258493,19.791460321713174
-1.371758305543782,-3.9074733658600276,-2.05308055967124,3.4072118484559617,-1.6552184885638648,19.58418636422213
-1.4108330392023825,-3.9240255507456663,-2.0190084411866804,3.603053712098183,-1.9122407563585826,19.19930608188416
-1.4500732947098391,-3.943147958309252,-1.9829779040656985,3.7950467729170247,-1.9057044577562892,18.519866232628587
-1.4895047742929317,-3.962205002886815,-1.9450274363365283,3.9802454352433108,-1.5317035123219267,17.40376800130162
-1.5291268243218,-3.9775220380100347,-1.9052249819840952,4.154283115256327,-0.6789394887553519,15.699389083274596
-1.5689020447019002,-3.9843114328975884,-1.863682150831532,4.311277006089073,0.7458157590043634,13.28109682458896
-1.6087451590308761,-3.976853275307545,-1.8205693807706413,4.444087974334963,2.7764562504593733,10.106572200965571
-1.6485136917839516,-3.949088712802951,-1.7761285010272918,4.545153696344618,5.340395269216914,6.281959754991722
-1.688004578911981,-3.895684760110782,-1.7306769640638455,4.607973293894536,8.231706138522222,2.09821602965845
-1.7269614265130888,-3.8133676987255596,-1.6845972311249002,4.62895545419112,11.136427731843455,-2.0056917865755897
-1.7650951035003444,-3.702003421407125,-1.638307676582989,4.608898536325364,13.71770701102516,-5.562871310793192
-1.8021151377144156,-3.5648263512968734,-1.5922186912197354,4.553269823217431,15.722138444857958,-8.22714398194178
-1.8377634012273842,-3.407604966848294,-1.5466859929875612,4.470998383398014,17.045744350931155,-9.86396556693403
-1.8718394508958671,-3.2371475233389826,-1.501976009153581,4.372358727728673,17.72885899484026,-10.54125254853935
-1.904210926129257,-3.05985893339058,-1.4582524218762942,4.26694620224328,17.90113840080183,-10.450725814323356
-1.9348095154631628,-2.880847549382562,-1.4155829598538614,4.162438944100046,17.71937011801399,-9.820001273573908
-1.9636179909569884,-2.7036538482024217,-1.373958570412861,4.064238931364307,17.32555557867254,-8.853817646875799
-1.9906545294390126,-2.5303982924156965,-1.3333161810992178,3.975700754895549,16.829333560746573,-7.709765813245823
-2.0159585123631696,-2.362104956808231,-1.2935591735502623,3.898603096763091,16.306705285906247,-6.496967664828309
-2.039579561931252,-2.1990379039491685,-1.2545731425826314,3.8336334201148077,15.806044182866161,-5.284919150383096
-2.0615699409707435,-2.040977462120507,-1.2162368083814834,3.7807842286109765,15.35567254874895,-4.1144394127002
-2.0819797155919484,-1.8874207366330176,-1.1784289660953737,3.7396398344839743,14.970456795322255,-3.0071601213885595
-2.1008539229582786,-1.737716168679795,-1.141032567750534,3.7095682332700886,14.656735415735382,-1.9726147923030213
-2.1182310846450765,-1.5911488145224413,-1.103936885417833,3.6898420853470584,14.41570257896069,-1.0131213455566952
-2.1341425727903007,-1.4469917887328343,-1.0670384645643625,3.6797108718914915,14.245606865608941,-0.12697808082639772
-2.148612490677629,-1.304535720076745,-1.0302413558454475,3.6784410910832275,14.143120676911556,0.68951720570312
-2.1616578478783968,-1.1631045133076294,-0.9934569449346152,3.685336263140259,14.104158871736672,1.4408269321521996
-2.173288893011473,-1.0220629245902626,-0.9566035823032126,3.699744532461781,14.124343524833657,2.1314313901354205
-2.183509522257376,-0.880819489341926,-0.9196061369785948,3.721058846363135,14.199246442134266,2.7653968099110564
-2.1923177171507953,-0.7388270249205833,-0.8823955485149635,3.7487128144622455,14.324494580089064,3.346132796359668
-2.199705987400001,-0.5955820791196926,-0.8449084203703411,3.782174142425842,14.495792332859583,3.876262861439376
-2.205661808191198,-0.4506241557910968,-0.8070866789460827,3.8209367710402358,14.708894482049502,4.3575609672025735
-2.210168049749109,-0.30353521097060177,-0.7688773112356803,3.8645123807122617,14.959550889403767,4.790925702250714
-2.213203401858815,-0.1539397020765641,-0.7302321874285577,3.9124216377347687,15.243436180755616,5.17637561394869
-2.214742798879581,-0.0015053402690079487,-0.69110797105121,3.9641853938742555,15.55607297705013,5.513056784727082
-2.214757852282271,0.15405538950149336,-0.6514661171124675,4.019315961721526,15.89275453412548,5.799258580552169
-2.213217298387256,0.3129829348427482,-0.6112729574952522,4.077308547527048,16.248471219589312,6.032436628332776
-2.2100874690388284,0.4754676470386413,-0.5704998720199818,4.137632913810376,16.61784460425038,6.209244120923942
-2.205332792568442,0.6416460930811451,-0.529123542881878,4.199725355019615,16.995072759080674,6.325573872956128
-2.1989163316376303,0.8115968206719518,-0.48712628933168184,4.262981093749176,17.373890403980095,6.376614361962899
-2.190800363430911,0.9853357247117528,-0.4444964783941901,4.326747237368806,17.74754768373181,6.3569233842439985
-2.1809470061837937,1.1628112015490708,-0.40122900602050204,4.3903164712112455,18.108811412209086,6.260522963455959
-2.169318894168303,1.3438993156711616,-0.35732584130838957,4.452921700845805,18.449992509931363,6.081018764174183
-2.155879901011591,1.5283992407704752,-0.3127966242999315,4.5137318884875475,18.763002961252393,5.811746461403885
