th1 (rad),w1 (rad/s),th2 (rad),w2 (rad/s)
1.5257181847011176,2.7394503513818145,4.055100623203625,-1.1540630525409756
1.5531126882149358,2.6192102259667687,4.043559992678215,-1.2180104568472712
1.5793047904746034,2.503003583384794,4.0313798881097425,-1.2751342370815761
1.6043348263084514,2.390770809689245,4.018628545738927,-1.3254437769780902
1.6282425344053437,2.2823725875992666,4.005374107969145,-1.3690689691655948
1.6510662602813364,2.177611537914287,3.9916834182774896,-1.4062265596804058
1.6728423756604793,2.0762503315615914,3.9776211526806855,-1.4371924589311411
1.6936048789760954,1.9780264252722601,3.963249228091374,-1.462279654014177
1.7133851432288179,1.882663740263269,3.948626431551232,-1.4818211158936854
1.7322117806314505,1.789881685088674,3.933808220392295,-1.4961569889293849
1.7501105974823372,1.699401945815242,3.918846650503001,-1.505625336911948
1.7671046169404896,1.610953450048932,3.9037903971338817,-1.5105557639615517
1.783214151440979,1.5242758725468672,3.888684839494266,-1.511265303796499
1.7984569101664476,1.4391220010251797,3.8735721864563013,-1.5080560584509735
1.8128481301766994,1.355259229196103,3.8584916258717916,-1.5012141555883602
1.8264007224686605,1.2724703948475453,3.843479484315908,-1.4910096751827597
1.839125426417136,1.190554136509378,3.8285693875640807,-1.4776972680920704
1.8510309677822296,1.1093249040335866,3.81379241488316,-1.461517249779775
1.8621242168225656,1.028612726413793,3.7991772423853623,-1.442697002404546
1.8724103440867035,0.9482628140100732,3.784750272361317,-1.421452558683954
1.8818929722268043,0.8681350513879224,3.7705357467744776,-1.397990272681228
1.8905743227406835,0.7881034204920062,3.756555844047665,-1.3725085073671819
1.8984553569456035,0.7080553811300185,3.7428307589739935,-1.3451992878056922
1.9055359107569037,0.6278912260750611,3.7293787660959365,-1.3162498832869147
1.9118148230176542,0.547523420926881,3.7162162672630674,-1.2858442926997817
1.917290057226923,0.4668759337131625,3.7033578243360696,-1.2541646157306023
1.9219588165640547,0.38588355565637456,3.6908161781787636,-1.2213922987710377
1.9258176521206185,0.3044912122479998,3.6786022551910533,-1.1877092492457424
1.9288625642430985,0.2226532624911292,3.666725162698596,-1.1532988158340431
1.93108909686801,0.14033278367584356,3.6551921745402556,-1.1183466350651652
1.9324924247047683,0.05750083916131643,3.6440087081896038,-1.083041347232815
1.9330674330963815,-0.025864272792245693,3.6331782947172755,-1.0475751866550504
1.932808790368459,-0.1097777901912399,3.622702542850725,-1.0121444530986103
1.9317110124665466,-0.19424927838096878,3.612581098319739,-0.9769498727513346
1.929768519682737,-0.27928343963167546,3.6028115995922256,-0.9421968584888568
1.9269756852864202,-0.36488093847106495,3.593389631007337,-0.9080956803466672
1.9233268759017095,-0.451039238598766,3.5843086742038706,-0.8748615580642949
1.9188164835157218,-0.5377534458482036,3.5755600586232275,-0.8427146882928808
1.9134389490572397,-0.6250171503566743,3.567132911740299,-0.8118802195229317
1.9071887775536729,-0.7128232598932087,3.5590141095450694,-0.7825881879649468
1.9000605449547407,-0.8011648151948371,3.55118822766542,-0.7550734274708824
1.8920488968027924,-0.8900357771848475,3.5436374933907113,-0.7295754660893139
1.883148539030944,-0.9794317750926289,3.5363417387298184,-0.7063384209742586
1.8733542212800176,-1.069350803756563,3.5292783545200757,-0.685610902092637
1.862660713242452,-1.1597938577543334,3.522422245499149,-0.6676459334775998
1.8510627746649087,-1.2507654894470035,3.515745786164373,-0.6527008986378291
1.8385551197704386,-1.3422742775160768,3.5092187771779946,-0.6410375141443274
1.8251323769952779,-1.4343331920830709,3.502808402036551,-0.6329218323690174
1.810789045074447,-1.5269598419918167,3.496479183712861,-0.6286242708421508
1.7955194466545288,-1.6201765892659175,3.490192941004439,-0.6284196617329096
1.7793176807618696,-1.7140105150897011,3.48390874438711,-0.6325873105519607
1.7621775756109725,-1.8084932208670101,3.4775828712815904,-0.6414110483473217
1.7440926434023025,-1.9036604469632203,3.471168760798117,-0.6551792564481053
1.7250560389326703,-1.9995514906203522,3.464616968233636,-0.6741848372510733
1.705060524026467,-2.0962084032606936,3.457875119861125,-0.6987250987075669
1.6840984399938599,-2.1936749459943807,3.4508878688740494,-0.7291015141426502
1.662161690533916,-2.291995280686989,3.4435968537326227,-0.7656193129453562
1.639241737727046,-2.391212372530448,3.435940660603169,-0.808586851670859
1.6153296140017417,-2.4913660788475815,3.4278547920864604,-0.858314709405903
1.5904159532132658,-2.5924908980536197,3.4192716449924014,-0.9151144461447922
1.5644910442327296,-2.694613352561364,3.4101205005309536,-0.9792969587560474
1.537544910707116,-2.797748980274316,3.400327530943393,-1.051170366324808
1.5095674209043728,-2.9018989115455027,3.389815827280145,-1.1310373557575426
1.4805484317889177,-3.007046012519719,3.3785054537225694,-1.219191920144838
1.4504779716637206,-3.1131505820874428,3.366313534521121,-1.3159154271796984
1.419346465842846,-3.220145598731319,3.353154380249324,-1.4214719636529454
1.387145009855533,-3.327931525782903,3.3389396606127946,-1.5361029154224646
1.353865694597704,-3.436370699392577,3.32357863145857,-1.6600207609380586
1.3195019876037781,-3.5452813430766184,3.306978423849189,-1.793402080898412
1.284049174173012,-3.654431276067851,3.289044403040205,-1.9363798171551507
1.2475048614123334,-3.76353140961913,3.2696806048686535,-2.089034850414015
1.209869547316142,-3.8722291553322274,3.2487902563645132,-2.2513870079791634
1.1711472557628197,-3.9801019016032626,3.2262763862847215,-2.423385658543284
1.131346236746787,-4.086650747155637,3.2020425296992885,-2.6049000990628386
1.0904797292752306,-4.191294712883153,3.17599352870866,-2.7957099867891273
1.048566782146399,-4.293365683244219,3.148036428840769,-2.995496114955765
1.005633125313957,-4.392104354709856,3.118081467691211,-3.2038318708657934
0.9617120817668584,-4.486657490065999,3.086043148982553,-3.420175748033619
0.9168455068661985,-4.5760767930252655,3.051841391502217,-3.6438653084012103
0.8710847389359458,-4.659319727580058,3.0154027384182047,-3.8741130066051035
0.8244915416601453,-4.735252611354853,2.9766616083521535,-4.11000429754799
0.7771390155465967,-4.802656312601844,2.935561565376674,-4.35049845429129
0.7291124524205783,-4.860234876580858,2.892056580833761,-4.594432529447751
0.6805101036547697,-4.906627397354165,2.8461122555392833,-4.840528903155678
0.631443829681228,-4.9404234309761685,2.7977069665077265,-5.08740687520691
0.5820395953714663,-4.960182206807994,2.7468328977556573,-5.333598774070311
0.5324377733033864,-4.964455821232461,2.693496910014954,-5.577571060618057
0.48279321509106177,-4.951816473499455,2.6377211994087735,-5.817750880438211
0.4332750503560672,-4.920887605025016,2.579543690604391,-6.052558439293539
0.3840661743058171,-4.87037851078914,2.5190181062114556,-6.280445410906286
0.33536238919792566,-4.799121592086048,2.456213652102393,-6.499939306474435
0.2873711732770652,-4.706110917669717,2.3912142590376484,-6.709693324854346
0.240310064100368,-4.590540184040934,2.324117325789105,-6.908540668502103
0.19440466225995867,-4.451837574753109,2.2550319191040837,-7.09555169480037
0.14988628651242758,-4.289694503382228,2.18407640215608,-7.270091657582642
0.1069893414786053,-4.1040848967644985,2.1113754855802536,-7.4318762993853715
0.06594849251096031,-3.895271646987613,2.0370567225864,-7.581022323614714
0.026995776041084184,-3.663797217212121,1.9612464993502527,-7.718089945041263
-0.009642196131037027,-3.410456152635453,1.8840655998998401,-7.844115384858513
-0.04374675765739156,-3.1362483641584022,1.805624446051255,-7.960632368372333
-0.07510924129897559,-2.8423133677254038,1.7260181223675315,-8.069683332559885
-0.10353237497622962,-2.5298469539038955,1.6453212890419326,-8.173823001953895
-0.12883084451526858,-2.2000027802921363,1.5635830590223936,-8.276119028689212
-0.15083087231818995,-1.8537819117811987,1.4808218687355015,-8.38015628206507
-0.16936869143600194,-1.491913279709316,1.3970203059148507,-8.490052895876806
-0.18428782423309512,-1.114727480836383,1.3121197769560826,-8.610497121521552
-0.19543509904145895,-0.7220256815455169,1.226014805740867,-8.746814059109136
-0.20265535585691413,-0.3129455379620258,1.1385466651497758,-8.905069668655207
-0.2057848112365344,0.1141710829391297,1.0494959684632237,-9.092214096203419
-0.2046431004071431,0.561894025532038,0.9585738275011895,-9.316252288452356
-0.1990241601518227,1.0337639268433119,0.8654113046166659,-9.586395089942673
-0.18868652088338958,1.5341910545485546,0.7695473537172393,-9.913060376251204
-0.17334461033790402,2.0679444236980626,0.6704167499547272,-10.307397541618842
-0.1526651661009234,2.638656382967137,0.5673427745385388,-10.77956502210617
-0.12627860227125204,3.245098138371577,0.4595471243174771,-11.334062872343026
-0.09382762088753627,3.872863323688694,0.3462064955940468,-11.958841743517812
-0.05509898765064933,4.478433820024216,0.2266180781588687,-12.603869966447155
-0.010314649450407165,4.9677530880327465,0.10057937849439716,-13.151676791618694
0.0393628814299203,5.19532730489523,-0.03093738942178978,-13.415004319798827
0.0913161544788726,5.040034075078296,-0.16508743261977804,-13.238103871148786
0.14171649522965557,4.532478132665378,-0.29746847133126586,-12.666615435846316
0.18704127655630934,3.84230861603747,-0.42413462568972904,-11.925869398091727
0.22546436271668405,3.123878979354372,-0.5433933196706463,-11.212447598814535
0.2567031525102278,2.447661349986541,-0.6555177956587916,-10.607922948860397
0.2811797660100932,1.8292154821308264,-0.7615970251473956,-10.122320853191514
0.29947192083140145,1.2633512161048817,-0.8628202336793107,-9.740694206799523
0.31210543299245025,0.7400892959198827,-0.960227175747306,-9.443739333984247
0.3195063259516491,0.2500285938783224,-1.0546645690871483,-9.214107204378054
0.3220066118904323,-0.2143190716722973,-1.1468056411309289,-9.037544723129782
0.3198634211737093,-0.6584692073377523,-1.2371810883622267,-8.902547487065043
0.3132787291003318,-1.0862302341713206,-1.3262065632328772,-8.799733036252881
0.3024164267586186,-1.5000029220621405,-1.414203893595406,-8.721277970971284
0.2874163975379972,-1.9010406445014054,-1.5014166733051189,-8.660489652756835
0.26840599109298313,-2.289664773599362,-1.5880215698326872,-8.61150606101287
0.2455093433569895,-2.6654469633832125,-1.6741366304428158,-8.569100609636232
0.21885487372315737,-3.027371518627698,-1.759827636539178,-8.528568656316914
0.1885811585368804,-3.373987700637726,-1.845113323102347,-8.485675574524247
0.15484128153050314,-3.703557345588358,-1.9299700788475895,-8.436648948702986
0.11780570807461956,-4.014198841561097,-2.0143365683346195,-8.378199203297433
0.07766371965900859,-4.304024909632019,-2.098118560367594,-8.307554247063603
0.0346234705626884,-4.571269150177545,-2.18119410283823,-8.222495142566732
-0.011089220939087055,-4.814395214232007,-2.2634190542638972,-8.121381885898234
-0.059233173081407124,-5.03218282294903,-2.3446328731228796,-8.003161290799497
-0.10955500131089743,-5.2237865183877386,-2.4246644860308746,-7.867352555204151
-0.1617928664947748,-5.388765570184733,-2.5033380115829162,-7.714009900612987
-0.21568052219662215,-5.5270863067600295,-2.580478110589046,-7.543665130432612
-0.27095138526422247,-5.639100689940157,-2.6559147618933725,-7.3572555146293865
-0.32734239216362404,-5.7255067431483955,-2.7294873170396663,-7.156043743976549
-0.384597459595108,-5.787297242088321,-2.801047754479432,-6.9415367625044535
-0.4424704320159912,-5.8257029017131705,-2.8704631221044763,-6.715409301434207
-0.5007274610331229,-5.842135361009042,-2.9376172151188182,-6.4794362908574445
-0.5591488146432133,-5.838133896546699,-3.0024115780273926,-6.2354364495857375
-0.6175301536086804,-5.815318309241016,-3.06476594252325,-5.985227618126964
-0.6756833367010905,-5.77534908112674,-3.1246182187045197,-5.730593047906417
-0.733436827512358,-5.719894845267372,-3.1819241491835837,-5.473256995999624
-0.7906357759650317,-5.65060650929473,-3.2366567191435798,-5.214867587562024
-0.847141841057979,-5.569097003501693,-3.2888053950192,-4.956984911411545
-0.9028328110929958,-5.476925524518611,-3.3383752441333154,-4.701072587256679
-0.9576020663381819,-5.3755852337774375,-3.385385970005882,-4.448491463134069
-1.0113579186759563,-5.266493565964148,-3.429870884637223,-4.200494563856263
-1.0640228543355978,-5.150984539119715,-3.4718758302757853,-3.9582228379440654
-1.115532699726795,-5.030302685389895,-3.5114580586552258,-3.722701592678915
-1.1658357265806938,-4.905598408271837,-3.548685074582015,-3.494837741491634
-1.214891710663412,-4.777924703277622,-3.5836334519969313,-3.275418112631577
-1.2626709576961883,-4.648235251710952,-3.616387633123247,-3.065109095642221
-1.3091533102132977,-4.517383918278323,-3.6470387240796693,-2.8644578545784944
-1.354327149396081,-4.38612566455722,-3.6756833026254543,-2.673895240223922
-1.3981884060416532,-4.255118846258344,-3.7024222550276935,-2.4937404137121106
-1.4407395945042367,-4.124928806827528,-3.7273596591648146,-2.32420707344518
-1.481988882572512,-3.996032625220685,-3.7506017298992664,-2.1654110731293534
-1.5219492088247188,-3.8688248304672386,-3.77225584063056,-2.0173791419440263
-1.5606374571293913,-3.7436238652010823,-3.7924296320500006,-1.8800583730658034
-1.5980736957814021,-3.620679066667357,-3.811230215780659,-1.7533261335842019
-1.6342804864480758,-3.5001779361129386,-3.828763477116501,-1.6370000631263257
-1.6692822658092052,-3.3822534833858735,-3.845133477747764,-1.5308478638868932
-1.703104800643064,-3.2669914594372442,-3.8604419563866332,-1.434596634043742
-1.7357747152374365,-3.1544373213901618,-3.8747879227270707,-1.3479415528084138
-1.7673190884513381,-3.0446028093355944,-3.888267338255155,-1.27055378271002
-1.797765116544694,-2.937472048068056,-3.900972876082255,-1.2020875086258858
-1.8271398370253744,-2.8330071183921115,-3.912993751168514,-1.1421860805240944
-1.8554699082092956,-2.731153070003135,-3.9244156119737545,-1.0904872662019636
-1.882781438909327,-2.631842370560356,-3.935320484635774,-1.0466276509411283
-1.9090998626149305,-2.5349988032737936,-3.9457867611451856,-1.0102462432346622
-1.9344498506476684,-2.440540838370758,-3.955889223577532,-0.980987360401137
-1.958855259031376,-2.3483845127025678,-3.9656990971815436,-0.9585028761123832
-1.9823391041584015,-2.2584458571440353,-3.9752841259426672,-0.9424539148629864
-2.004923562729842,-2.1706429140144947,-3.984708665091297,-0.9325120774107694
-2.026629991869987,-2.0848973871720804,-3.9940337858654047,-0.9283602773168689
-2.047478965741708,-2.0011359662991115,-4.003317388638574,-0.9296932628521732
-2.067490325404699,-1.9192913647146403,-4.012614321267096,-0.9362178914815793
-2.0866832390518453,-1.8393031072350223,-4.021976500181911,-0.947653216488423
-2.1050762701241954,-1.7611181014775041,-4.031453032346795,-0.9637304375069652
-2.1226874511389706,-1.6846910228050165,-4.041090336721865,-0.9841927591108722
-2.1395343613670206,-1.6099845400107398,-4.050932264312974,-1.0087951943759177
-2.155634206767128,-1.536969405947585,-4.061020216256733,-1.0373043436302085
-2.1710039008266038,-1.4656244346824394,-4.071393259693035,-1.069498172499024
-2.1856601451734283,-1.395936384423631,-4.082088241418025,-1.1051658078740807
-2.1996195090176647,-1.3278997634315894,-4.093139899496766,-1.1441073655888503
-2.2128985066519804,-1.2615165743572396,-4.104580973152654,-1.1861338193427726
-2.225513672395553,-1.1967960109277604,-4.1164423113460815,-1.2310669167557737
-2.2374816325048306,-1.1337541195748184,-4.12875298051364,-1.2787391453110735
-2.248819173700579,-1.0724134374321017,-4.141540371966751,-1.3289937483154517
-2.2595433080749,-1.0128026170715,-4.154830309449905,-1.3816847888261974
-2.269671334245615,-0.9549560473556918,-4.168647157338167,-1.4366772577155726
-2.2792208947191717,-0.8989134788158375,-4.183013929915323,-1.4938472206176903
-2.28821002950733,-0.8447196609752073,-4.1979524021215004,-1.5530819973777938
-2.296657226117082,-0.7924239979934206,-4.213483222095278,-1.614280366745165
-2.3045814660970163,-0.7420802278633715,-4.22962602576273,-1.6773527883586272
-2.31200226837565,-0.6937461291159073,-4.246399553646317,-1.742221633501971
-2.318939729666809,-0.6474832575366175,-4.2638217699813366,-1.8088214155816418
-2.3254145622421754,-0.6033567137321361,-4.281909984137153,-1.8770990107168488
-2.331448129379497,-0.5614349404518315,-4.3006809742443215,-1.9470138581368783
-2.337062478784015,-0.5217895463176982,-4.32015111282569,-2.0185381291413336
-2.342280374247192,-0.48449514997162163,-4.340336494117103,-2.0916568520683687
-2.3471253257469082,-0.44962923553,-4.361253062637787,-2.1663679788853525
-2.3516216181022083,-0.41727200653584595,-4.382916742426641,-2.242682376493135
-2.355794338167567,-0.38750622118818323,-4.405343566191572,-2.3206237224184
-2.3596694003794485,-0.3604169863490077,-4.428549803415756,-2.400228280025184
-2.3632735702429386,-0.3360914814875724,-4.452552086216008,-2.4815445224369697
-2.3666344850578143,-0.31461857609318566,-4.477367531440378,-2.5646325667159533
-2.3697806708187463,-0.296088294908781,-4.503013857107538,-2.6495633701477677
-2.3727415537678342,-0.2805910743157117,-4.529509490809016,-2.7364176283445683
-2.3755474645109915,-0.2682167400257666,-4.556873667092462,-2.8252842999014027
-2.3782296319112493,-0.2590531206079439,-4.5851265100914755,-2.916258664119712
-2.380820163117329,-0.2531841930476616,-4.614289096732673,-3.0094397965022197
-2.3833520050478056,-0.2506876353868426,-4.644383494697695,-3.104927321119582
-2.385858881401674,-0.2516316376555093,-4.675432767908891,-3.202817269621722
-2.3883751977782293,-0.2560707963410892,-4.707460940605108,-3.303196844175106
-2.39093590574164,-0.26404089081261933,-4.740492909046859,-3.406137847317156
-2.393576314649766,-0.2755523147696427,-4.77455428752003,-3.51168850826228
-2.3963318377974625,-0.2905819158776729,-4.809671172602653,-3.6198634071082796
-2.399237656956239,-0.3090629885443313,-4.845869806673735,-3.730631182970492
-2.402328286841682,-0.33087317769398433,-4.883176118503441,-3.8438997204243353
-2.4056370186186222,-0.3558200989138977,-4.9216151157076835,-3.9594985568952725
-2.4091952196077613,-0.3836245809066294,-4.961210101276636,-4.077158364089758
-2.4130314654168274,-0.4139016135395705,-5.001981684917534,-4.196487558299223
-2.417170481552223,-0.44613936722485226,-5.043946560500526,-4.316946422634886
-2.4216318752244717,-0.4796770667268099,-5.087116024726875,-4.437819616962369
-2.4264286458917397,-0.5136830794059977,-5.131494220896498,-4.558188641443452
-2.4315654766857997,-0.5471353214973046,-5.177076107310933,-4.676906720393073
-2.4370368299007725,-0.5788069666941729,-5.223845174514864,-4.792579654813478
-2.4428248995677144,-0.6072613669874036,-5.271770971062999,-4.903557349780133
-2.4488975132375885,-0.6308608840088851,-5.3208065445608,-5.007941742084209
-2.4552061220776773,-0.6477946891654227,-5.370885961981642,-5.103617384788493
-2.4616840689693316,-0.6561301351255435,-5.4219221358295275,-5.188310515642675
-2.468245370320587,-0.6538906145467686,-5.473805240985954,-5.2596805291508515
-2.4747842764660546,-0.6391596083720945,-5.526402046277463,-5.3154440037962996
-2.4811758725497755,-0.6102059257327735,-5.5795564863154254,-5.353525820032228
-2.487277931807103,-0.5656195478799665,-5.633091744515748,-5.3722251264768826
-2.4929341272859027,-0.5044422582066341,-5.686813995780517,-5.370377453267194
-2.497978549867969,-0.42627408090758895,-5.740517770313189,-5.347490196059104
-2.5022412906770453,-0.3313370960349418,-5.79399267227378,-5.303829001327447
-2.5055546616373947,-0.22048324717726475,-5.847030962287055,-5.240438294670131
-2.5077594941091674,-0.09514166215312253,-5.899435345233756,-5.159089605446793
-2.5087109107306986,0.04278837089457779,-5.951026241288224,-5.0621639551869615
-2.508283027021753,0.19108322443515627,-6.0016478808400935,-4.952485915533637
-2.506372194777401,0.3473583915708164,-6.05117273999543,-4.833133914984299
-2.502898610861693,0.509227822113934,-6.099504079145272,-4.707252488483546
