th1 (rad),w1 (rad/s),th2 (rad),w2 (rad/s)
0.05956235330075295,-1.7950702531136322,4.038026436517159,1.6629923654762377
0.04161165076961663,-1.7724488690571203,4.054656360171921,1.7786192887077725
0.023887162079045423,-1.7516137320542684,4.072442553058999,1.8936278330213607
0.006371024758502739,-1.7328533340529306,4.091378831389212,2.007961259006362
-0.010957508582026567,-1.7164415152942671,4.111458443979276,2.12160750239084
-0.02812192373496924,-1.7026383691845028,4.132674519003185,2.2345994689373816
-0.04514830742681426,-1.6916917505522215,4.155020513692559,2.3470149839674836
-0.062065224932336474,-1.6838393324128447,4.178490663532234,2.4589765690200247
-0.07890361825646491,-1.6793111589996683,4.2030804292224335,2.5706512209374246
-0.0956967298464616,-1.678332650588142,4.2287869414318076,2.6822503668390825
-0.11248005635234302,-1.681128027485367,4.255609445100198,2.7940301639968066
-0.1292913366271967,-1.6879241353641599,4.283549746740166,2.906292308416233
-0.1461705779808383,-1.6989546707488066,4.312612669824329,3.019385511431262
-0.16316012468832636,-1.714464822699165,4.342806524938641,3.1337078007538133
-0.18030477291531802,-1.7347163631667353,4.374143602946179,3.2497098013046277
-0.19765193654698537,-1.7599932321698724,4.406640700959225,3.367899150725296
-0.2152518688686841,-1.7906076718632036,4.4403196924664785,3.488846201874079
-0.23315794558731615,-1.8269069608005803,4.47520815448522,3.613191154052288
-0.25142701519532196,-1.869280777735147,4.511340066025743,3.7416527255124175
-0.27011982297267345,-1.9181691685245317,4.548756593280867,3.875038412919839
-0.28930151465791876,-1.9740709747817324,4.587506977410065,4.014256245406133
-0.3090422244057361,-2.037552365028057,4.627649539864127,4.16032767319517
-0.32941774805601665,-2.1092547126142693,4.669252816596078,4.314400731680586
-0.3505102951821593,-2.189900359218619,4.712396823912884,4.477761714462129
-0.3724092987743455,-2.280293564628554,4.757174441057505,4.651841967571518
-0.395212234420631,-2.3813117923675584,4.8036928607332205,4.83821355843008
-0.4190253523443066,-2.493878780926156,4.852074996317521,5.038562595974809
-0.44396414015356817,-2.618904575815064,4.902460622277269,5.254620449656239
-0.4701531859117188,-2.7571673030096604,4.955006826773832,5.488018855267349
-0.4977248589418154,-2.909094962647008,5.009887015326505,5.740012056678827
-0.5268158085682855,-3.0743814308303508,5.067287135893293,6.010975455998532
-0.557559622876589,-3.2513418487711405,5.127396890453278,6.299549042793152
-0.5900730413643004,-3.435896029063919,5.19039238088121,6.601268592569864
-0.6244320016549396,-3.620120519537866,5.256405066806909,6.906595243328788
-0.6606332068503182,-3.790561050086529,5.325471019240197,7.1985951422896175
-0.6985388173511835,-3.927139876295077,5.397456970663093,7.451403768875634
-0.7378102161141342,-4.004503841034918,5.47197100835185,7.6320059919640455
-0.7778552545244835,-3.9980129154037143,5.5482910682714905,7.7083552357120375
-0.8178353836785206,-3.893932981052904,5.625374620628611,7.66321636352048
-0.8567747134890497,-3.6976269666876207,5.702006784263816,7.50517363433123
-0.8937509831559258,-3.431873867123435,5.777058520607127,7.266046589653784
-0.9280697218271602,-3.12601396713604,5.849718986503666,6.985869525595288
-0.9593298614985206,-2.8051637757731682,5.919577681759619,6.698247027909507
-0.9873814992562523,-2.485784475838089,5.986560152038714,6.424583260313566
-1.0122393440146331,-2.176508896993998,6.050805984641849,6.175481063706359
-1.034004432984573,-1.880737856446287,6.112560795278913,5.954442104387551
-1.052811811549036,-1.5989501902838827,6.172105216322788,5.761072228175201
-1.0688013134518748,-1.3302193539345015,6.22971593860454,5.593145074964
-1.0821035069912197,-1.073072590294238,6.28564738935418,5.4477448199692144
-1.092834232894162,-0.8259340747752487,6.340124837553872,5.321836213794801
-1.1010935736419145,-0.5873347722353551,6.39334319969182,5.2125191229245775
-1.106966921364268,-0.35600017818143165,6.445468390921066,5.117121758988422
-1.1105269231460824,-0.13087736523812388,6.49663960851095,5.033216730434767
-1.1118356967984635,0.08886647930059033,6.546971775815297,4.958603482329795
-1.1109470320054575,0.30385779548133995,6.596557810638595,4.891278839156206
-1.107908454050644,0.5145348268815227,6.6454705990301575,4.829406039759349
-1.1027631057818288,0.7211666844677647,6.693764659427751,4.771286927281483
-1.0955514389371512,0.9238719035085942,6.741477528700567,4.715339123483031
-1.0863127199020652,1.1226361362934416,6.788630919935397,4.660078648984423
-1.0750863585391308,1.3173290856243083,6.835231706425241,4.604107811394315
-1.0619130676828876,1.5077209506927896,6.881272784539185,4.546107896200198
-1.0468358581759598,1.6934986729496087,6.926733863501187,4.484836071978062
-1.0299008714464637,1.8742822107286676,6.971582224220967,4.419125869733252
-1.011158049339177,2.049640978362286,7.015773482918299,4.347890573516262
-0.9906616395555541,2.219110481214198,7.059252388653462,4.270128848747188
-0.9684705347434122,2.382209076314671,7.101953677140934,4.1849319313593885
-0.9446484439802655,2.5384546980983975,7.143802996454529,4.091491705964372
-0.9192638969992815,2.6873813160815994,7.184717913514173,3.989109017518266
-0.8923900838384655,2.8285548397907725,7.2246090036893555,3.877201590832129
-0.8641045354405578,2.961588157386435,7.263381019597677,3.7553109767006174
-0.8344886538666935,3.086154987794881,7.300934129364683,3.6231080017304076
-0.8036271039887446,3.2020022397386345,7.337165209381987,3.4803962690331085
-0.7716070815913583,3.3089606017110835,7.371969172072318,3.327113335938901
-0.7385174755742474,3.4069531310942107,7.4052403054317075,3.1633292799084125
-0.7044479442633053,3.4960016649025394,7.436873598230791,2.9892424526330266
-0.6694879276142799,3.5762309363965956,7.466766022757121,2.8051723136534585
-0.6337256182503139,3.6478703493156965,7.494817745893656,2.6115493282968756
-0.597246914757157,3.7112534337876597,7.520933239176625,2.408902010262848
-0.5601343804192803,3.766815084464601,7.5450222592792535,2.1978412861884205
-0.5224662295746343,3.815086761180311,7.567000672141138,1.9790424559908986
-0.4843153619628312,3.8566899135624295,7.586791096701047,1.7532251146643245
-0.4457484628272069,3.8923279703680174,7.60432334784769,1.5211314822434616
-0.4068251831235268,3.922777307306499,7.619534662670125,1.2835036509409767
-0.36759741005046176,3.9488776683074414,7.6323696991795345,1.0410602936206184
-0.3281086333673873,3.9715225589657717,7.6427803021157406,0.7944733785447794
-0.2883934077777296,3.9916501523947625,7.650725035901188,0.544345397379925
-0.24847690625378197,4.010235243601091,7.656168489874988,0.29118753685424453
-0.20837455381777106,4.028282757257362,7.65908036524353,0.03539911488448022
-0.16809172624519744,4.046823255259413,7.659434356392374,-0.2227515287271149
-0.1276234936926033,4.066910804528872,7.657206841105103,-0.4831446302038937
-0.08695438564731459,4.089623449180022,7.652375394803064,-0.7458251409236509
-0.04605815115551437,4.116066374212441,7.644917143393828,-1.0110175088026252
-0.004897487413389967,4.147377625865685,7.634806968305802,-1.2791391358955975
0.03657628884526688,4.184735916665613,7.622015576946846,-1.550812278495247
0.078423648011923,4.229369496648667,7.6065074541618936,-1.8268735473517221
0.12071734297840968,4.282564145762696,7.588238718688376,-2.1083789763344227
0.16354298443603665,4.345666735387088,7.5671549289250315,-2.3966004431449797
0.20699965178990754,4.420077999088664,7.543188924493582,-2.69300532956118
0.2512004317807942,4.507223264626966,7.51625887119797,-2.999204487210275
0.2962726644270639,4.608481502615424,7.486266826325868,-3.3168418497267487
0.34235747945321815,4.725039004194602,7.4530984078286,-3.6473794335262406
0.3896078694951642,4.857611680297478,7.416624613493338,-3.991700337241301
0.438183986298139,5.005948003529006,7.376707610120924,-4.349407775430436
0.488243466333429,5.167989306824303,7.33321353236662,-4.717649015402504
0.539923359401672,5.338557566348193,7.286037042212595,-5.089284213986769
0.5933089350651539,5.507559152883707,7.235144200072727,-5.4503863479975205
0.648384526593991,5.65813996402216,7.180640336592752,-5.77768488730289
0.7049659262342126,5.766223301907803,7.122863487719723,-6.037960641755488
0.7626281592532906,5.80403923940317,7.062483881302168,-6.193043512225272
0.8206685516473223,5.749523943239167,7.000553446179915,-6.213023770115781
0.878163791079714,5.598111674365093,6.938423208478757,-6.092756864086457
0.9341449078233649,5.367162341279815,6.877495639837893,-5.857953312489177
0.9878165312361631,5.087459787072872,6.818916106713001,-5.553100065583048
1.0386911291068919,4.789314843828792,6.763385106057171,-5.221868700903724
1.0865842775451797,4.494123073680771,6.7111664190481335,-4.895253717078187
1.1315255082819875,4.21351140374066,6.662213881877352,-4.590396898970323
1.1736606223193942,3.9521047449717197,6.616309912887648,-4.314495917199011
1.2131816697691113,3.710519398066122,6.573164953715659,-4.069026223626451
1.2502868637497726,3.4874322260622805,6.532474691479394,-3.8526613566890564
1.2851611860103953,3.2807594728905554,6.493948077912504,-3.6629404828554906
1.3179687807393008,3.088253769880269,6.4573186730839485,-3.4971168059951303
1.3488513184381035,2.9077760592892052,6.422347505023997,-3.352547457315953
1.3779290790309955,2.7374008908323315,6.388822030450838,-3.226847521531604
1.405303087939319,2.5754417615980194,6.3565535552355215,-3.11793012348771
1.4310575055552992,2.4204410100784455,6.325374254000645,-3.0239953256120318
1.4552619156560838,2.2711461598785854,6.295134300744524,-2.9434988190618037
1.4779733772548695,2.12648301950332,6.265699312553906,-2.8751150879359604
1.4992382074499027,1.9855300736130175,6.236948161674547,-2.8177015877515075
1.5190935081860328,1.8474959013946854,6.208771145797032,-2.7702665164178764
1.5375684671999796,1.7117000468406298,6.181068480632853,-2.7319408896249215
1.554685467668386,1.5775571893061653,6.153749071736604,-2.701954804130285
1.5704610395614476,1.4445642412674071,6.1267295236953005,-2.6796174486371744
1.5849066819741215,1.3122899444849008,6.0999333492089285,-2.6643003362805717
1.5980295814189704,1.1803665524349467,6.0732903458461225,-2.6554232532113944
1.6098332469433199,1.048483230682621,6.046736113314009,-2.652442480034494
1.6203180792501461,0.9163808567072476,6.020211688513664,-2.654840916414778
1.6294818878172186,0.783847947375715,5.993663279349516,-2.6621198103021424
1.6373203672909757,0.6507174824615268,5.967042081246494,-2.6737918564031613
1.643827542115591,0.5168644257790452,5.940304162682462,-2.689375482051109
1.6489961863733815,0.3822037723488949,5.913410407861951,-2.708390182485483
1.6528182240968705,0.24668897174159068,5.886326506037096,-2.7303528023717965
1.6552851138142863,0.11031059571152976,5.859022978013378,-2.754774686948812
1.6563882197714017,-0.026904866254449017,5.83147523114389,-2.7811596452220475
1.6561191711088572,-0.16489618560395158,5.803663634691669,-2.8090026797870653
1.6544702092528176,-0.3035686357455847,5.775573607893799,-2.8377894437730413
1.6514345228953617,-0.44279536907011496,5.747195713456069,-2.8669963856740592
1.6470065692046605,-0.5824189880466237,5.718525749599328,-2.8960915382053347
1.6411823793241942,-0.7222533516498518,5.689564834217275,-2.92453589867317
1.6339598458076956,-0.8620856403809022,5.660319475230543,-2.9517853367869065
1.6253389894038865,-1.001678684413966,5.630801621862674,-2.977292952711537
1.615322202559747,-1.1407735406908395,5.601028692335559,-3.0005117950209503
1.6039144671528385,-1.27909228711954,5.571023574385349,-3.0208978367754966
1.5911235442816432,-1.4163409866304308,5.5408145960175945,-3.0379130999665946
1.5769601344153388,-1.5522127619938209,5.510435465017928,-3.0510288156912444
1.5614380067954006,-1.6863909152290386,5.479925176861016,-3.059728511006993
1.5445740976431102,-1.8185520241342041,5.449327891750946,-3.063510924383427
1.526388577401768,-1.9483689535616302,5.418692782507112,-3.061892670306565
1.5069048878661517,-2.0755137306794955,5.388073855804046,-3.0544105994765416
1.4861497505593568,-2.199660251137368,5.35752974980928,-3.040623832955128
1.4641531480479832,-2.320486805723216,5.327123511479729,-3.0201154845961633
1.4409482799907511,-2.437678443119176,5.296922356633767,-2.992494123492103
1.4165714955595594,-2.550929211604805,5.266997415398846,-2.9573950638522977
1.3910622034435114,-2.659944348546199,5.237423464760323,-2.914481600257277
1.3644627599580494,-2.7644425085976794,5.208278648757751,-2.8634463281176
1.3368183348720726,-2.864158137090794,5.179644185476574,-2.8040126991130077
1.3081767535011646,-2.9588441016560254,5.151604058485444,-2.735936956557765
1.2785883124846043,-3.0482746906708833,5.124244688919866,-2.659010573898457
1.2481055655778954,-3.1322490701923584,5.097654583180882,-2.5730632797344013
1.2167830748759718,-3.2105952609303716,5.071923950383538,-2.477966694926095
1.184677122266668,-3.283174653855916,5.047144283434277,-2.3736385331027217
1.1518453757281089,-3.3498870287112386,5.02340789810325,-2.260047228549614
1.1183465054409965,-3.410675976879852,5.000807425817754,-2.137216760383163
1.084239745672198,-3.4655345631650993,4.979435258213923,-2.0052313464796407
1.049584400040547,-3.514510995892652,4.959382944749127,-1.8642395940563397
1.0144392900816204,-3.557714018536362,4.940740548808563,-1.7144576266839673
0.9788621498962568,-3.5953176966667826,4.923595972541723,-1.5561706707851823
0.942908972929589,-3.6275652592632293,4.908034265833871,-1.3897325882556144
0.9066333203369566,-3.654771669951278,4.894136939951315,-1.2155628928559226
0.8700856036374439,-3.6773246557039267,4.881981311022756,-1.0341408889626713
0.8333123570804046,-3.6956840084835703,4.871639902133129,-0.8459967184342494
0.796355516995569,-3.7103790951973146,4.8631799349487865,-0.6516992840115792
0.7592517260435958,-3.722004654487094,4.856662942108671,-0.4518412183437388
0.7220316794987248,-3.7312151125679973,4.8521445299252335,-0.24702126378996878
0.6847195283730448,-3.738717799439928,4.849674317287334,-0.03782459474448607
0.6473323503786456,-3.745265576091933,4.8492960713398885,0.1751982720339197
0.6098796946177263,-3.7516494800233406,4.851048054060228,0.3915532908669987
0.5723631998174928,-3.7586920525197045,4.854963586968898,0.6108247742734084
0.5347762792922958,-3.7672420249047205,4.861071834711632,0.832696822672352
0.49710385904324855,-3.7781710172701475,4.869398802938356,1.0569739560637907
0.45932214887054706,-3.792372852376988,4.879968542498994,1.2836008520748825
0.4213984203467772,-3.810766023400782,4.892804551019743,1.512681372946737
0.3832907601127694,-3.834299791347911,4.90793136474921,1.7444973527041372
0.3449477621992903,-3.8639643376092385,4.925376338276251,1.979527892605152
0.3063081188231979,-3.900805363094305,4.945171617202303,2.2184701550441357
0.26730006519225485,-3.9459434979380656,4.967356318752744,2.4622628238318427
0.2278406302128742,-4.000598831167934,4.991978946991062,2.7121134619447296
0.18783464190119487,-4.066120710743059,5.019100081610509,2.9695308467042785
0.14717343479376427,-4.144022541649851,5.048795390077552,3.236362791328272
0.10573320937726577,-4.236020304342186,5.081159017990834,3.5148385489203413
0.0633730063338439,-4.34407129479921,5.116307403480038,3.807611784256998
0.0199322933858518,-4.4704048979469455,5.1543835213226075,4.1177935718737775
-0.024771755593617655,-4.617527580893573,5.195561457041345,4.448951523791542
-0.07094703140255339,-4.788164941865976,5.24005097227926,4.805024308771143
-0.11882868082121315,-4.985065591970101,5.2881012153669715,5.190047963539616
-0.16867933674091415,-5.210519330714995,5.340001695002368,5.607489745205787
-0.2207845300480641,-5.465313738111729,5.396076592454426,6.058806211995812
-0.2754376674291814,-5.746659060820968,5.456664654574384,6.540570375862533
-0.3329042580373911,-6.044440182977322,5.52207035833301,7.039271597260768
-0.39334865986716433,-6.33546979987434,5.592463074305617,7.523328027576915
-0.4567033578659077,-6.57754943891525,5.667696354581387,7.9348267524325875
-0.5224788522550602,-6.710756470017477,5.7470446221057125,8.191348045775909
-0.589586416955235,-6.678326860521066,5.828958102563472,8.215134331846329
-0.6563696855604456,-6.465127212887966,5.911109445881935,7.986698010467432
-0.7210209576893253,-6.115761894848922,5.990976425986609,7.569749597118229
-0.7821785766378145,-5.703611547224541,6.066673921957792,7.067629583805385
-0.83921469211006,-5.2877697956316805,6.137350217795846,6.563255354519894
-0.8920923900663768,-4.898948935226817,6.202982771341045,6.099751394461064
-0.941081879418645,-4.547184706363233,6.263980285285656,5.691404689786029
-0.9865537264822772,-4.232217212744284,6.320894332183516,5.338203188784944
-1.0288758986097202,-3.9498887283732382,6.374276364071366,5.034749381555124
-1.0683747858934525,-3.695132859224325,6.4246238578869175,4.77440654758051
-1.1053261144856956,-3.46314683012868,6.4723679233627225,4.5509155817124824
-1.1399575827869823,-3.2497552774606913,6.517877079179847,4.358890526956794
-1.1724551355615893,-3.0514523458704756,6.561465984449415,4.193869691738851
-1.202969659020294,-2.8653322925924036,6.603404681366804,4.052213460045598
-1.231622981946218,-2.6889932067734277,6.64392681596726,3.930965405092379
-1.2585129140139524,-2.520445115560875,6.683236470018184,3.8277194938736354
-1.283717365169561,-2.3580320674050705,6.7215136649569205,3.7405062969792717
-1.3072976858436118,-2.2003694387909882,6.758918727926713,3.667699702020719
-1.3293013802315217,-2.0462948381326362,6.79559572494692,3.607941759540325
-1.349764328612848,-1.8948302725804154,6.831675142542323,3.560082395602266
-1.3687126313386522,-1.745153329615796,6.8672759664983465,3.5231309188387425
-1.3861641646348102,-1.5965754504872551,6.902507275686734,3.4962167715290144
-1.4021299191396828,-1.4485257226966068,6.937469443402024,3.4785575332317182
-1.4166151763666488,-1.3005389205897273,6.972255018734341,3.4694326825221564
-1.429620565572546,-1.1522467598686394,7.006949345559563,3.468162034063498
-1.4411430331712325,-1.0033715081191574,7.041630965900198,3.4740880981420625
-1.451176748252424,-0.8537212209141286,7.076371846881618,3.4865618686980584
-1.4597139604615654,-0.7031859649560576,7.111237465568599,3.5049317441369006
-1.466745820111126,-0.551734458971423,7.146286783009968,3.528535430291147
-1.4722631647008404,-0.3994106216324925,7.181572137312879,3.5566947711855916
-1.4762572709171653,-0.24632957443309902,7.217139085024735,3.5887135027442607
-1.4787205666614962,-0.0926727154069441,7.253026220052178,3.623877928155497
-1.4796472938155656,0.06131843605513382,7.289264999333732,3.6614604725433675
-1.4790341094550143,0.21534981808586953,7.325879604059166,3.700725992082484
-1.4768806112741557,0.369083897796468,7.36288686397999,3.7409405952860686
-1.473189772296191,0.5221501613510882,7.400296269932851,3.7813825927459437
-1.4679682706826802,0.6741567977059724,7.438110095860311,3.8213550414629998
-1.4612267027056205,0.8247032047857061,7.476323646274941,3.860199210105772
-1.4529796706577633,0.9733928209605915,7.514925638375999,3.897308182815928
-1.4432457424481575,1.119845695246083,7.553898720204158,3.932139761074046
-1.4320472854956967,1.2637101704043963,7.593220117814898,3.9642278305431935
-1.4194101837916528,1.4046730726170755,7.63286239612033,3.9931914397918313
-1.4053634530654822,1.542467880744415,7.672794310518248,4.018740987476193
-1.389938774258038,1.6768804802061852,7.71298172039301,4.040681120711918
-1.3731699694559762,1.8077522764138687,7.753388531600129,4.058910188089609
-1.3550924466918375,1.9349806303402142,7.793977633481026,4.073416339008359
-1.3357426403884354,2.058516762167903,7.834711796871109,4.084270589020484
-1.3151574727667563,2.1783614277131833,7.875554502761314,4.0916173550010715
-1.2933738584896244,2.2945587910965752,7.916470676311325,4.095663088083658
-1.2704282705786587,2.4071889874558576,7.9574273071921615,4.096663689823898
-1.2463563807041,2.516359890265509,7.998393944090401,4.094911390742158
-1.221192781801445,2.6221985743894995,8.039343057997822,4.0907217106426605
-1.19497079605755,2.724842908242136,8.080250275104248,4.08442102208961
