th1 (rad),w1 (rad/s),th2 (rad),w2 (rad/s),a1 (rad/s^2),a2 (rad/s^2)
0.383590875015387,1.9071865863431896,4.998679240465077,0.3393362653946291,-3.1071515066790543,12.71942638831985
0.4026627408788189,1.876115071276399,5.002072603119023,0.46653052927782757,-3.242510527546062,12.523486700038806
0.4214238915915829,1.8436899660009383,5.006737908411801,0.5917653962782157,-3.401846849981422,12.319171451976965
0.4398607912515923,1.809671497501124,5.012655562374583,0.7149571107979853,-3.583851616678755,12.105917866055565
0.45795750622660353,1.7738329813343365,5.019805133482563,0.836016289458541,-3.787152426337992,11.883487182406677
0.4756958360399469,1.7359614570709567,5.028165296377148,0.9548511612826078,-4.010311907333694,11.651957017161708
0.4930554506106565,1.6958583379976198,5.037713807989975,1.071370731454225,-4.251829946784465,11.41171245279884
0.5100140339906327,1.6533400385297752,5.048427515304517,1.1854878559822133,-4.510149383459786,11.163435676798892
0.5265474343759304,1.6082385446951772,5.060282393864338,1.2971222127502022,-4.7836649534638624,10.908094076134992
0.5426298198228822,1.5604018951605385,5.073253615991841,1.4062031535115522,-5.070735262844811,10.64692678019466
0.5582338387744875,1.5096945425320905,5.087315647526957,1.5126724213134988,-5.369697550504686,10.381429722949768
0.5733307841998084,1.4559975670270435,5.102442371740092,1.6164867185429965,-5.678884997135462,10.113339367636787
0.5878907598700789,1.3992087170556888,5.118607238925522,1.7176201122193644,-5.996646330411236,9.844615305832992
0.6018828470406358,1.3392422537515765,5.135783440047716,1.8160662652776942,-6.3213674725197295,9.577422009994484
0.6152752695781515,1.2760285790263792,5.153944102700493,1.911840485377639,-6.651494972925334,9.314110086628228
0.6280355553684153,1.2095136292971258,5.173062507554269,2.0049815862439213,-6.985560967282924,9.057197448245462
0.6401306916613865,1.1396580196242965,5.193112323416708,2.0955535607263758,-7.322209403738379,8.809350897264675
0.6515272718576295,1.0664359255869127,5.214067859023972,2.1836470696990227,-7.660223282382602,8.573368694290444
0.6621916311134987,0.9898336927630866,5.235904329720962,2.2693807566419273,-7.998552665050662,8.352164765826291
0.6720899680411295,0.90984816611258,5.258598137287382,2.35290240430019,-8.33634323416279,8.148755290645347
0.6811884497022553,0.8264847337709521,5.282127161330384,2.4343899572066436,-8.672965214190816,7.966248487118583
0.6894532970399648,0.7397550816290439,5.30647106090245,2.5140524420778294,-9.00804252049753,7.807838502632749
0.6968508478562553,0.6496746564240686,5.331611585323229,2.5921308271041568,-9.341482069587524,7.6768043773209484
0.703347594420496,0.5562598357281934,5.3575328935942705,2.668898870877366,-9.67350327226531,7.5765151138243425
0.7089101927777779,0.45952480300554027,5.384221882303044,2.7446640220156096,-10.004667834107456,7.510441928058615
0.7135054408078333,0.3594781246644657,5.4116685225232,2.819768441296196,-10.335910099306782,7.482178776391183
0.717100222054478,0.2561190236713979,5.439866206936163,2.8945902290601078,-10.668568281810007,7.495472241436652
0.719661412291192,0.1494333408532978,5.468812109226763,2.9695449514744743,-11.004417010562134,7.554261792724942
0.721155745699725,0.03938917074767645,5.498507558741508,3.0450875694017236,-11.34570163908532,7.662731285394169
0.7215496374072017,-0.07406784564317676,5.528958434435525,3.1217148822556653,-11.69517467791526,7.825372258573245
0.7208089589507699,-0.19101959242232935,5.560175583258082,3.1999686048413976,-12.056134411645143,8.047059038038388
0.7188987630265466,-0.3115809365387808,5.592175269306496,3.2804391952217813,-12.432465114032821,8.3331346502121
0.7157829536611588,-0.435905587679109,5.624979661258714,3.3637705417239023,-12.828677034533088,8.689504801557044
0.7114238977843678,-0.5641923580244399,5.658617366675953,3.4506655897394727,-13.24994210098723,9.12273413593081
0.7057819742041234,-0.6966917790343122,5.693124022573348,3.5418929310987806,-13.702117408040737,9.64013375519973
0.6988150564137803,-0.8337129531147196,5.728542951884336,3.6382942686507778,-14.191741945284607,10.24982006947463
0.6904779268826331,-0.9756303725675657,5.764925894570844,3.740792469345524,-14.725980844766513,10.960709913523951
0.6807216231569574,-1.1228901810152307,5.802333819264299,3.8503995684807637,-15.31247268195841,11.782391331538628
0.669492721346805,-1.2760149078348149,5.840837814949107,3.96822348179615,-15.959004098766725,12.72476657492993
0.6567325722684569,-1.435604948822482,5.880520049767068,4.0954711475454495,-16.672884237797618,13.797292453441017
0.6423765227802322,-1.6023337912004583,5.921474761242523,4.23344407207986,-17.45980667562273,15.00752557956708
0.6263531848682276,-1.7769318579566855,5.963809201963322,4.383519327875531,-18.32185031783596,16.358490111291214
0.6085838662886607,-1.960150361135045,6.007644395242077,4.547104228988443,-19.254059375342628,17.844089269165135
0.5889823626773102,-2.152690954888471,6.053115437531962,4.725545121680095,-20.238735611868503,19.441348618418036
0.5674554531284255,-2.3550783110071563,6.100370888748762,4.919958607864275,-21.23618893696068,21.097726610761363
0.543904670018354,-2.567440200376763,6.149570474827406,5.130935873971889,-22.170371996414037,22.711254791123213
0.5182302680145864,-2.7891439203409036,6.200879833567124,5.358048421883121,-22.90808491213631,24.101584925325064
0.49033882881117735,-3.018224769462267,6.254460317785956,5.599064271136371,-23.232631878198237,24.973004424407986
0.46015658111655466,-3.250551088244249,6.310450960497319,5.848794315380451,-22.819733928008866,24.880036434244353
0.4276510702341122,-3.4787484275243377,6.368938903651124,6.097594679722895,-21.2388855830416,23.227625667592157
0.39286358595886883,-3.6911372833547538,6.429914850448353,6.329870936398817,-18.026069606191584,19.36969247612302
0.35595221312532127,-3.8713979794166695,6.493213559812341,6.523567861160047,-12.88068087651131,12.879921136075515
0.3172382333311546,-4.000204788181783,6.5584492384239415,6.652367072520803,-5.970136888336796,3.972689607433684
0.27723618544933676,-4.059906157065151,6.624972909149149,6.692093968595139,1.8555413378558074,-6.199612459689802
0.23663712387868524,-4.041350743686593,6.691893848835101,6.630097843998241,9.252939838174221,-15.807566352245848
0.19622361644181932,-3.9488213453048506,6.758194827275084,6.472022180475783,15.003631815882063,-23.19741374536106
0.1567354029887708,-3.79878502714603,6.822915049079842,6.240048043022172,18.571629462312426,-27.655143522793733
0.11874755271731051,-3.6130687325229056,6.885315529510064,5.963496607794235,20.142753855973915,-29.45298948449249
0.08261686539208146,-3.4116411939631663,6.944950495588006,5.6689667129493095,20.271065065545827,-29.357964206627624
0.0485004534524498,-3.208930543307708,7.001640162717499,5.375387070883034,19.529930720054253,-28.153184487475144
0.01641114801937272,-3.0136312361071655,7.05539403342633,5.093855226008282,18.35113238058469,-26.42126793615874
-0.013725164341698938,-2.8301199123013188,7.106332585686412,4.829642546646695,17.008177795644528,-24.52564531464481
-0.04202636346471213,-2.6600381343448736,7.154629011152879,4.584386093500247,15.654946380934273,-22.66615801313418
-0.06862674480816086,-2.503488670535531,7.2004728720878814,4.357724513368905,14.36900910076028,-20.93956959652331
-0.09366163151351617,-2.3597985795279284,7.244050117221571,4.148328817403672,13.183739001785058,-19.383819085688422
-0.11725961730879546,-2.227961189510078,7.285533405395608,3.954490626546788,12.108620371487383,-18.005694251129793
-0.13953922920389625,-2.106874985795204,7.325078311661076,3.77443368403549,11.14108891590747,-16.79676848552857
-0.1606079790618483,-1.9954640966361294,7.362822648501431,3.6064659991802044,10.273095881647135,-15.742103195869305
-0.18056262002820958,-1.8927331378196581,7.398887308493233,3.4490449672215115,9.494604047961586,-14.824787445961315
-0.19948995140640616,-1.7977870973400423,7.433377758165448,3.3007970927618984,8.795367501991953,-14.02817707880478
-0.21746782237980658,-1.7098334223201228,7.466385729093067,3.1605153219738504,8.165776464706507,-13.336899509116781
-0.2345661566030078,-1.6281756576730577,7.497990882312805,3.027146326882683,7.597205004056614,-12.737215775872585
-0.25084791317973837,-1.5522036076324917,7.5282623455816315,2.899774169123957,7.082102496004444,-12.217061548586358
-0.2663699492560633,-1.4813825826724472,7.557260087272871,2.777603553638093,6.613959442031609,-11.765939027127196
-0.28118377508278775,-1.4152429882521311,7.585036122809252,2.6599441633668213,6.187217351967842,-11.374749748624522
-0.29533620496530905,-1.3533708147324528,7.6116355644429206,2.546196665880576,5.79715904890308,-11.035613948102984
-0.30886991311263357,-1.295399224243422,7.637097531101726,2.4358405263995464,5.439797635368982,-10.7416983453143
-0.3218239053550678,-1.241001247889732,7.661455936365721,2.3284235429464033,5.111772628476761,-10.487061680749935
-0.3342339178339651,-1.1898835216049646,7.684740171795185,2.223552926138904,4.810256641357761,-10.266520861416804
-0.3461327530500148,-1.141780955191387,7.706975701056574,2.120887717524736,4.532873371273421,-10.075537392198122
-0.35755056260192863,-1.0964522214786527,7.728184578231821,2.0201323436027545,4.277626399655531,-9.910122327879884
-0.3685150848167152,-1.0536759574820975,7.748385901667849,1.9210311203239556,4.042837781124223,-9.766757449272813
-0.37905184439153616,-1.0132475796708553,7.767596212871088,1.8233635458312274,3.8270952476435864,-9.642330292302002
-0.3891843201882447,-0.9749766271944195,7.7858298483294,1.7269402429082075,3.6292068888952276,-9.534080799444915
-0.3989340864601889,-0.9386845583054672,7.803099250758482,1.6315994349137584,3.4481622868164856,-9.439557591431111
-0.4083209320432436,-0.9042029354373023,7.81941524510762,1.5372038589994472,3.283099225823433,-9.356582109300456
-0.41736296139761664,-0.8713719431790681,7.834787283697614,1.4436380379064426,3.133275242209406,-9.283219122162283
-0.4260766808294073,-0.840039190756974,7.849223664076678,1.3508058466848198,2.998043403110199,-9.217752321548137
-0.43447707273697705,-0.810058756725872,7.8627317225435265,1.2586283234693385,2.876831811912601,-9.15866392538889
-0.4425776603042358,-0.781290438606746,7.87531800577822,1.1670416842154496,2.7691264220885414,-9.104617393894866
-0.45039056469030325,-0.7535991743858605,7.886988422620374,1.0759955102765009,2.674456806502065,-9.054442518161737
-0.45792655643416186,-0.7268546063208399,7.897748377723139,0.9854510850948834,2.592384576754565,-9.00712228268976
-0.4651951024973703,-0.7009307605532942,7.907602888574088,0.8953798622679858,2.522494180101274,-8.961781027427518
-0.4722044101029032,-0.6757058187522814,7.916556687196768,0.8057620519937106,2.464385823024085,-8.917673545150512
-0.478961468290426,-0.6510619605220406,7.924614307716705,0.7165853165422056,2.4176702837283646,-8.87417484713416
-0.48547208789564644,-0.6268852576847569,7.931780160882127,0.6278435680708639,2.38196538346523,-8.830770414902252
-0.491740940472494,-0.6030656038501045,7.938058596562835,0.5395358639218414,2.3568938911666057,-8.78704682873233
-0.49777159651099506,-0.5794966649384385,7.943453955202054,0.4516653956345181,2.3420826395376975,-8.742682724819133
-0.5035665631603794,-0.5560758385430615,7.947970609158399,0.36423856838632673,2.3371626351842125,-8.697440082744006
-0.50912732154581,-0.5327042121912194,7.951612994842263,0.27726416755888666,2.3417699518336303,-8.65115588345686
-0.5144543636677221,-0.5092865126728832,7.954385636517851,0.19075260872431804,2.3555472050968422,-8.603734205785615
-0.5195472287944509,-0.48573104062191474,7.956293162605094,0.10471526666646189,2.378145419971492,-8.555138847175899
-0.5244045392006701,-0.4619495864221998,7.957340315271759,0.019163878194702902,2.409226118531418,-8.50538656276585
-0.529024035064892,-0.43785732523688564,7.957531954053707,-0.0658899874329556,2.448463474805971,-8.454541017036515
-0.5334026083172609,-0.4133726904888259,7.956873054179377,-0.15043539760332075,2.4955464063339603,-8.402707535320422
-0.5375363352221492,-0.3884172264254863,7.955368700203344,-0.23446247295652498,2.5501804967208757,-8.350028729676993
-0.541420507486404,-0.36291542145827754,7.953024075473779,-0.3179627602532949,2.6120896700764127,-8.296681056389222
-0.5450496617009868,-0.3367945247575134,7.9498444478712464,-0.4009295708171871,2.681017565752083,-8.242872341949326
-0.5484176069485619,-0.3099843490999926,7.945835152163075,-0.48335829423668036,2.756728589621046,-8.188840292204283
-0.5515174504395618,-0.2824170632037822,7.941001569220708,-0.5652466971587232,2.8390086455498653,-8.134851976594101
-0.5543416210715996,-0.2540269767482835,7.935349102249121,-0.6465952169246643,2.9276655770578794,-8.081204257336411
-0.5568818908390823,-0.2247503209777047,7.928883150079874,-0.7274072594980284,3.0225293738535606,-8.028225113110793
-0.5591293940488594,-0.1945250272391691,7.921609077484893,-0.8076895106291364,3.123452220453559,-7.976275789316305
-0.5610746443212511,-0.1632905050346335,7.913532182378602,-0.8874522685222994,3.2303084839768195,-7.9257536932770645
-0.5627075493715974,-0.1309874201948653,7.904657659693379,-0.96670980545507,3.3429947550891863,-7.877095943735096
-0.564017423573546,-0.09755747264397345,7.894990561638829,-1.045480764892421,3.4614300696717164,-7.830783480395276
-0.5649929982999857,-0.0629431719472563,7.884535753989905,-1.1237885996963737,3.5855564489253937,-7.787345641881035
-0.5656224300194583,-0.027087607458002358,7.873297867992941,-1.201662056115184,3.715339902266581,-7.747365129821174
-0.5658933060940383,0.010065791564663452,7.861281247431789,-1.2791357074133958,3.850772040634423,-7.711483293395574
-0.5657926481783917,0.048573511971007684,7.848489890357655,-1.3562505403473515,3.991872448040259,-7.680405692855179
-0.5653069130586816,0.08849223645141027,7.834927384954182,-1.4330545972759032,4.1386919568842755,-7.654907932481709
-0.5644219906941675,0.12987915602025302,7.820596838981423,-1.5096036766007204,4.291316968542254,-7.635841793189356
-0.563123199133965,0.17279232570567554,7.805500802215416,-1.5859620945326138,4.449874956052688,-7.6241417423770965
-0.5613952758769083,0.21729107526620242,7.78964118127009,-1.6622035119563847,4.614541281756152,-7.62083195349172
-0.5592223651242463,0.26343648808376396,7.773019146150526,-1.738411831491302,4.785547461063273,-7.627034029785931
-0.5565880002434086,0.3112919626943967,7.755635027835613,-1.8146821717891612,4.963191006003527,-7.643975695718147
-0.5534750806164647,0.36092387275443194,7.737488206117721,-1.8911219287463428,5.147846990875067,-7.673000795245396
-0.5498658418889203,0.4124023426631826,7.718576986830257,-1.9678519366987968,5.339981499348827,-7.7155810190702825
-0.5457418184622884,0.4658021576566709,7.698898467463269,-2.0450077468894996,5.540167140000614,-7.7733298732455
-0.5410837968857217,0.5212038290566771,7.678448389994374,-2.1227410456219546,5.749100857622802,-7.848019500394147
-0.5358717585951549,0.5786948376329051,7.657220979538154,-2.201221240625896,5.967624322776479,-7.941601073616892
-0.5300848102188258,0.6383710808606698,7.635208767131895,-2.280637251362065,6.1967472534589385,-8.056229603737725
-0.5237010994102191,0.7003385533952592,7.612402394618274,-2.3611995473994423,6.4376741113184295,-8.19429413474513
-0.5166977138762665,0.7647152945084434,7.58879039914428,-2.4431424887468935,6.691834720093069,-8.358454451344416
-0.5090505609311821,0.8316336417093741,7.564358974256811,-2.5267270332603378,6.960919473161931,-8.551685585771708
-0.5007342245140883,0.9012428364409935,7.539091703924207,-2.612243889118055,7.246919923580343,-8.777331583535812
-0.4917217961496784,0.9737120356767969,7.512969265033027,-2.7000172049534132,7.552175670079837,-9.039170156374407
-0.48198467579291043,1.0492337923775952,7.485969092983493,-2.790408906517157,7.879428540435487,-9.34148998688906
-0.47149233786913447,1.12802807778195,7.458065003918321,-2.8838238063860477,8.231885082307796,-9.689182496829215
-0.46021205709131496,1.210346928605028,7.429226765854461,-2.98071563135434,8.613288217161463,-10.08784974450804
-0.4481085878052647,1.2964798107766424,7.399419609540917,-3.0815941287994204,9.027998446845404,-10.543929584666984
-0.4351437896974983,1.3867597952450965,7.3686036682529235,-3.1870334246460903,9.481083964650832,-11.064837963093488
-0.4212761917450473,1.481570634891605,7.336733334006462,-3.2976818042770253,9.978416957865331,-11.659125619703175
-0.4064604853961313,1.5813548044702581,7.303756515963692,-3.414273060474057,10.526769501265061,-12.336641462877802
-0.3906469373514287,1.6866224994829087,7.269613785358952,-3.537639475102835,11.133895339591698,-13.108685561135767
-0.3737807123565996,1.7979614528788257,7.234237390607923,-3.6687263307141924,11.808571109263779,-13.988117743344294
-0.35580109782781133,1.9160471639714636,7.197550127300781,-3.8086075081476354,12.560547903705208,-14.989357349378695
-0.3366406261880967,2.041652643008516,7.159464052219305,-3.9585010816414226,13.400324134052473,-16.128155474133226
-0.3162240997580115,2.1756558843490406,7.119879041402891,-4.119782636382755,14.3385805698719,-17.420925287311004
-0.2944675409145211,2.3190416900477597,7.0786812150390634,-4.2939918892558655,15.38499649706459,-18.88324827672208
-0.2712771240140435,2.4728916550184055,7.0357412961465045,-4.482824372023086,16.54595636921595,-20.52688436272865
-0.24654820746385947,2.638351218710565,6.990913052426274,-4.6880932156503725,17.820304518318117,-22.3541244930717
-0.2201646952767538,2.816554263893746,6.94403212026977,-4.911634460581089,19.191740703720928,-24.347534257626585
-0.19199915263781636,3.0084716709309554,6.894915775663959,-5.155109803157355,20.615622056748908,-26.451971457437207
-0.1619144359285068,3.2146278914984445,6.843364677632385,-5.419629517731727,21.996969877652134,-28.544378841783622
-0.12976815701352235,3.434597590274966,6.789168382455068,-5.705073306149563,23.15612809332633,-30.386289201747992
-0.09542218111077269,3.6661588712082294,6.732117649393572,-6.008936198167043,23.781310748521868,-31.557732438168717
-0.058760592398690394,3.903971978693448,6.672028287411902,-6.32451352254873,23.379506140028553,-31.388076257949848
-0.01972087261175591,4.137767040093734,6.608783152186415,-6.6383942851282285,21.269458279449466,-28.944088692445323
0.021656797789181427,4.350461622888228,6.542399209335133,-6.927835172052681,16.7147648593205,-23.211246125173705
0.06516141401806372,4.517609271481433,6.473120857614606,-7.1599476333044185,9.315361531348408,-13.633026177819723
0.11033750673287805,4.610762886794917,6.401521381281562,-7.296277895082616,-0.40541206349743414,-0.9216305173649254
0.15644513560082723,4.606708766159943,6.328558602330736,-7.305494200256265,-10.733739122560024,12.575387509300878
0.20251222326242665,4.499371374934342,6.255503660328173,-7.179740325163256,-19.452466707554507,23.82967497422942
0.2475059370117701,4.304846707858797,6.18370625707654,-6.941443575420962,-25.123550134287022,30.901497840255452
0.29055440409035804,4.053611206515926,6.114291821322331,-6.632428597018407,-27.685377261633526,33.74835227038296
0.3310905161555173,3.776757433899591,6.0479675353521465,-6.294945074314578,-27.966942222870607,33.53775732680556
0.36885809049451324,3.497088011670885,5.985018084609001,-5.959567501046522,-26.93600987112036,31.607503086142295
0.4038289706112221,3.2277279129596814,5.925422409598536,-5.643492470185099,-25.312756550639477,28.94092731766367
0.4361062497408189,2.9746003474532867,5.868987484896684,-5.354083197008462,-23.525193514849104,26.114212478706424
0.4658522532153518,2.7393484123047958,5.8154466529266,-5.092941072221398,-21.791332828476513,23.414754635559493
0.4932457373383997,2.521435084020031,5.764517242204386,-4.858793525865804,-20.20561228544521,20.962207781884583
0.5184600881786,2.3193789611655786,5.7159293069457275,-4.649171448046958,-18.797546070286604,18.789566138215964
0.5416538777902558,2.1314035004627128,5.669437592465258,-4.461275786664798,-17.56545585903544,16.889265924884658
0.5629679127948829,1.9557489418723584,5.624824834598609,-4.292383127415952,-16.49427940499753,15.237206230141592
