th1 (rad),w1 (rad/s),th2 (rad),w2 (rad/s),a1 (rad/s^2),a2 (rad/s^2)
3.3892967896542125,-0.9501772023599303,3.2006597137188733,-1.1356523716995663,3.6990313470809757,-2.8855923236544645
3.379795017630613,-0.9131868888891206,3.1893031900018776,-1.164508294936111,3.624083486829964,-2.933248266762546
3.370663148741722,-0.8769460540208209,3.1776581070525163,-1.1938407776037365,3.5548830099930777,-2.988004369036796
3.361893688201514,-0.8413972239208901,3.165719699276479,-1.2237208212941044,3.4912922332638696,-3.049913283238725
3.353479715962305,-0.8064843015882515,3.153482491063538,-1.2542199541264916,3.4331287917764888,-3.118962890158388
3.3454148729464226,-0.7721530136704866,3.140940291522273,-1.2854095830280754,3.380165214915003,-3.195077963856294
3.3376933428097177,-0.7383513615213366,3.128086195691992,-1.3173603626666384,3.332127834762715,-3.278120830984682
3.3303098291945044,-0.7050300831737095,3.1149125920653256,-1.3501415709764852,3.2886951177225656,-3.367891158912504
3.323259528362767,-0.6721431319964839,3.1014111763555605,-1.3838204825656102,3.2494955309065725,-3.4641250359763216
3.3165380970428022,-0.6396481766874181,3.0875729715299043,-1.4184617329253735,3.2141050782793545,-3.5664935383757927
3.310141615275928,-0.6075071259046246,3.0733883542006506,-1.4541266683091314,3.1820446674876184,-3.67460101245716
3.304066544016882,-0.5756866792297485,3.058847087517559,-1.490872678433703,3.1527774965553754,-3.787983338116613
3.2983096772245846,-0.5441589042641948,3.043938360733222,-1.528752511814869,3.125706679317135,-3.9061064777156966
3.2928680881819425,-0.5129018374710235,3.0286508356150734,-1.567813576592026,3.100173358042725,-4.028365653182072
3.287739069807232,-0.48190010389059623,3.0129726998491533,-1.6080972331238468,3.075455578835455,-4.154085528745788
3.2829200687683264,-0.45114554810224167,2.996891727517915,-1.6496380884113047,3.050768226884718,-4.282521803778459
3.278408613287304,-0.42063786583339446,2.980395346633802,-1.6924633064490893,3.0252643305448594,-4.412864634117079
3.27420223462897,-0.3903852225279459,2.963470713569311,-1.73659195279026,2.998038040850216,-4.544244294833933
3.2702983824036904,-0.36040484211944374,2.9461047940414082,-1.7820343957385993,2.968129571448908,-4.67573946594469
3.266694333982496,-0.33072354640495466,2.928284450084022,-1.8287917903980462,2.934532338146337,-4.806388458493251
3.2633870985184465,-0.30137822302349127,2.909996532180042,-1.8768556749829788,2.896202463187063,-4.935203596385602
3.2603733162882116,-0.2724161983916206,2.891227975430212,-1.9262077109468347,2.852070704618844,-5.061188826113839
3.2576491543042954,-0.24389549134543217,2.8719658983207434,-1.9768195992079731,2.8010567357401674,-5.183360442545009
3.255210199390841,-0.2158849239880305,2.8521977023286635,-2.0286532036334233,2.7420855374609214,-5.30077059952947
3.253051350150961,-0.18846406861342127,2.8319111702923294,-2.081660909628718,2.6741054854267974,-5.4125330303130506
3.2511667094648264,-0.1617230137591533,2.8110945611960423,-2.1357862399318486,2.5961075265820757,-5.517850151904663
3.249549479327235,-0.13576193849333254,2.7897366987967236,-2.190964741450895,2.507144663295483,-5.61604049256997
3.2481918599423016,-0.11069049186037772,2.7678270513822145,-2.247125146376595,2.406350817068366,-5.7065651893229505
3.247084955023698,-0.08662698368969406,2.7453557999184484,-2.304190798269824,2.292958048896338,-5.789052180508194
3.246218685186801,-0.06369740320073067,2.72231389193575,-2.362081320074906,2.166311088330499,-5.8633166922496445
3.2455817111547938,-0.042034292317425684,2.6986930787350007,-2.4207144869974027,2.025878181787402,-5.929376704353013
3.2451613682316194,-0.021775510499551662,2.674485933865027,-2.480008254040933,1.8712574181088883,-5.987462287499
3.244943613126624,-0.003062936318462779,2.6496858513246178,-2.539882876915923,1.7021779208393786,-6.038018021331848
3.2449129837634394,0.013958842889931006,2.6242870225554586,-2.6002630571292413,1.5184955961771327,-6.081698109348675
3.2450525721923387,0.029143798851702332,2.598284391984166,-2.661080038222728,1.3201834671703216,-6.119354265002054
3.2453440101808555,0.04234563352340555,2.5716735916019386,-2.722273580872749,1.1073169756871017,-6.152016908734969
3.2457674665160896,0.05341880328027657,2.5444508557932113,-2.7837937499600987,0.8800549587968101,-6.180870639493208
3.2463016545488923,0.06221935286824467,2.5166129182936103,-2.8456024563550306,0.6386172729699537,-6.207225282479162
3.2469238480775746,0.06860552559794421,2.48815689373006,-2.907674709179822,0.38326022293788786,-6.232484034030634
3.247609903333554,0.07243812782732309,2.459080146638262,-2.9699995495201286,0.11425103812572943,-6.258110306309186
3.2483342846118273,0.07358063820858038,2.429380151143061,-3.0325806525832206,-0.16815737321531643,-6.285594817943415
3.249070090993913,0.07189906447642722,2.3990543446172286,-3.0954366007626546,-0.4637502632740957,-6.3164242970380045
3.2497890816386774,0.06726156184368626,2.368099978609602,-3.158600843733035,-0.7723725182318003,-6.352052887761471
3.2504616972571143,0.059537836661368256,2.336513970172272,-3.2221213726106495,-1.0939470197280545,-6.393877016182455
3.251057075623728,0.04859836646408771,2.3042927564461655,-3.286060142772474,-1.4284893763060644,-6.4432141119643145
3.2515430592883687,0.03431347270102707,2.2714321550184406,-3.350492283892117,-1.7761187258743376,-6.501285233422078
3.251886194015379,0.016552285442283692,2.2379272321795196,-3.415505136226338,-2.1370644994250934,-6.569201330730913
3.252051716869802,-0.0048183595519672405,2.203772180817256,-3.481197149533647,-2.5116691817756065,-6.647952623224016
3.2520035332742823,-0.029935051369723305,2.1689602093219196,-3.5476766757658873,-2.900387199761397,-6.7384003700180495
3.251704182760585,-0.058938923367337276,2.133483442564261,-3.615060679466068,-3.303780110996022,-6.8412701788918
3.2511147935269116,-0.09197672447729749,2.0973328357696,-3.683473381254986,-3.7225082607185147,-6.9571459206017625
3.2501950262821384,-0.12920180708448264,2.0604981019570503,-3.7530448404610035,-4.157319027386727,-7.0864632851225675
3.2489030082112937,-0.17077499735834992,2.02296765355244,-3.823909473312229,-4.60903169844212,-7.229502021703833
3.2471952582377104,-0.21686531434277112,1.9847285588193178,-3.8962044935292672,-5.078518915726368,-7.3863759357114525
3.245026605094283,-0.26765050350003483,1.945766513884025,-3.9700682528863815,-5.566684515059183,-7.55701976354433
3.2423501000592827,-0.32331734865062667,1.9060658313551613,-4.045638450521825,-6.074437465901687,-7.741172107064269
3.2391169265727764,-0.38406172330964355,1.8656094468499431,-4.1230501715924674,-6.602661504046959,-7.938353679131628
3.23527630933968,-0.45008833835011314,1.8243789451340184,-4.202433708383784,-7.1521799523066285,-8.147840194091973
3.2307754259561787,-0.5216101378731794,1.7823546080501806,-4.283912110324703,-7.723715151398409,-8.368629337502483
3.2255593245774468,-0.5988472893871636,1.7395154869469336,-4.367598403699728,-8.31784188738538,-8.599401378075804
3.2195708516835753,-0.6820257082610174,1.6958395029099362,-4.453592417480486,-8.934934216990184,-8.838473155607335
3.212750594600965,-0.7713750504309193,1.6513035787351313,-4.541977149036559,-9.575105174628451,-9.083745408857421
3.205036844096656,-0.8671261021772038,1.6058838072447656,-4.632814603125134,-10.238139014910901,-9.332643717140988
3.196365583074884,-0.9695074923263127,1.5595556612135144,-4.726141040296543,-10.923415924424912,-9.582053740622086
3.186670508151621,-1.078741651570562,1.512294250810549,-4.821961577702764,-11.629829551605349,-9.828251978780008
3.1758830916359155,-1.1950399470866153,1.4640746350335214,-4.9202440974905635,-12.355698278218634,-10.066833942901132
3.1639326921650492,-1.3185969298688016,1.4148721940586158,-5.020912436919575,-13.098671911714282,-10.292642468031454
3.1507467228663613,-1.4495836489859444,1.36466306968942,-5.123838861599889,-13.855636426937485,-10.499699870376979
3.136250886376502,-1.5881400132553192,1.3134246810734211,-5.2288358603036595,-14.622620524663692,-10.681148764032342
3.120369486243949,-1.7343662185019562,1.2611363224703847,-5.335647347943983,-15.394709073412997,-10.829207531588862
3.1030258240589292,-1.8883133092360862,1.2077798489909448,-5.443939423259871,-16.165969893075353,-10.935147600855641
3.0841426909665683,-2.0499730081668397,1.1533404547583461,-5.553290899268427,-16.92940170806801,-10.989300668389607
3.0636429608849,-2.21926702524752,1.0978075457656618,-5.663183905952323,-17.676912269378175,-10.981104627800436
3.0414502906324246,-2.3960361479413015,1.0411757067061385,-5.772994952230327,-18.399336381681533,-10.899196952148637
3.0174899291530117,-2.580029511758117,0.9834457571838352,-5.881986921751814,-19.086503581231792,-10.731563354340413
2.9916896340354304,-2.770894547570435,0.9246258879663171,-5.989302555295218,-19.72736416892367,-10.465747416120111
2.963980688559726,-2.968168189259672,0.8647328624133649,-6.09396002945642,-20.31017990341893,-10.08912330279514
2.9342990066671293,-3.171269988293861,0.8037932621188006,-6.194851262484371,-20.822781682186037,-9.589228575949504
2.902586306784191,-3.3794978051157214,0.741844749493957,-6.290743548243866,-21.25289094607422,-8.954147627324357
2.8687913287330336,-3.5920267145764635,0.6789373140115182,-6.38028502451711,-21.588494581397036,-8.172928863777098
2.832871061587269,-3.8079116603904337,0.6151344637663472,-6.462014313154881,-21.818255377042345,-7.2360113499989565
2.7947919449833645,-4.0260942141608576,0.5505143206347983,-6.53437442665487,-21.931932640514948,-6.135630421572098
2.754531002841756,-4.245413540566007,0.4851705763682496,-6.595730730870591,-21.920781751919623,-4.866168343358312
2.7120768674360956,-4.464621358085203,0.4192132690595437,-6.644392414304174,-21.777898780623183,-3.424416958997213
2.6674306538552437,-4.682400345891435,0.35276934491650197,-6.678636583894146,-21.498478232213273,-1.8097256755946185
2.6206066503963292,-4.897385128213568,0.2859829790775605,-6.696733840650093,-21.079959472142207,-0.02402052860052482
2.5716327991141936,-5.10818472293499,0.21901564067105955,-6.696974045936098,-20.522050466394745,1.9283021570378316
2.520550951884844,-5.313405227598937,0.15204590021169856,-6.6776910243657195,-19.82663514708319,4.040582787115678
2.4674168996088546,-5.51167157906977,0.08526898996804136,-6.637285196494562,-18.997590741646047,6.304160002303477
2.412300183818157,-5.70164748648623,0.01889613800309574,-6.574243596471527,-18.040560638615815,8.708622754000638
2.3552837089532943,-5.882053092872389,-0.04684629796161953,-6.487157368931521,-16.96274315278142,11.241979374081453
2.2964631780245703,-6.051680524400203,-0.11171787165093473,-6.374737575190706,-15.772763359207794,13.890672286550297
2.2359463727805684,-6.209408157992281,-0.1754652474028418,-6.235830852325203,-14.480691150325908,16.63938386611318
2.1738522912006455,-6.35421506949554,-0.23782355592609383,-6.069437013664071,-13.098252166870019,19.470611550809835
2.11031014050569,-6.4851975911642405,-0.29851792606273453,-5.874730898155973,-11.6392491001232,22.36403773254107
2.0454581645940473,-6.6015900821654725,-0.35726523504429425,-5.651090520830563,-10.120170677574578,25.295778763507283
1.9794422637723925,-6.7027917889412185,-0.4137761402525999,-5.39813273319549,-8.560918166581386,28.237661148853658
1.9124143458829803,-6.788400970607032,-0.4677574675845548,-5.115756121706953,-6.985530769775104,31.156731481698838
1.84453033617691,-6.858256278304784,-0.5189150288016243,-4.8041888068899645,-5.422751066780531,34.015245857488175
1.7759477733938622,-6.9124837889725885,-0.566956916870524,-4.464036348315083,-3.906251540423703,36.771387500971876
1.7068229355041364,-6.9515463043768255,-0.6115972803536748,-4.096322473305364,-2.4743560555996895,39.38091181940474
1.6373074724603682,-6.976289864932823,-0.6525605050867285,-3.702513355111316,-1.1691461653288118,41.799806424414584
1.56754457381104,-6.987981326586111,-0.6895856386378416,-3.28451529086717,-0.034943636433270114,43.98788485083991
1.497664760545179,-6.988330762950444,-0.7224307915465134,-2.844636442358771,0.8837032220261636,45.9130330158234
1.4277814529156745,-6.979493730730182,-0.7508771559701011,-2.3855061122005368,1.5442571915915513,47.55564493914444
1.3579865156083726,-6.964051158814266,-0.7747322170921065,-1.9099496628090924,1.9082658607530953,48.91267889960867
1.28834600402023,-6.944968500206735,-0.7938317137201975,-1.4208228738130058,1.9428341933760325,50.00078902440339
1.2188963190181625,-6.925540158272975,-0.8080399424583276,-0.9208149835689718,1.6210971544244035,50.85816082773821
1.1496409174354327,-6.909329186728731,-0.8172480922940173,-0.41223337529158977,0.9214131196467221,51.54497648976747
1.0805476255681454,-6.900115055532264,-0.8213704260469332,0.10321638960608492,-0.17483705492686125,52.1427880700473
1.011546475012823,-6.901863426081532,-0.8203382621508724,0.624644270306558,-1.6868053986134601,52.753396456796764
0.9425278407520076,-6.918731480067667,-0.8140918194478067,1.1521782348745258,-3.6389494129729347,53.49804439697864
0.8733405259513309,-6.955120974197396,-0.8025700370990615,1.687158678844312,-6.066863979363147,54.51778701473836
0.803789316209357,-7.015789613991027,-0.7856984503106184,2.2323365489916958,-9.024036149119922,55.9757705555121
0.7336314200694467,-7.106029975482226,-0.7633750848207014,2.792094254546817,-12.589325769039451,58.0617390362144
0.6625711203146244,-7.231923233172621,-0.7354541422752332,3.372711644908961,-16.874521730634985,60.99807099058236
0.5902518879828982,-7.400668450478971,-0.7017270258261435,3.982692354814785,-22.02970215243713,65.04402648267713
0.5162452034781084,-7.620965472003342,-0.6619001022779957,4.633132619641556,-28.239324574194363,70.48788598589404
0.440035548758075,-7.903358717745286,-0.6155687760815801,5.338011479500496,-35.688711622927016,77.59789777550898
0.36100196158062214,-8.260245833974556,-0.5621886612865752,6.113990457255586,-44.445483190616564,86.45362600275405
0.2783995032408766,-8.704700665880722,-0.5010487567140194,6.978526717283126,-54.113639694272344,96.45752640698626
0.19135249658206938,-9.245837062823446,-0.4312634895411881,7.943101981352989,-62.94141405715126,105.07932119540577
0.09889412595383491,-9.875251203394958,-0.3518324697276582,8.993895193307047,-65.93888245507631,105.21276931337707
0.00014161391988533334,-10.534640027945722,-0.2618935177945877,10.046022886440818,-52.819965737447696,82.30291853267165
-0.10520478635957188,-11.0628396853202,-0.1614332889301795,10.869052071767534,-12.97972474047253,21.41237476116302
-0.2158331832127739,-11.192636932724925,-0.05274276821250415,11.083175819379164,42.58081203481566,-61.839853005875725
-0.32775955254002315,-10.766828812376769,0.0580889899812875,10.464777289320407,77.49506239062333,-115.99422691305895
-0.4354278406637908,-9.991878188470535,0.16273676287449157,9.304835020189818,79.56379930639916,-123.55820767655686
-0.5353466225484962,-9.196240195406544,0.25578511307638974,8.06925294342425,66.6316325721385,-109.46671100169102
-0.6273090245025617,-8.52992386968516,0.3364776425106322,6.974585833407339,52.187045858789965,-92.76546363756363
-0.7126082631994133,-8.00805341109726,0.4062235008447056,6.046931197031703,40.12396193923999,-79.0856757979873
-0.7926887973103859,-7.60681379170486,0.4666928128150226,5.2560744390518295,30.683079967589087,-68.8912698093819
-0.8687569352274345,-7.299982992028969,0.5192535572055409,4.56716174095801,23.328215256661277,-61.50544306510302
-0.9417567651477241,-7.0667008394623565,0.564925174615121,3.95210731030698,17.518266379169436,-56.20451566580707
-1.0124237735423476,-6.8915181756706625,0.6044462477181909,3.390062153648909,12.844549231686893,-52.420440414580646
-1.0813389552990542,-6.763072683353793,0.63834686925468,2.8658577495031023,9.021703680051019,-49.73434657332353
-1.148969682132592,-6.672855646553283,0.667005446749711,2.368514283769867,5.8563309612117775,-47.836502223911246
-1.215698238598125,-6.6142923369411655,0.6906905895874096,1.8901492615307545,3.219833176590715,-46.491247121016585
-1.2818411619675367,-6.582094005175258,0.7095920822027171,1.4252367903205885,1.0285341559136902,-45.51231558948337
-1.3476621020192894,-6.571808663616121,0.7238444501059229,0.9701136344257548,-0.7705418716790731,-44.747051902044696
-1.4133801886554507,-6.579514082332912,0.7335455864501804,0.5226431154053078,-2.210170910372045,-44.06726170743704
-1.4791753294787797,-6.6016157914366325,0.7387720176042335,0.08197049833093739,-3.3110985958666546,-43.36483575585232
-1.545191487393146,-6.634726777395299,0.7395917225875429,-0.3516778592275858,-4.088673462532814,-42.550666115479835
-1.611538755167099,-6.675613512020627,0.7360749439952671,-0.7771845203823842,-4.5582601234376945,-41.55557147820853
-1.6782948902873052,-6.7211961132550035,0.7283030987914433,-1.1927402351644694,-4.739415225817967,-40.33202733449264
-1.7455068514198553,-6.7685902655131835,0.7163756964397986,-1.5960605085093957,-4.658637977719942,-38.85558195604377
-1.813192754074987,-6.815176645290383,0.7004150913547046,-1.9846163280698335,-4.350506407941184,-37.12503510040715
-1.881344520527891,-6.858681709369795,0.6805689280740063,-2.355866679073905,-3.857160829838186,-35.16080690428116
-1.9499313376215888,-6.897253317668176,0.6570102612832672,-2.7074747481167165,-3.2263372032611044,-33.00139112093738
-2.0189038707982707,-6.929516689700788,0.6299355138021001,-3.0374886593260904,-2.508394669343649,-30.698261903948676
-2.0881990376952784,-6.954600636394224,0.5995606272088392,-3.3444712783655772,-1.7529338968093113,-28.30995678697815
-2.1577450440592205,-6.972129975362317,0.5661159144251834,-3.6275708462353586,-1.0056135955995886,-25.896197902516402
-2.2274663438128437,-6.982186111318313,0.5298402059628298,-3.886532825260523,-0.3056456853053056,-23.51282375521739
-2.297288204926027,-6.985242568171366,0.4909748777102245,-4.121661062812697,0.315762493365449,-21.20804694989355
-2.3671406306077403,-6.9820849432377114,0.44975826708209754,-4.333741532311632,0.8359759695375472,-19.0202324758864
-2.4369614800401176,-6.973725183542336,0.40642085175898124,-4.5239438570704955,1.2406456117932423,-16.977104633633473
-2.506698731875541,-6.961318727424404,0.3611814131882763,-4.69371490340683,1.522804684182412,-15.096098928952745
-2.576311919149785,-6.9460906805825795,0.314244264154208,-4.844675892696357,1.681611479316808,-13.385493051753823
-2.645772825955611,-6.929274565789411,0.2657975052272444,-4.978530823213895,1.7209710546097798,-11.84595908202644
-2.715065571613505,-6.9120648552433135,0.21601219699510543,-5.09699041403416,1.6482102846425304,-10.47224281254476
-2.784186220165938,-6.895582752396888,0.16504229285476385,-5.2017128421596075,1.4729155443519202,-9.254761788806386
-2.8531420476899068,-6.880853596953369,0.11302516443316778,-5.2942604600476715,1.2059858432865727,-8.180996938328361
-2.9219505836594406,-6.868793738520503,0.06008255983269106,-5.376070429430955,0.8589124876184796,-7.236620270033124
-2.990638521044646,-6.860204613644318,0.006321855538381507,-5.448436632131286,0.4432698925579432,-6.406348878451101
-3.059240567181089,-6.855771914718739,-0.04816251078293136,-5.512500120915797,-0.029611578320816456,-5.6745448031332595
-3.1277982863282765,-6.856068030501947,-0.10328751199208933,-5.569245568947129,-0.5488245292192625,-5.0255951487909325
-3.196358966633296,-6.86155627579414,-0.1589799676815606,-5.619501520435039,-1.1039479806185415,-4.444111754085201
-3.2649745293912376,-6.872595755600325,-0.215174982885911,-5.66394263797589,-1.6850241443391378,-3.9149885253050094
-3.3337004869472406,-6.889445997043716,-0.2718144092656699,-5.703092523228941,-2.282472215005973,-3.4233502899454025
-3.4025949469176777,-6.912270719193776,-0.32884533449795933,-5.737326026128395,-2.8869577881885204,-2.95442169591282
-3.4717176541096153,-6.941140297075661,-0.38621859475924325,-5.766870243087523,-3.489232090707501,-2.4933395478919365
-3.5411290570803717,-6.976032617982736,-0.4438872971901185,-5.791803638566443,-4.079951738010227,-2.0249277633624665
-3.610889383260199,-7.016832135362838,-0.5018053335757829,-5.812052916200067,-4.649487334036618,-1.5334512451800788
