th1 (rad),w1 (rad/s),th2 (rad),w2 (rad/s),a1 (rad/s^2),a2 (rad/s^2)
4.863813076774624,2.159133657220191,5.197059470934981,-1.4741332022286162,12.044549433241524,-4.235555990494478
4.885404413346826,2.279579151552606,5.182318138912695,-1.516488762133561,12.047435432544704,-4.302940579936359
4.908200204862353,2.400053505878053,5.167153251291359,-1.5595181679329246,11.978211390618872,-4.249889164176653
4.932200739921133,2.5198356197842418,5.1515580696120296,-1.6020170595746912,11.81834425003495,-4.046797508569374
4.957399096118976,2.638019062284591,5.135537899016283,-1.642485034660385,11.549432220948338,-3.6641681696358543
4.983779286741822,2.7535133844940747,5.119113048669679,-1.6791267163567436,11.155320753702917,-3.075736746668971
5.011314420586762,2.865066592031104,5.102321781506112,-1.7098840838234333,10.624841585878686,-2.262526369699312
5.039965086507073,2.9713150078898907,5.085222940667878,-1.7325093475204263,9.95483337065626,-1.2173439771004437
5.069678236585972,3.0708633415964535,5.067897847192674,-1.7446827872914308,9.152802651532744,0.05120228105681289
5.100386870001937,3.162391368111781,5.050451019319759,-1.7441707644808626,8.238373990459523,1.5163942946355644
5.132010783683055,3.244775108016376,5.033009311674951,-1.729006821534507,7.242732631664205,3.133967032005182
5.164458534763218,3.317202434333018,5.015719243459605,-1.697667151214455,6.20569645046398,4.846097440874336
5.197630559106549,3.379259398837658,4.998742571947461,-1.6492061768057116,5.1707901173028485,6.588324778006284
5.231423153094926,3.4309673000106864,4.982250510179404,-1.5833229290256488,4.179430124027548,8.297848055269993
5.265732826095032,3.4727616012509617,4.966417280889147,-1.500344448472949,3.2656811023313184,9.921122303934817
5.300460442107542,3.505418412274275,4.951413836404418,-1.4011332254336006,2.4528087125388742,11.41898384252993
5.335514626230284,3.5299464993996637,4.937402504150082,-1.2869433870083014,1.7521658130860829,12.768496135105758
5.370814091224281,3.5474681575305245,4.924533070279999,-1.1592584256572438,1.1641777760280971,13.96180113268468
5.406288772799586,3.5591099352908055,4.912940486023427,-1.019640414330397,0.6806858857685315,15.0029933057129
5.441879872152494,3.565916794148491,4.9027440818801225,-0.869610481273268,0.28779150702599576,15.904217946490762
5.477539040093979,3.568794709218751,4.89404797706739,-0.7105683018083604,-0.0314742153810308,16.681954962242045
5.513226987186166,3.5684799670649405,4.886942294049306,-0.5437487521859399,-0.29503160006299994,17.35403724267785
5.548911786856816,3.5655296510643106,4.881504806527447,-0.3702083797591613,-0.5202928382652394,17.937576768354532
5.5845670833674586,3.5603267226816584,4.8778027227298555,-0.190832612075616,-0.7232976515508489,18.447726747349424
5.620170350594275,3.55309374616615,4.875894396609099,-0.006355344602121754,-0.9183041652996582,18.897096585710702
5.655701288055937,3.543910704513153,4.875830843163078,0.1826156212549853,-1.1176849754810942,19.29561800738703
5.691140395101068,3.5327338547583422,4.877656999375628,0.3755718013288556,-1.3320020283028622,19.650690198630315
5.726467733648652,3.5194138344753134,4.881412717388916,0.5720787033151588,-1.5701680189401401,19.967476989100497
5.761661871993405,3.503712154285912,4.887133504422068,0.7717534732061637,-1.8396340170171497,20.249272006460078
5.796698993536264,3.4853158141157405,4.89485103915413,0.9742461932707644,-2.1465681169742683,20.49788140598385
5.831552151677421,3.4638501329459976,4.904593501086837,1.179225007330603,-2.496007541964393,20.713997175524824
5.866190653006881,3.4388900575263537,4.916385751160143,1.3863649790858512,-2.891978060810645,20.897548759665995
5.900579553582144,3.4099702769182474,4.930249400951001,1.595340466682511,-3.3375814939765482,21.04802912319331
5.934679256351327,3.376594461978482,4.946202805617826,1.805820757914444,-3.8350559788924885,21.164795472126965
5.968445200971112,3.338243902189557,4.96426101319697,2.0174687126357136,-4.385815649190332,21.247346283021873
6.0018276399930075,3.294385745697654,4.984435700323328,2.2299421754659323,-4.990477196788062,21.295576193625884
6.034771497449984,3.2444809737297735,5.006735122077987,2.4428979374021913,-5.648880876183239,21.310009433764222
6.067216307187282,3.187992164967941,5.031164101452009,2.6559980317398333,-6.360113112751199,21.29201130144639
6.099096228836961,3.124391033840429,5.057724081769408,2.8689181447542973,-7.122537087347049,21.243975999690285
6.130340139175366,3.053165662966958,5.086413263216951,3.0813579047512003,-7.9338364941259085,21.169488089729366
6.160871795805035,2.9738272980256992,5.117226842264463,3.293052785648494,-8.791076054182616,21.073453919197338
6.1906100687852925,2.885916537483873,5.150157370120948,3.5037873248404674,-9.690780215846571,20.962198572799778
6.219469234160131,2.789008735325407,5.1851952433693524,3.713409310568465,-10.629028635626396,20.84352296138788
6.247359321513385,2.682718448969143,5.222329336475037,3.921844540182344,-11.601563291780217,20.726714233521758
6.274186506003076,2.566702816051341,5.261547781876861,4.1291116825175616,-12.603897093718208,20.62250013542521
6.2998535341635895,2.440663845114159,5.302838898702037,4.335336683871813,-13.63140706762191,20.54293327330669
6.324260172614731,2.3043497744379398,5.346192265540755,4.54076601660488,-14.679385735566829,20.50118292185895
6.347303670359111,2.1575559170822713,5.391599925706804,4.745777845823469,-15.743010738409497,20.511197749779434
6.3688792295299335,2.000125809698176,5.439057704165038,4.950889823321264,-16.817172844154978,20.587179096558497
6.388880487626915,1.8319540812566264,5.488566602398251,5.156761614286848,-17.896072839265003,20.742766068404627
6.407200028439481,1.6529933528639764,5.5401342185411195,5.364189274970895,-18.972453555768197,20.9897733953453
6.423729961968121,1.4632688173062944,5.593776111290828,5.574087008924348,-20.036268150338813,21.336231116521542
6.438362650141184,1.2629061358029063,5.649516981380072,5.787449320089563,-21.072493326192046,21.783341403234143
6.4509917114992135,1.0521812025409858,5.707391474580967,6.005282734121905,-22.057674891853097,22.32078736732824
6.461513523524624,0.8316044536224548,5.767444301922186,6.228490607795187,-22.954659945051162,22.919620512781712
6.469829568060848,0.6020578541719432,5.829729208000138,6.457686812923004,-23.704894436002103,23.521805878143546
6.475850146602568,0.36500890981192224,5.894306076129369,6.69290487170444,-24.21784069365599,24.025673626771265
6.479500235700687,0.12283050287536235,5.9612351248464135,6.933161607972153,-24.357943791239528,24.267618178429398
6.480728540729441,-0.12074893503703293,6.030566740926135,7.1758377897564465,-23.93200215293123,24.00357613512269
6.479521051379071,-0.36006895656634524,6.1023251188237,7.415873551107674,-22.684960546128256,22.900766805509164
6.475920361813407,-0.5869185620276278,6.176483854334776,7.644881219162765,-20.320417951769382,20.561522047520675
6.470051176193131,-0.7901227415453216,6.252932666526404,7.850496439637972,-16.569391560972974,16.611293077966877
6.462149948777678,-0.9558166571550513,6.3314376309227836,8.01660937041764,-11.32252347106139,10.872322252324206
6.452591782206127,-1.0690418918656652,6.41160372462696,8.125332592940882,-4.794574297205258,3.5823331856057026
6.441901363287471,-1.116987634837718,6.492857050556369,8.16115592479694,2.3889983961277768,-4.489206172062263
6.430731486939094,-1.09309765087644,6.574468609804338,8.116263863076318,9.318063398289002,-12.207507771741124
6.4198005104303295,-0.9999170168935501,6.6556312484351015,7.994188785358907,15.131152897969361,-18.5121120139877
6.409801340261394,-0.8486054879138565,6.73557313628869,7.80906766521903,19.337586437243726,-22.834698848458412
6.401315285382255,-0.6552296235414192,6.813663812940881,7.580720676734446,21.903198418128408,-25.197649130597807
6.394762989146841,-0.4361976393601351,6.889471019708226,7.328744185428468,23.10426321698421,-26.008794132015172
6.39040101275324,-0.205155007190293,6.96275846156251,7.068656244108316,23.320424961641372,-25.785481029509256
6.3883494626813375,0.028049242426120724,7.033445024003593,6.810801433813223,22.895865879843914,-24.97716060192195
6.388629955105599,0.25700790122455985,7.101553038341725,6.561029827794004,22.087851292520217,-23.905935911807394
6.391200034117845,0.477886414149762,7.167163336619665,6.3219704686759295,21.06800271421207,-22.775192036981068
6.395978898259343,0.6885664412918827,7.230383041306424,6.094218548306118,19.942457927732764,-21.700482008115017
6.402864562672262,0.8879910205692103,7.2913252267894855,5.877213728224969,18.77317028352867,-20.73972184094453
6.411744472877954,1.075722723404497,7.350097364071735,5.669816509815523,17.594436352368433,-19.915735487407947
6.422501700111999,1.2516670869281814,7.406795529169891,5.470659154941444,16.42415348099204,-19.231163044540303
6.435018370981281,1.4159086217381018,7.461502120719305,5.278347524496041,15.27097209601167,-18.677683042417435
6.449177457198662,1.5686183426982185,7.514285595964266,5.0915706940718675,14.13864629834055,-18.24148745615536
6.464863640625644,1.7100048056816242,7.565201302904985,4.909155819510314,13.028591551564773,-17.906440318380742
6.481963688682461,1.8402907211972719,7.614292861100088,4.730091416326506,11.941333693159722,-17.65585804770849
6.500366595894434,1.9597040581288692,7.661593775263353,4.553532835849421,10.877285692418997,-17.47349035315575
6.5199636364757225,2.068476915053059,7.707129103621847,4.378797932317864,9.83712229553045,-17.344046282235823
6.5406484056262535,2.1668481380083637,7.750917082945026,4.205357469495506,8.821917635947974,-17.253465398431032
6.562316887006337,2.2550673143678437,7.792970657639981,4.032822815511196,7.833146464909798,-17.189047592395486
6.584867560150015,2.3333987790169415,7.833298885795093,3.860932339587241,6.872610672760303,-17.139504369871972
6.608201547940185,2.4021248857445445,7.871908209190965,3.6895372958885213,5.942329222049597,-17.094965330573213
6.63222279679763,2.4615481779650406,7.908803582149851,3.5185876425827893,5.044415267623136,-17.046957191953407
6.656838278577281,2.511992330641272,7.943989458575679,3.348118070663255,4.180955334262906,-16.98836385326841
6.681958201883694,2.553801883983901,7.977470639282312,3.178234432130571,3.35389973113641,-16.913371497090317
6.707496220723533,2.5873408812952654,8.009252983603618,3.0091007171596678,2.564969605952296,-16.81740071313123
6.733369629536486,2.6129905773547883,8.039343990775215,2.8409267100283553,1.815583434719943,-16.69702698033778
6.759499535310034,2.631146411701988,8.067753257875498,2.6739564402249774,1.1068038833479144,-16.549890883843446
6.785810999427054,2.6422144505354668,8.094492822277749,2.5084575313865427,0.43930462856220787,-16.37459977101447
6.812233143932408,2.6466074968210886,8.119577397591614,2.344711533676398,-0.18664424536515767,-16.170622930487657
6.8386992189006195,2.644741054367437,8.143024512928378,2.1830053043715214,-0.7711743290868017,-15.938182680365266
6.865146629444294,2.637029311076569,8.164854565972092,2.0236234775678685,-1.314802928033442,-15.678143914873763
6.89151692255506,2.6238812817962347,8.185090800747771,1.8668420384191309,-1.818405751922127,-15.39190466458147
6.917755735373023,2.6056972242770136,8.203759221131962,1.7129229917733162,-2.2831809860970385,-15.08129008282446
6.943812707615793,2.5828654144160432,8.220888451049696,1.5621100909450716,-2.7106073762861236,-14.748452005528994
6.969641361759954,2.5557593406531818,8.236509551959147,1.4146255708897817,-3.1023987503462083,-14.395775876401945
6.995198955166486,2.52473535314972,8.250655807668045,1.2706678121257622,-3.460457117009031,-14.025796419999184
7.0204463086979825,2.4901307819796297,8.263362485789303,1.1304098479257703,-3.7868261521020212,-13.64112301518018
7.045347616517779,2.4522625204586093,8.27466658426856,0.9939986177739685,-4.083646533400088,-13.244375300146082
7.069870241722365,2.4114260551246085,8.2846065704463,0.8615548647725076,-4.353114238177259,-12.838129150874641
7.093984502273611,2.3678949127428357,8.293222119094025,0.7331735732637612,-4.5974425900282565,-12.424872833946557
7.1176634514010395,2.321920486842553,8.300553854826664,0.6089248449242957,-4.81882854624643,-12.006972852661958
7.140882656269465,2.2737322013800885,8.306643103275906,0.4888551163976761,-5.019423462110984,-11.5866487862774
7.163619978283266,2.2235379667589785,8.311531654439882,0.3729886285349021,-5.201308357993317,-11.165956265572275
7.185855357950856,2.1715248831790452,8.315261540725231,0.26132906587917937,-5.36647355003694,-10.746777129436941
7.207570606782646,2.117860147678676,8.317874831384023,0.15386129458480996,-5.516802383481975,-10.330815759824064
7.2287492082594325,2.0626921238438563,8.319413444329872,0.05055313698656931,-5.654058725790838,-9.919600587764812
7.249376129497871,2.0061515365859477,8.319918975699737,-0.048642868891078814,-5.77987782966637,-9.514489792197757
7.26943764486373,1.948352758289284,8.319432547010827,-0.14378776681305638,-5.895760158275363,-9.116680267251285
7.288921172446623,1.8893951567065304,8.317994669342696,-0.23495456948556925,-6.003067770750073,-8.72721900427298
7.307815124013689,1.8293644789990295,8.31564512364784,-0.32222675952829904,-6.103022889744436,-8.347016115354128
7.326108768803679,1.768334250101585,8.312422856052557,-0.4056969206818403,-6.196708309255276,-7.9768588097342565
7.343792111304695,1.7063671670090323,8.308365886845738,-0.4854655087791829,-6.2850693453793935,-7.617425719083562
7.360855782974785,1.6435164735552383,8.303511231757946,-0.5616397659700185,-6.368917081030011,-7.269301049416367
7.377290947710338,1.5798273027449383,8.297894834098246,-0.6343327764641822,-6.448932704321408,-6.932988114708411
7.393089220737788,1.5153379757017242,8.291551506333604,-0.7036626576112663,-6.525672786338431,-6.608921879670189
7.408242600494805,1.45008124783834,8.284514879757491,-0.7697518764079683,-6.599575384848286,-6.297480206916671
7.422743412973189,1.3840854939898573,8.276817360993412,-0.832726678477135,-6.670966894187289,-5.998993567922911
7.436584267913087,1.3173758250479843,8.26849009420864,-0.892716614156364,-6.740069586552376,-5.7137530389550175
7.449758026163567,1.2499751291824606,8.259562928067076,-0.9498541445459142,-6.807009805231634,-5.442016463972863
7.462257777455392,1.1819050311301442,8.250064386621617,-1.0042743091856428,-6.871826775440045,-5.184012727469821
7.474076827766694,1.1131867633757437,8.24002164352976,-1.056114436460341,-6.934481993488798,-4.9399441420576276
7.485208695400451,1.0438419434408557,8.229460499165157,-1.1055138778809173,-6.99486914074241,-4.709987018383834
7.49564711483486,0.9738932520334316,8.218405360386347,-1.1526137480647556,-7.0528244466035,-4.494290547956534
7.505386047355194,0.9033650075673966,8.2068792229057,-1.197556653544321,-7.108137396659253,-4.292974191069777
7.514419697430868,0.832283633600804,8.194903656370256,-1.2404863954550187,-7.160561650765756,-4.106123819891361
7.522742533766876,0.7606780170931464,8.182498792415705,-1.2815476336539324,-7.209826004333085,-3.933786917867468
7.5303493139378075,0.6885797570498156,8.169683316079166,-1.3208855028326072,-7.255645197751052,-3.775967177518939
7.537235111508306,0.6160233050723051,8.15647446105084,-1.3586451746077965,-7.297730357089802,-3.632618866050481
7.543395344559029,0.543046001501407,8.142888009304762,-1.3949713632683014,-7.335798836912179,-3.5036413389884373
7.548825804574043,0.46968801313228525,8.128938295672079,-1.4300077766581858,-7.369583235583366,-3.388874074181431
7.553522684705365,0.3959921807764516,8.114638217905497,-1.4638965174,-7.398839366252705,-3.288092571054677
7.55748260651313,0.3220037871139245,8.099999252731497,-1.4967774431105467,-7.423352992959225,-3.201005413614429
7.560702644384269,0.24777025718433227,8.08503147830039,-1.528787497246691,-7.442945180083748,-3.1272527325652026
7.563180346956112,0.17334080538349478,8.069743603327924,-1.560060024572343,-7.457476152454755,-3.0664062257393816
7.564913755009947,0.09876604385894723,8.0541430030822,-1.5907240868297368,-7.466847619633027,-3.017970811769203
7.565901415448536,0.02409756766261696,8.038235762213901,-1.6209037949474288,-7.471003577391781,-2.9813879052323027
7.566142391125163,-0.05061246811130085,8.022026724264427,-1.6507176739997518,-7.469929658029507,-2.956040218251211
7.5656362664440495,-0.12531176469159594,8.005519547524429,-1.680278076182264,-7.463651154900537,-2.9412579192175516
7.564383148797133,-0.1999482762406013,7.9887167667626064,-1.7096906553744395,-7.4522298919617596,-2.936325918520464
7.5623836660347274,-0.2744705751602189,7.971619860208862,-1.7390539145596442,-7.435760143607368,-2.9404920071447678
7.5596389602831255,-0.34882817659629256,7.9542293210632655,-1.7684588346310919,-7.41436383204507,-2.952975548473079
7.556150678517163,-0.4229718149167433,7.936544732716954,-1.7979885901158226,-7.388185238522588,-2.972976416688372
7.551920960367996,-0.49685366730196917,7.918564846815796,-1.8277183542827062,-7.357385461456779,-2.999683885485558
7.546952423694976,-0.570427521916537,7.900287663272969,-1.8577151931375617,-7.322136840439629,-3.0322851958438575
7.541248148475811,-0.6436488903209333,7.881710511341593,-1.8880380450960004,-7.282617542313848,-3.069973568066704
7.534811659572601,-0.7164750657440718,7.862830130890633,-1.9187377807766675,-7.239006476497259,-3.11195546744662
7.527646908915161,-0.7888651305090444,7.843642753082866,-1.9498573354511337,-7.1914786740407575,-3.1574569810321917
7.5197582576100706,-0.8607799172494519,7.824144179728355,-1.9814319052614557,-7.140201230931608,-3.205729211643123
7.511150458437576,-0.932181929558768,7.8043298606757405,-2.013489197377887,-7.085329882977587,-3.2560526416221687
7.501828639141988,-1.0030352283885438,7.784194968701962,-2.0460497237941087,-7.027006248867982,-3.3077404606325853
7.491798286858103,-1.0733052908772236,7.76373447146402,-2.0791271284004345,-6.965355750864396,-3.3601408876318897
7.48106523394933,-1.1429588483858675,7.742943200180016,-2.1127285372767535,-6.900486199714301,-3.412638546194913
7.4696356454654715,-1.2119637103830105,7.721815914807248,-2.1468549227387026,-6.832487012067063,-3.4646549744424027
7.457516008361641,-1.2802885805036812,7.700347365579861,-2.1815014724831268,-6.761429014822199,-3.5156483662600313
7.444713122556604,-1.3479028706519032,7.67853235085503,-2.216657956145727,-6.687364781109383,-3.5651126499187518
7.431234093850085,-1.414776518462997,7.656365771293573,-2.252309082644915,-6.6103294364718534,-3.6125760145045525
7.417086328665455,-1.4808798128277156,7.633842680467124,-2.28843484278996,-6.530341870691035,-3.657598994705548
7.402277530537178,-1.546183231534626,7.610958332039225,-2.3250108327370156,-6.447406289914518,-3.6997722214707403
7.386815698221832,-1.6106572944337711,7.5877082237118545,-2.362008554951723,-6.361514044722667,-3.7387139407632946
7.370709125277494,-1.6742724348809979,7.5640881381623375,-2.399395694359356,-6.272645671943236,-3.7740673958890376
7.353966400928684,-1.7369988916004302,7.540094181218744,-2.4371363683182463,-6.180773090935435,-3.805498161353045
7.336596412012679,-1.7988066225097845,7.515722817535561,-2.4751913499317766,-6.085861898347224,-3.8326915083986584
7.318608345787581,-1.8596652414932568,7.490970904036243,-2.513518265015763,-5.987873708731892,-3.855349874680939
7.300011693372649,-1.9195439785805757,7.465835721386085,-2.5520717637625725,-5.886768491714246,-3.8731905031483116
7.280816253586843,-1.9784116634977182,7.440315003748459,-2.5908036687940554,-5.782506859530756,-3.885943308257648
7.261032136951866,-2.036236732093026,7.414406967060518,-2.629663101876632,-5.675052261708922,-3.8933490211354482
7.2406697696309354,-2.092987254710115,7.388110336041752,-2.668596592087986,-5.56437304643894,-3.8951576591436066
7.2197398970838345,-2.1486309851745045,7.361424370120872,-2.707548168679422,-5.450444350910289,-3.891127359375767
7.19825358723209,-2.2031354286836073,7.334348888434078,-2.7464594422731796,-5.333249785654575,-3.881023609725307
7.176222232945253,-2.2564679265401533,7.306884294011346,-2.7852696783704327,-5.212782880895803,-3.8646189051275246
