th1 (rad),w1 (rad/s),th2 (rad),w2 (rad/s)
2.099370463007488,2.962600652784303,4.656888833930899,1.2914345600879555
2.128996469535331,2.871499872823908,4.669803179531779,1.2648865138593444
2.15771146826357,2.7844341870911173,4.682452044670372,1.2443667802602745
2.185555810134481,2.701322460746043,4.694895712472975,1.229679118980915
2.2125690347419416,2.6220762078391875,4.7071925036627835,1.2206128548439612
2.2387897968203334,2.5466029584117664,4.719398632211223,1.2169481376810123
2.264255826404451,2.4748090951886796,4.731568113588033,1.2184603127441112
2.2890039173563377,2.406602205292228,4.743752716715474,1.2249234958982567
2.3130699394092598,2.3418929958112296,4.756001951674457,1.2361134493280144
2.336488869367372,2.280596822814713,4.768363086167737,1.2518098509366242
2.359294837595519,2.2226348821654183,4.780881184677103,1.2717980452153155
2.381521186417173,2.167935107851773,4.793599165129256,1.2958703561215448
2.4032005374956906,2.1164328200088387,4.806557868690472,1.3238270342379368
2.424364865695779,2.068071160732047,4.819796139032851,1.3554769018118151
2.4450455773030995,2.02280135150306,4.83335090805097,1.3906377506550307
2.4652735908181302,1.980582801764203,4.84725728555752,1.4291365396318982
2.485079418835772,1.9413830940476553,4.861548650953838,1.470809430783073
2.5044932497762487,1.9051778671843085,4.876256745261669,1.5155016961414314
2.523545028448092,1.8719506155391097,4.8914117622230835,1.5630675210439493
2.542264534603483,1.8416924189679775,4.907042437433523,1.6133697242368068
2.560681458793163,1.8144016152676812,4.923176134675891,1.666279410284442
2.5788254749458397,1.790083424281975,4.939838928778735,1.7216755656833187
2.5967263091886594,1.7687495305144887,4.957055684435568,1.7794446065942988
2.6144138044938043,1.7504176290577096,4.974850130501511,1.8394798831872257
2.6319179807843813,1.7351109378543945,4.993244929333383,1.9016811431827898
2.6492690901629254,1.7228576777422246,5.0122617407652115,1.9659539552300695
2.6664976669403475,1.7136905203784536,5.031921280317512,2.0322090912306088
2.683634572144132,1.7076460029887244,5.052243371229818,2.100361865577359
2.7007110321740195,1.7047639079302177,5.073246989885591,2.1703314284945385
2.7177586712533217,1.7050866043085242,5.094950304170537,2.2420400102275075
2.7348095372964067,1.7086583483528848,5.117370704272812,2.3154121127350096
2.7518961207799357,1.715524538956575,5.140524825400162,2.3903736457839564
2.7690513661695015,1.7257309247570598,5.164428561858001,2.4668510049525603
2.786308675417072,1.7393227594002507,5.1890970719075264,2.5447700900318106
2.8037019030110746,1.7563439022471594,5.2145447728078445,2.624055263704785
2.8212653420335463,1.7768358627863263,5.240785325444892,2.7046282522081095
2.8390337006614095,1.8008367884603989,5.267831607966973,2.7864069919700203
2.8570420685460136,1.8283803975471884,5.295695677886673,2.869304429000294
2.8753258725214854,1.8594948611949913,5.324388722176677,2.953227281093758
2.8939208211334355,1.8942016417266991,5.3539209949876145,3.038074776698473
2.9128628375507026,1.9325142979046712,5.384301742754599,3.123737388563213
2.9321879805297493,1.9744372719665282,5.415539116640231,3.210095584951863
2.9519323532494144,2.0199646778394063,5.447640072489749,3.2970186261837906
2.9721320000278086,2.0690791149049303,5.480610258751587,3.3843634393612096
2.992822791176858,2.12175053684656,5.514453893145199,3.471973609142724
3.014040296545324,2.177935210222552,5.549173629236626,3.5596785270090563
3.0358196486475495,2.23757480215369,5.584770414506717,3.647292745259098
3.0581953966690865,2.300595640501345,5.621243341959308,3.734615584517202
3.0812013530741,2.3669081926760405,5.6585894978044795,3.8214310443134862
3.1048704350008602,2.436406810245862,5.696803808247615,3.9075080647722014
3.129234503103319,2.5089697852719866,5.7358788888953365,3.9926011830678614
3.154324200956039,2.584459760269523,5.7758049007260155,4.076451620599528
3.180168798558734,2.66272452643421,5.816569416932011,4.1587888254231595
3.206796043823076,2.7435982339865412,5.858157305186243,4.239332479191942
3.2342320261629416,2.8269030240689537,5.900550629978162,4.317794958766648
3.262501056403631,2.9124510737660034,5.943728579565828,4.393884220177108
3.291625567141291,3.000047025003712,5.9876674217676,4.467307047512543
3.321626037391328,3.089490745175536,6.032340492242725,4.537772582740255
3.3525209448430835,3.1805803435340168,6.077718218070128,4.604996025890758
3.384326748278424,3.2731153441632097,6.123768178329036,4.668702370257271
3.4170579017200557,3.3668998953796536,6.170455202031609,4.728630016123113
3.4507269006738523,3.461745878415546,6.2177415021928395,4.784534090894044
3.485344359458008,3.5574757668038735,6.26558684310178,4.8361892949756555
3.5209191171260463,3.653925083285191,6.313948736051537,4.883392092465153
3.557458367958898,3.7509443040828803,6.362782656976188,4.925962074290272
3.594967810999727,3.8484000712384216,6.412042277719091,4.9637423386947095
3.6334518117121113,3.9461755918941295,6.461679701106038,4.996598759094248
3.6729135676310527,4.044170127864987,6.511645688696981,5.024418040835352
3.7133552689097025,4.142297507951494,6.561889869105334,5.047104504350895
3.7547782439892172,4.240483627293668,6.6123609141488435,5.064575570501376
3.797183080262154,4.3386629306641185,6.663006669853857,5.076755962492589
3.840569709568795,4.436773908152863,6.7137742294787826,5.0835706760591695
3.884937448650324,4.534753660864603,6.764609936239374,5.084936804666418
3.93028498525897,4.632531620344617,6.815459304286039,5.080754339268864
3.976610301462416,4.730022528587902,6.866266847678728,5.070896093642417
4.023910526748295,4.8271188066531785,6.916975808615152,5.055196938481089
4.0721817148148265,4.923682460944512,6.967527777999963,5.033442563282749
4.121418539424272,5.019536699764662,7.01786220363279,5.005358028293934
4.171613906421919,5.11445746204333,7.067915783915729,4.970596423713728
4.2227584810423515,5.208165098871489,7.1176217481528665,4.928728024375663
4.274840132031066,5.300316500405405,7.166909028396623,4.879230419227644
4.327843297035121,5.390498029281856,7.2157013325889,4.821480208928232
4.381748277327939,5.47821970937958,7.263916134678182,4.754747002327876
4.436530474421735,5.562911226150846,7.311463604701461,4.678190600297877
4.492159586683243,5.643920419222774,7.35824551070444,4.590862424325309
4.548598790875471,5.7205150819891895,7.404154134947693,4.491712410218361
4.605803941695363,5.791889011834908,7.449071259049877,4.379602715674111
4.663722831813712,5.8571733543150275,7.492867286206618,4.253329641897233
4.722294565356862,5.915454319343936,7.5354005826255905,4.111655085872993
4.7814491085503015,5.9657982692272356,7.57651713348432,3.953348548822527
4.8411070912425735,6.007284929133533,7.616050618972546,3.7772401473522024
4.9011799405339085,6.039048989594632,7.653823020446068,3.582284132998368
4.9615704304298545,6.060329609055045,7.689645861776052,3.367631081141559
5.022173726520405,6.070526268609719,7.7233221725874674,3.1327051869800613
5.0828789892065025,6.06925813173329,7.7546492244572685,2.8772811386111448
5.143571570523835,6.056422663560356,7.78342203584338,2.601553102414707
5.204135797159439,6.032248020440601,7.809437566867527,2.306186879398909
5.264458277363845,5.997332976154999,7.832499435661516,1.9923457980922081
5.324431607125395,5.952668278387294,7.852422893642438,1.6616819041235302
5.383958289909268,5.899634612912765,7.869039712683674,1.3162867882107323
5.442954636038396,5.8399748542384735,7.882202580565781,0.9586008606165914
5.501354384580781,5.775741730204761,7.891788589171947,0.5912854064423988
5.559111801882828,5.709225815041762,7.897701443236371,0.2170672445185901
5.616204060033246,5.642872071811187,7.899872115681557,-0.16143004692550017
5.672632780751358,5.5791952099864215,7.898257815212302,-0.5418526938460151
5.728424732851222,5.520704436190568,7.892839288273842,-0.9222667293626532
5.783631777213127,5.469846769602916,7.883616620980215,-1.3012810759722098
5.838330244909157,5.428975458463866,7.8706038102204925,-1.6781390637468432
5.892619999493796,5.400346951341081,7.853822419583024,-2.0527798888438054
5.946623469007207,5.3861471465864215,7.833294620694586,-2.425876913135043
6.000484940473071,5.388545848144719,7.809035851563236,-2.7988636120893897
6.054370398954518,5.409777734757854,7.781047215442341,-3.17396019212824
6.108468176302097,5.452248581671157,7.749307613521059,-3.5542146073375336
6.162990662118808,5.518666488888332,7.713765467447684,-3.943571142472527
6.218177327007692,5.612198541183878,7.674329756022958,-4.346977638265614
6.27429931241953,5.73665180323235,7.630859979640302,-4.770537140637322
6.331665830451854,5.896669756586083,7.583154608233929,-5.221696211914731
6.390632528017715,6.097911630271101,7.530937646114782,-5.709427375663728
6.451611644320426,6.3471196433566694,7.473843372358145,-6.244275402459602
6.515082840753993,6.651823725745962,7.411400618333548,-6.837920718490563
6.581601078011452,7.019062442949634,7.3430214111486425,-7.50139695888048
6.651791702440949,7.451673025278256,7.2680074415598375,-8.239947479822458
6.726308432693732,7.939156137467371,7.185607966761613,-9.0403409243645
6.805699994068406,8.438672284803566,7.095204557517968,-9.84442793562315
6.890086716916442,8.847214269615819,6.996760278161736,-10.510376944492611
6.9785588596126,8.99798345348265,6.89165650871681,-10.807772657403586
7.068538694147427,8.758634656564348,6.783578782142774,-10.555074380833819
7.1561250407130705,8.189957326441107,6.6780280383344355,-9.84069096664059
7.2380246139774815,7.499792518450815,6.5796211286680295,-8.9570024040478
7.31302253916199,6.844635211117014,6.490051104627551,-8.12327038421294
7.38146889127316,6.2776830331017015,6.408818400785422,-7.414362653736756
7.444245721604177,5.799175787188179,6.334674774248055,-6.831518490605375
7.502237479476059,5.394336737725143,6.2663595893420005,-6.35522710102993
7.5561808468533105,5.047437111065523,6.202807318331701,-5.964734558589962
7.606655217963966,4.745339808149056,6.143159972745802,-5.642931273986005
7.654108616045456,4.477768722007358,6.086730660005942,-5.376710564706295
7.69888630326553,4.236798689092605,6.032963554358878,-5.156254931637314
7.741254290156456,4.01628534233843,5.981401005042505,-4.974240240019627
7.78141714357984,3.8114025598313157,5.931658602642309,-4.825185114635048
7.819531169178153,3.618301094052002,5.883406751495959,-4.704960593510447
7.855714180118673,3.4338667225563326,5.8363571455608545,-4.610426721389077
7.890052847344236,3.2555539432091307,5.790252878346964,-4.539159551395181
7.922608386776328,3.0812763741426927,5.744861282833012,-4.489239026945665
7.953421150517754,2.909340495052295,5.699968892563556,-4.459075909660185
7.982514555468278,2.7384134770428266,5.655378133466954,-4.447262308618376
8.009898690238707,2.567518356291938,5.61090551038077,-4.452435573572215
8.035573873801626,2.3960507788387853,5.566381154645049,-4.473149955108489
8.059534381590014,2.2238110607926775,5.521649655093964,-4.507755120638644
8.08177249219794,2.051043480437153,5.476572103887578,-4.5542857431883395
8.102282927002312,1.8784718356162182,5.431029246455695,-4.610371934413293
8.121067645358474,1.7073170470669166,5.3849255271115615,-4.6731856091704
8.138140815829143,1.539280240219775,5.338193671019858,-4.7394414388855175
8.153533618231341,1.3764751536205784,5.2907992566310025,-4.805470591974899
8.167298369767547,1.2212989122991926,5.242744550711254,-4.867378538759962
8.179511358890538,1.0762413232922337,5.194070765323654,-4.921283583235716
8.190273772123462,0.9436488392716075,5.144857929491297,-4.9636121850594375
8.199710260516177,0.8254760319031386,5.095221807640703,-4.991406249398529
8.207965020835209,0.7230682689871866,5.045307745146718,-5.00258495752936
8.215195703525081,0.6370182003992974,4.995281895571424,-4.996106993412254
8.221565885529074,0.5671237705993668,4.945320825637302,-4.971999965194091
8.227237123235067,0.5124512557238062,4.895600825985361,-4.931255967561794
8.232361635792305,0.47148234315911886,4.846288266309743,-4.875623510197119
8.237076459223896,0.4423084234195189,4.797532031207772,-4.8073451716644096
8.241499543458092,0.4228322268748339,4.749458579491128,-4.728892562500584
8.24572786572684,0.4109449301809283,4.702169653866122,-4.642738471929485
8.24983731502865,0.404660389355504,4.655742269146827,-4.551187902224592
8.253883918922204,0.40220152300758594,4.610230390124581,-4.456272433308876
8.25790593415228,0.4020435183555533,4.5656676657914925,-4.359700348796226
8.261926369335836,0.4029235161343057,4.5220706623035305,-4.26284912120707
8.26595560449718,0.4038275695476702,4.47944217109146,-4.166785922932642
8.269993880192656,0.4039644431471357,4.437774311862134,-4.07230379662919
8.274033524624127,0.4027335732847725,4.397051273895841,-3.9799642285564603
8.278060860356975,0.3996921645651381,4.357251631610277,-3.890139980975756
8.282057782002626,0.394524413267133,4.318350231800519,-3.8030546007495545
8.286003026135297,0.387014378871773,4.280319685793024,-3.7188168779508235
8.289873169924014,0.3770230422391619,4.2431315170135155,-3.637449742116026
8.293643400346406,0.36446949466836065,4.206757019592355,-3.5589137979641845
8.297288095293089,0.34931588478396836,4.171167881612713,-3.4831260675064764
8.30078125414093,0.33155561406272693,4.136336620937648,-3.4099746470417034
8.304096810281557,0.31120424467569135,4.102236874467231,-3.3393299979567526
8.307208852728314,0.2882926155281394,4.068843574487663,-3.2710535318347693
8.310091778883596,0.26286172216418124,4.036133039169315,-3.2050040621841536
8.312720396105238,0.23495898461381431,4.0040829985474735,-3.1410425998961324
8.315069985951377,0.20463559388553496,3.9726725725485124,-3.0790358794086994
8.317116341890232,0.17194468759626255,3.9418822137544254,-3.0188589230285654
8.318835788766195,0.13694015630255219,3.9116936245241396,-2.960396883677023
8.32020519032922,0.09967592432422274,3.8820896556873694,-2.903546351191711
8.321201949572462,0.06020558297908386,3.853054192175452,-2.848216262990693
8.321804005402253,0.018582281280137856,3.8245720295455454,-2.7943285248037126
8.321989828215054,-0.025141199536461864,3.796628744297508,-2.7418184197017066
8.32173841621969,-0.07091224467479817,3.769210560100491,-2.6906348623598983
8.321029293772941,-0.11867812177916726,3.742304211476892,-2.6407405391294994
8.31984251255515,-0.16838564844954962,3.715896806085597,-2.5921119620414004
8.318158656070654,-0.21998083772092042,3.689975686465183,-2.544739455493476
8.315958847693445,-0.2734085419175485,3.664528291910248,-2.4986270874226086
8.313224762274269,-0.3286121105208782,3.6395420210360223,-2.453792551714223
8.30993864116906,-0.3855330738482012,3.6150040955188802,-2.4102670050479467
8.306083310430578,-0.44411086117416343,3.5909014254684006,-2.3680948589959527
8.301642201818836,-0.5042825592473776,3.567220476878441,-2.3273335267239683
8.296599376226363,-0.5659827148210735,3.543947141611201,-2.2880531228861556
8.290939549078152,-0.6291431827324977,3.5210666103823396,-2.2503361150828574
8.284648117250827,-0.6936930191663381,3.498563249231511,-2.214276925420561
8.277711187059163,-0.7595584179840773,3.476420479977305,-2.179981481153387
8.270115602879322,-0.8266626863744723,3.454620665165771,-2.147566713988865
8.261848976015578,-0.8949262545748057,3.4331449980258824,-2.1171600083162487
8.25289971346983,-0.9642667130319541,3.41197339794272,-2.0888985992851885
8.24325704633951,-1.0345988691259453,3.3910844119498678,-2.0629289222613587
8.23291105764825,-1.1058348144783148,3.3704551227272543,-2.039405915661981
8.221852709503468,-1.1778839929252671,3.3500610635706347,-2.018492279489431
8.210073869574215,-1.2506532584623768,3.3298761407757405,-2.000357692009708
8.197567336989591,-1.3240469118725124,3.3098725638556434,-1.9851779869512716
8.184326867870865,-1.3979667043393578,3.290020783986131,-1.9731342933272518
8.170347200827472,-1.4723117961316399,3.2702894410528582,-1.9644121395196568
8.155624082866154,-1.546978658424052,3.2506453196576617,-1.9592005226270905
8.140154296281914,-1.6218609065068557,3.231053314431391,-1.9576909432956842
8.123935687216845,-1.6968490530362628,3.211476404998434,-1.9600764053627446
8.106967196686481,-1.7718301706039552,3.1918756409448066,-1.9665503786884448
8.089248894980441,-1.8466874537723892,3.172210137157922,-1.9773057225854915
8.070782020442717,-1.921299671852928,3.152437079932067,-1.9925335663419903
8.051569023724188,-1.9955405051208603,3.132511744268647,-2.012422142540674
8.03161361867298,-2.069277758893475,3.1123875228432403,-2.0371555682916367
8.010920841084046,-2.142372451976459,3.092015967160324,-2.066912569211443
7.989497116564281,-2.2146777784439857,3.0713468414682095,-2.101865141107782
7.967350338779841,-2.286037944593584,3.0503281900571317,-2.142177144987538
7.944489959333906,-2.356286886241024,3.0289064186072565,-2.188002832330989
7.920927090471495,-2.425246875321151,3.0070263902839467,-2.2394852997090706
7.896674621718284,-2.4927270290570482,2.984631537286856,-2.2967548749129785
7.871747351427714,-2.5585217397573223,2.9616639885377265,-2.3599274409641695
7.84616213403014,-2.6224090485842395,2.938064714128085,-2.429102709818131
7.8199380435442984,-2.684148992359445,2.9137736870299036,-2.504362464388937
7.793096553620704,-2.743481958556064,2.8887300623860144,-2.585768795794859
7.7656617340351435,-2.800127089933034,2.8628723744280657,-2.673362372504658
7.737660463135813,-2.853780786604258,2.8361387507030194,-2.767160789335251
7.709122655269771,-2.904115359431386,2.808467142809667,-2.86715705692158
7.680081501675457,-2.950777894127778,2.779795572240451,-2.9733183061601958
7.65057372273418,-2.9933893899094275,2.750062389178849,-3.085584796918338
7.620639828835086,-3.031544239372422,2.7192065412096658,-3.2038693355728465
7.590324386441361,-3.064810116863761,2.6871678478539374,-3.328057221136128
7.559676285272724,-3.0927283402057943,2.653887275642576,-3.4580068541425177
7.528749001870667,-3.114814764439677,2.619307207101151,-3.593551155286228
7.4976008542262695,-3.1305612554640776,2.583371695548289,-3.7344999511005184
7.466295241671629,-3.1394377753137745,2.5460266960372837,-3.8806434907667904
7.434900863918491,-3.140895088753722,2.507220261129616,-4.031757260459828
7.403491913030954,-3.134368072543291,2.4669026885250176,-4.187608258555606
7.372148232305521,-3.1192795742808093,2.4250266059394616,-4.347962885771883
7.340955436562712,-3.095044727945014,2.381546977081743,-4.51259658828746
7.310004989283263,-3.0610755897838073,2.336421011198868,-4.68130536868397
7.279394233385425,-3.0167859139666735,2.2896079575120285,-4.853919248822926
7.249226374245758,-2.961595846989154,2.2410687650237993,-5.030317729874283
7.2196104157758665,-2.894936290074841,2.1907655877250565,-5.210447246003776
7.190661052875118,-2.8162526699355337,2.138661115265019,-5.3943405456738756
7.162498526175763,-2.725007885319676,2.08471770980828,-5.5821378492478315
7.135248447322566,-2.6206842826054326,2.028896331315802,-5.77410950564052
7.109041604496512,-2.502784693615732,1.9711552362593967,-5.970679669782395
7.084013757560355,-2.3708328991199124,1.9114484395615727,-6.172450183535126
7.060305428569156,-2.2243744538480814,1.8497239377262216,-6.380223252555259
7.038061684030675,-2.062979775120441,1.785921705200669,-6.595020472490803
7.0174318862794705,-1.8862530104565705,1.719971500475761,-6.8180939279972055
6.9985693561749045,-1.6938528798425296,1.6517905611957888,-7.05092188677573
6.981630827376479,-1.4855361203980046,1.5812813423280314,-7.295176074716297
6.966775466172499,-1.2612414165914894,1.5083295815808684,-7.55263811137392
6.954163052006584,-1.0212433167518427,1.4328032004671292,-7.825027143196168
6.943950618839065,-0.7664234058205306,1.3545529290351674,-8.113676250239683
6.9362863847808605,-0.49873067345940786,1.2734161665327706,-8.418960125785457
6.931299078046266,-0.22192990019297631,1.1892265652749159,-8.739336012188131
6.929079779044336,0.05725595811307149,1.1018332051530346,-9.069841926140455
6.929652338625467,0.32758023984609097,1.01113478589163,-9.39998616658212
6.932928141023928,0.5715545721791704,0.9171349242258088,-9.71134862906394
