th1 (rad),w1 (rad/s),th2 (rad),w2 (rad/s)
4.980237344153079,1.8457541205097785,6.091630074324346,-2.766771762532345
4.9986948853581765,1.9915307605695016,6.063962356699022,-2.84328909628236
5.018610192963871,2.1417652406733936,6.035529465736198,-2.9294319701478186
5.040027845370605,2.2971338652069435,6.0062351460347205,-3.026144553906714
5.062999184022674,2.4583621303904004,5.975973700495653,-3.1344094045427595
5.087582805326578,2.62620191561001,5.944629606450226,-3.2552144854862775
5.113844824482678,2.801387976625884,5.912077461595363,-3.3894905552319234
5.1418587042489365,2.98456077549924,5.878182556043043,-3.5380005620614017
5.1717043120039285,3.1761361362773273,5.842802550422429,-3.7011534415441565
5.2034656733667015,3.376094075039998,5.805791016006988,-3.8787032185264083
5.237226614117102,3.583651776204907,5.7670039838217235,-4.069283882119807
5.273063131879151,3.7967865787691872,5.726311145000525,-4.269731697294488
5.311030997666843,4.011601943944885,5.68361382802758,-4.474184729857679
5.351147017106292,4.221616074499978,5.638871980729003,-4.673071467080742
5.393363177851291,4.417239154851897,5.592141266058196,-4.852363072299508
5.4375355693998095,4.585981052415637,5.543617635335201,-4.993853352900235
5.483395379923966,4.714102958771667,5.493679101806198,-5.077474643588407
5.530536409511683,4.790027501559614,5.442904355370314,-5.08609990713845
5.578436684527279,4.808509380725044,5.392043356298929,-5.011436574219693
5.62652177833453,4.773150342898407,5.341928990556732,-4.857618266590328
5.674253281763514,4.695271252891598,5.2933528078908285,-4.639691571103566
5.72120599429243,4.5897988320713115,5.246955892179793,-4.377900933837429
5.767103982613143,4.470902533010059,5.203176882841419,-4.091595054722073
5.811813007943244,4.3494817563083785,5.162260932294198,-3.7956995953421306
5.855307825506328,4.232678307165522,5.124303936340777,-3.500011691989679
5.897634608577984,4.124522503585654,5.08930381942088,-3.2100789035619397
5.93887983361384,4.026872649039559,5.05720303038526,-2.9284931741713396
5.979148560104235,3.9402274543086837,5.027918098643546,-2.656013790169233
6.018550834647322,3.8643025254322043,5.001357960741854,-2.392366626369334
6.057193859901644,3.7983980100845702,4.977434294478161,-2.136756209626111
6.095177840002489,3.7416172951225146,4.9560667323819,-1.8881729097818993
6.132594012953715,3.692989895250371,4.937185003284081,-1.6455683556309577
6.169523911906218,3.651536276707416,4.920729319727771,-1.4079509199290416
6.206039274673292,3.6162989124760165,4.906649810528481,-1.1744345347197145
6.242202263798052,3.58635442486324,4.894905465181283,-0.9442610479057119
6.2780658080466845,3.56081563648085,4.885462854702226,-0.716807986932652
6.3136739644114925,3.5388286726230285,4.8782947748328995,-0.49158850807007015
6.349062251137723,3.5195680738328443,4.873378889752199,-0.2682472905814324
6.384257931876052,3.502231598528792,4.870696416846385,-0.046554374527988746
6.41928024786134,3.4860356513767243,4.870230873101105,0.17360206931679067
6.454140604375107,3.4702118394298003,4.871966893794273,0.3922236157309949
6.488842722769405,3.4540049021778154,4.875889129951583,0.6092099905066193
6.523382771791184,3.4366721060778445,4.881981229856649,0.8243680373374537
6.557749492851962,3.4174840943118734,4.890224910230024,1.0374213347034864
6.591924333795081,3.395727113348912,4.9005991235770585,1.248020552200076
6.62588160492857,3.370706485810204,4.913079329099059,1.4557546041570002
6.659588669786672,3.341751157342212,4.927636875140629,1.660162609099326
6.693006181360094,3.3082191107709624,4.944238501231622,1.8607466066682457
6.726088372467803,3.2695034129162917,4.962845967298304,2.0569849261894197
6.758783406596966,3.225038638229827,4.983415816560198,2.2483460483012196
6.791033792979264,3.174307399308201,5.00589927704321,2.4343027565264403
6.8227768669723465,3.116846707634612,5.030242304608475,2.6143463416422845
6.853945334048692,3.0522538886592216,5.056385768024898,2.788000599278672
6.884467872935285,2.9801917833219482,5.084265774017684,2.954835350544753
6.914269790768504,2.900392982979069,5.113814127523131,3.1144792162287875
6.943273720598294,2.8126628660405526,5.144958919685419,3.266631386546695
6.9714003492587,2.7168812321845213,5.177625233550886,3.4110721498755354
6.998569161580545,2.613002363638317,5.211735955049641,3.5476719749888934
7.024699185216928,2.5010533825778136,5.24721267479953,3.676398981893429
7.049709719042706,2.381130818892114,5.283976664618464,3.7973246865006485
7.073521027231627,2.253395352631031,5.321949911483471,3.910627964005039
7.096054980757938,2.118064748922944,5.361056191123521,4.016597244483494
7.117235628247167,1.9754050576585576,5.401222163568356,4.115631030618502
7.136989678823753,1.8257202025265564,5.442378473874541,4.208236909349091
7.155246880849018,1.6693401301153994,5.484460842968032,4.295029313466055
7.171940282150172,1.5066077255399695,5.5274111361026925,4.37672637172391
7.187006359405571,1.3378647224948588,5.571178399819932,4.4541462625863675
7.20038500663052,1.1634368398441104,5.615719862445795,4.528203552947439
7.212019375028961,0.983618362594468,5.66100189797527,4.599906055135584
7.221855558654906,0.7986563535525851,5.707000958526626,4.6703527696182014
7.229842122190432,0.6087346375529066,5.753704486222808,4.740733493182402
7.235929468565961,0.4139576516225123,5.801111821154632,4.812330657122525
7.240069045082186,0.2143342168133674,5.849235127725858,4.8865239060419405
7.24221238725032,0.00976128541017865,5.898100366786277,4.964797813090005
7.242310000104422,-0.19999220811333376,5.947748344917177,5.048752908137416
7.240310078023288,-0.41530104297308895,5.998235873998551,5.140119788181248
7.236157067593558,-0.6366981172337008,6.049637071880364,5.24077532895116
7.229790086421221,-0.8648857575293852,6.102044825169875,5.352758639372949
7.221141228845927,-1.1007403085878977,6.155572411563605,5.478281884079826
7.210133825760049,-1.3453030485518607,6.210355230404403,5.6197265327966415
7.19668079527453,-1.5997445050063146,6.26655249573237,5.77960739397144
7.180683350224467,-1.8652787514301827,6.324348569672084,5.960472299342392
7.162030562710165,-2.1429863562461198,6.383953292665508,6.164680415860628
7.140600699147704,-2.4334756829816246,6.445600096824114,6.393961579423501
7.116265942317888,-2.7362701754805654,6.5095397126183485,6.648599525573219
7.0889032405630825,-3.0487629456622085,6.576025707874081,6.926014952916365
7.058415611106461,-3.364575591896915,6.645285857403245,7.218513086213091
7.0247698551874915,-3.6713353357361003,6.717470988265376,7.510198063736483
6.988056501830131,-3.948531272176718,6.792572968902741,7.773944856773637
6.948571189108363,-4.167482041323582,6.870312417470477,7.971220370863579
6.9068963686951275,-4.296783449129781,6.950024621179113,8.059414862569447
6.86392853420383,-4.314709516344906,7.030618769804807,8.008750704282768
6.820781439040381,-4.222215874942526,7.110706276847635,7.820034001223708
6.778559280290956,-4.04431812487685,7.188906616859872,7.526443485120522
6.738116099042188,-3.8171187899094163,7.264171051711077,7.175741733818392
6.699944911143094,-3.572631969516414,7.335928469049262,6.809706625689054
6.66421859144793,-3.331960446217037,7.404025535306152,6.455135959072118
6.630898986985759,-3.1061210651644346,7.468576894896874,6.125242245872579
6.599837776334115,-2.899472274443055,7.529829317355599,5.824450216338331
6.570843053589685,-2.712732551928755,7.588073819518982,5.552522056306242
6.5437157280703975,-2.544902271048772,7.643599040082044,5.3071349520362565
6.51826670535991,-2.394313700728738,7.696670389602407,5.0852578322913775
6.494323568352622,-2.2591514309636724,7.747522967925321,4.883811521350803
6.4717320540429855,-2.13768717523439,7.796361083138829,4.699949735179171
6.450355182290641,-2.0283706078934154,7.843360580490621,4.531153716024035
6.430071476211707,-1.9298514795050163,7.888672117650861,4.375241239326592
6.410772961416657,-1.8409711183234023,7.932424530044127,4.230340009914711
6.392363250233423,-1.7607419733486753,7.974727930143274,4.094849284433619
6.374755830499936,-1.6883239948758102,8.01567642298761,3.9674005101368097
6.357872590551178,-1.6230017558089633,8.055350428088978,3.846821433211177
6.341642572993089,-1.56416383946032,8.09381864242109,3.732105140344009
6.326000934598485,-1.5112848998324977,8.13113969382453,3.6223841515678203
6.31088808560016,-1.463910302983262,8.167363535340208,3.5169091304526447
6.296248982570328,-1.4216430638749245,8.202532626644734,3.4150315989754456
6.282032551931579,-1.3841327426595447,8.236682942634488,3.31619003264843
6.268191224504983,-1.3510659785626773,8.269844842960973,3.2198987669277748
6.254680564719356,-1.3221583797502854,8.30204383063025,3.1257392214542943
6.241458980921854,-1.297147535421396,8.333301222844794,3.033353023157602
6.22848750556764,-1.2757869635723822,8.36363475307637,2.9424366741873684
6.215729635931916,-1.257840851049392,8.393059119818243,2.8527374635570144
6.203151227421421,-1.2430794805546148,8.421586494453814,2.7640503626209023
6.190720432615875,-1.231275272076018,8.449226998080023,2.6762156755985322
6.178407679895115,-1.2221993939526938,8.47598915483601,2.5891172393365975
6.166185685955589,-1.215618921649866,8.501880327229376,2.5026809835481156
6.15402949673909,-1.211294540350852,8.526907137064857,2.416873676088026
6.141916551335582,-1.2089788005787505,8.551075873825736,2.3317016895582827
6.1298267633297945,-1.2084149440285337,8.574392890721318,2.2472096377014252
6.117742613889509,-1.2093363193808326,8.596864987098332,2.1634787444539825
6.1056492506957,-1.2114664049186428,8.618499774542872,2.080624826690139
6.093534586646514,-1.214519446307653,8.639306022809773,1.9987957946473414
6.081389392183437,-1.2182017042658417,8.659293980756246,1.9181686022636857
6.069207375140779,-1.222213288767705,8.678475666778883,1.8389456129500747
6.056985242253102,-1.226250535069494,8.696865122908385,1.7613503836838456
6.044722736902407,-1.230008853790547,8.714478626745223,1.6856229100099065
6.032422648364501,-1.2331859644603222,8.731334855845322,1.6120144141953971
6.020090788719898,-1.2354854014331988,8.747454999987276,1.5407817956024705
6.007735934705566,-1.2366201649372832,8.7628628179433,1.4721818933933375
5.995369733056193,-1.2363163800361785,8.777584636877235,1.406465734263024
5.983006569255831,-1.234316823716166,8.791649294219864,1.343872949893335
5.97066340101867,-1.2303841857564985,8.805088023718797,1.2846265490046367
5.958359559161105,-1.2243039423148474,8.817934289208843,1.2289282170917986
5.946116519737957,-1.2158867413183994,8.830223571379761,1.1769542941267823
5.933957652324772,-1.2049702242018596,8.84199311432103,1.1288525486618166
5.921907950082754,-1.191420237238287,8.853281639807648,1.0847398286073346
5.909993747710371,-1.1751314154332362,8.86412903809372,1.0447006276493493
5.898242433556039,-1.1560271505268453,8.874576044370214,1.0087865650300982
5.8866821620507706,-1.1340589801938377,8.884663910020514,0.9770167381723258
5.875341572248832,-1.1092054566270007,8.894434077402238,0.9493788747475267
5.864249517682562,-1.0814705684596226,8.903927866149713,0.9258311849057491
5.853434811997966,-1.0508818001039935,8.91318617799877,0.90630479634379
5.842925993996926,-1.0174879172288602,8.922249225962208,0.8907066447891702
5.832751114824637,-0.9813565668317472,8.9311562924101,0.8789226897934753
5.822937549156319,-0.942571776009135,8.939945519308035,0.8708213294748548
5.8135118313962275,-0.9012314260511222,8.948653732602784,0.8662568967589892
5.804499517135716,-0.8574447688727834,8.957316301570375,0.8650731323603638
5.795925069446988,-0.8113300419627848,8.965967032893978,0.8671065448659658
5.7878117690273605,-0.7630122267784091,8.974638098342638,0.872189584602969
5.780181646759576,-0.712620984487917,8.983359994188667,0.8801535744519172
5.773055436914698,-0.6602887926362653,8.992161529933187,0.8908313565878528
5.766452548988335,-0.6061492970144944,9.001069843499065,0.9040596286956282
5.76039105601819,-0.5503358849374591,9.010110439786022,0.9196809561189048
5.754887697168816,-0.49298047935936656,9.01930724934721,0.9375454574484527
5.749957892375223,-0.43421254777729135,9.028682703921696,0.9575121701613902
5.7456157668974495,-0.37415831562407564,9.03825782562331,0.9794501101261832
5.741874183741209,-0.31294017072824803,9.048052326724571,1.0032390442049308
5.738744782033927,-0.25067624329099436,9.05808471716662,1.0287699989833023
5.736238019601017,-0.18748014455964804,9.068372417156453,1.0559455310382408
5.734363218155421,-0.12346084682367058,9.078931872466836,1.0846797853257604
5.733128609687184,-0.05872268738840676,9.089778670320094,1.1148983684472065
5.7325413828133,0.006634520330276131,9.100927654004566,1.1465380629340092
5.732607728016602,0.07251528461288782,9.112393034633907,1.1795464074642237
5.733332880862731,0.1388281570843278,9.12418849870855,1.2138811662553732
5.7347211624335745,0.2054853918957069,9.136327310371104,1.2495097089119882
5.736776016352532,0.27240255479257425,9.148822407460225,1.2864083198653737
5.739500041900458,0.33949809304685463,9.161686490658878,1.3245614543284898
5.742895022830926,0.40669287586559405,9.174932105202164,1.3639609554810026
5.746961951589582,0.47390971357222905,9.188571714756973,1.4046052454605795
5.751701048725304,0.5410728626120049,9.20261776721158,1.446498500711863
5.757111777351424,0.6081075222809021,9.217082752218698,1.4896498203655075
5.7631928525742335,0.6749393280288666,9.231979250422352,1.5340723946054566
5.769942245854522,0.7414938452497885,9.247319974368407,1.5797826784428057
5.77735718430702,0.8076960666448771,9.263117801152836,1.6267995749510766
5.785434144973468,0.8734699155321379,9.279385796902346,1.675143630826896
5.79416884412879,0.9387377568699202,9.296137233210615,1.724836246114597
5.803556221697489,1.0034199172633058,9.313385595671761,1.7758988990637632
5.813590420870122,1.0674342148247002,9.331144584662399,1.8283523863653965
5.82426476301837,1.1306954994613339,9.349428108526052,1.882216078426207
5.835571718012983,1.1931152039608932,9.368250269310314,1.9375071888847022
5.847502870052592,1.2546009061426862,9.387625341199161,1.9942400572436492
5.860048879114019,1.3150559023387391,9.407567741771597,2.0524254432916877
5.873199438137406,1.3743787925732296,9.428091996204515,2.1120698319180016
5.8869432260631385,1.4324630780292105,9.449212694523695,2.1731747469992757
5.901267856843431,1.4891967717416463,9.470944441993687,2.235736073275104
5.9161598245608475,1.5444620239515663,9.493301802726439,2.2997433855503355
5.931604444800363,1.598134764216643,9.516299236581942,2.3651792852004263
5.9475857924425295,1.6500843632195898,9.539951029433945,2.432018744844183
5.964086636074725,1.700173318268741,9.564271216882387,2.500228463227063
5.981088369257413,1.7482569677648012,9.589273501514658,2.5697662338695415
5.998570938935061,1.7941832414293535,9.614971163853353,2.6405803329204813
6.016512771349355,1.8377924548616886,9.641376967182557,2.712608933951903
6.034890695897972,1.8789171590056177,9.668503056522077,2.785779560166255
6.053679867488028,1.9173820573439069,9.696360852123739,2.860008587670975
6.072853688061467,1.9530040060471117,9.724960938000448,2.935200817094311
6.092383728121938,1.9855921148067792,9.75431294617139,3.011249134823986
6.1122396492700055,2.014947968562437,9.78442543751963,3.088034289455726
6.13238912895563,2.040865992624253,9.815305780414187,3.165424813497453
6.152797788881872,2.063133985584526,9.846960028549162,3.243277124779132
6.173429128737718,2.0815338456333556,9.879392799796953,3.321435846089033
6.194244467194052,2.0958425161267322,9.912607158257844,3.3997343849414743
6.215202892355319,2.105833175133945,9.946604502107258,3.4779958176544397
6.236261224106658,2.1112766908215677,9.981384460283802,3.556034122593888
6.257373991014874,2.111943359515491,10.01694480150974,3.633655806004559
6.278493424610029,2.1076049357553983,10.053281359569786,3.7106619597748094
6.299569473967583,2.0980369533327674,10.090387979167534,3.786850783307522
6.320549843500911,2.0830213230361623,10.128256487000609,3.8620205910406042
6.341380056731272,2.062349176668444,10.166876692911016,3.9359733129240366
6.362003548497957,2.0358239081631555,10.206236426040256,4.008518477438142
6.382361787579589,2.003264341938258,10.246321610814638,4.079477646006565
6.402394430998971,1.9645079369531953,10.287116387274704,4.1486892448089625
6.422039510368503,1.919413913585251,10.328603279722794,4.2160137163668745
6.441233649504356,1.867866171003779,10.370763416886462,4.2813388906192955
6.459912311214393,1.8097758469658751,10.413576805792655,4.344585455624809
6.478010069684052,1.7450833616727646,10.457022660348903,4.4057123938306475
6.4954609033007795,1.6737597841123495,10.50107978428721,4.464722243342619
6.512198501141903,1.5958073643469368,10.545727006720636,4.521666046878064
6.528156574785372,1.5112590890085982,10.590943667189416,4.576647865652303
6.543269165675458,1.4201771395133247,10.636710145845939,4.62982876217424
6.557470937070591,1.3226501619111692,10.68300843346768,4.681430194757652
6.570697438689703,1.2187892915921763,10.729822735415256,4.731736816502488
6.582885331605625,1.1087229121470703,10.777140103580281,4.781098730725361
6.593972560727096,0.9925901617906803,10.824951090887534,4.829933320857647
6.603898462345002,0.8705332288472422,10.873250424096112,4.878726842947275
6.612603794633475,0.7426884958974361,10.922037692525585,4.928036040515018
6.620030679592449,0.6091765967742588,10.971318052930735,4.978490112639182
6.626122445560191,0.4700914389234899,11.021102954057127,5.030793435751801
6.630823359949426,0.32548821400891625,11.071410888414645,5.085729507885609
6.634078242089515,0.1753703715963714,11.122268183493501,5.1441666523200045
6.635831945805479,0.01967546538449713,11.173709850016701,5.207066087749338
6.636028700459324,-0.14174029805940444,11.225780510894195,5.2754930458890215
6.63461129747873,-0.3091190652581757,11.278535441353085,5.3506316939728436
6.631520106826148,-0.48282023599569546,11.332041758292814,5.433804691330641
6.626691904466191,-0.6633416506619466,11.38637980520612,5.526498253974696
6.620058487959572,-0.8513434355750424,11.441644787745867,5.630393566603038
6.611545053603821,-1.047674687823517,11.497948723411897,5.747405155205524
6.601068306725586,-1.25340264516823,11.555422774963953,5.879726183723421
6.588534280273904,-1.46984275087442,11.614220036801187,6.029879097037465
6.57383585276516,-1.698585395176735,11.674518827771562,6.200766665765936
6.556849998813393,-1.941509738151465,11.736526494429222,6.395711445453417
6.537434901431878,-2.2007642589934564,11.800483608883757,6.618457315650424
6.515427258841943,-2.4786725146859068,11.86666818204026,6.87307814105662
6.4906405336950845,-2.777481866352155,11.935398963450828,7.163682862984888
6.462865715031563,-3.0987975273522848,12.007035792080677,7.49370206889383
6.43187773975804,-3.442415461565399,12.081972812769616,7.864361105090733
6.397453585142386,-3.8040869136630557,12.160616423820523,8.271688477481188
6.359412716005755,-4.171635962910678,12.243333308595334,8.701238977650851
6.317696356376648,-4.519333046397841,12.330345698371843,9.120349428390584
6.27250302591267,-4.80282828237725,12.42154919265575,9.47103331282652
6.224474743088897,-4.96243107444924,12.516259525784015,9.674194687505787
6.174850432344405,-4.9456745706274985,12.613001472659073,9.660229978045566
6.12539368663813,-4.743450350312164,12.709603772439529,9.418108255398
6.077959183135008,-4.402550319557108,12.80378485499351,9.01183528346041
6.033933679939437,-3.993879838884948,12.893903207828114,8.536482006579707
5.993994881550588,-3.5737422116729824,12.97926802789391,8.065800411926633
5.958257459433858,-3.1721828629734437,13.059926032013177,7.637406805928327
5.926535630804123,-2.8001338284816155,13.13630010007246,7.263277169006812
5.898534292519307,-2.4587382441001826,13.20893287176253,6.942673888383943
5.873946910078305,-2.145196011640459,13.278359610646369,6.670041459548606
5.8524949499619,-1.8555919562804548,13.345060025241855,6.438712701957691
5.833939030399096,-1.5860703183159974,13.409447152261432,6.242372147982009
5.818078327215936,-1.3332458666883038,13.471870873741253,6.075510669003048
