th1 (rad),w1 (rad/s),th2 (rad),w2 (rad/s),a1 (rad/s^2),a2 (rad/s^2)
4.097847213738731,-2.157563138114772,1.8078695325099559,-0.697732785806722,7.458044570437492,-1.1105343375637717
4.076271582357584,-2.0829826924103974,1.8008922046518887,-0.7088381291823598,7.177895998173873,-1.5868116373542183
4.055441755433479,-2.0112037324286587,1.793803823360065,-0.7247062455559019,6.908624912709482,-2.037764243837581
4.0353297181091925,-1.9421174833015638,1.786556760904506,-0.7450838879942777,6.649183415292405,-2.4646282662048256
4.0159085432761765,-1.8756256491486396,1.7791059220245633,-0.769730170656326,6.3984894079722325,-2.8686664908908037
3.99715228678469,-1.8116407550689173,1.771408620318,-0.798416835565234,6.155445388469747,-3.2511471002950176
3.979035879234001,-1.7500863011842198,1.7634244519623476,-0.8309283065681842,5.918953508380142,-3.6133282563560405
3.9615350162221588,-1.6908967661004184,1.7551151688966657,-0.8670615891317446,5.687927462857137,-3.9564474648565313
3.9446260485611546,-1.634017491471847,1.7464445530053483,-0.9066260637803099,5.461301719956929,-4.281714764355821
3.9282858736464363,-1.5794044742722777,1.7373782923675452,-0.9494432114238681,5.238038536065544,-4.590308908998923
3.9124918289037134,-1.5270240889116222,1.7278838602533064,-0.9953463005138573,5.017133144377707,-4.883375832017519
3.897221588014597,-1.4768527574678452,1.7179303972481679,-1.0441800588340324,4.797617448850643,-5.162028783621774
3.882453060439919,-1.4288765829793388,1.7074885966598274,-1.0958003466702502,4.578562507935392,-5.427349631842615
3.8681642946101253,-1.3830909578999848,1.696530593193125,-1.1500738429886763,4.3590800514200145,-5.680390897424604
3.8543333850311257,-1.3395001573857848,1.685029854763238,-1.2068777519629224,4.138323240093555,-5.92217816443929
3.8409383834572677,-1.2981169249848492,1.6729610772436088,-1.2660995336073153,3.915486851498154,-6.153712567600432
3.827957214207419,-1.2589620564698676,1.6603000819075355,-1.3276366592833195,3.6898070554116367,-6.375973106189999
3.8153675936427205,-1.2220639859157512,1.6470237153147023,-1.3913963903452196,3.460560929418347,-6.589918573952656
3.803146953783563,-1.1874583766215676,1.63310975141125,-1.4572955760847461,3.227065857468148,-6.796488925140245
3.7912723700173476,-1.1551877180468861,1.6185367956504026,-1.5252604653361486,2.9886789521853037,-6.996605919845822
3.7797204928368786,-1.125300928525033,1.6032841909970412,-1.5952265245346067,2.7447966443978054,-7.191172907508706
3.7684674835516283,-1.097852962081055,1.5873319257516951,-1.6671382536096937,2.4948545904867334,-7.381073616541003
3.757488953930818,-1.0729044161761878,1.5706605432155982,-1.7409489897751038,2.2383280593214145,-7.567169820881448
3.746759909769056,-1.0505211355829738,1.5532510533178472,-1.8166206879839182,1.9747329753983331,-7.750297751330701
3.736254698413226,-1.0307738058289904,1.535084846438008,-1.894123665497225,1.7036278129931903,-7.931263111162884
3.725946960354936,-1.0137375276990586,1.5161436097830359,-1.973436296608854,1.424616557285888,-8.11083454219008
3.7158095850779453,-0.9994913621261997,1.4964092468169474,-2.0545446420307547,1.1373529720563613,-8.289735369749017
3.7058146714566833,-0.9881178324056361,1.4758638003966398,-2.1374419957282447,0.8415464390383597,-8.468633433759573
3.695933493132627,-0.9797023680152526,1.4544893804393573,-2.2221283300658405,0.5369696604553619,-8.64812878916867
3.6861364694524745,-0.9743326714106989,1.432268097138699,-2.308609617957527,0.22346854234983718,-8.828739034289152
3.6763931427383674,-0.9720979859872005,1.4091820009591236,-2.3968970083004186,-0.09902539980196472,-9.010882001940683
3.6666721628784953,-0.9730882399852202,1.3852130308761195,-2.4870058283198255,-0.43047975263892696,-9.194855528892372
3.656941280478643,-0.9773930375116094,1.3603429725929213,-2.578954383608749,-0.7707426624607832,-9.380814007954871
3.647167350103527,-0.9851004641362173,1.3345534287568337,-2.6727625236882977,-1.1195206703369989,-9.568741429580847
3.637316345462165,-0.9962956708395874,1.3078258035199508,-2.7684499379841063,-1.476352578940936,-9.758420643072306
3.627353388753769,-1.0110591966289968,1.2801413041401097,-2.8660341444148294,-1.8405790561765858,-9.94939862050405
3.617242796787479,-1.0294649871907626,1.2514809626959615,-2.96552813061987,-2.211307770572928,-10.140947600565687
3.6069481469155718,-1.0515780648964919,1.2218256813897628,-3.066937606625527,-2.5873739954938824,-10.332022138478019
3.596432366266607,-1.0774518048514308,1.1911563053235075,-3.1702578280103073,-2.967296829128931,-10.5212123081995
3.5856578482180925,-1.10712477314272,1.1594537270434044,-3.2754699510923024,-3.349231472909244,-10.706693612677457
3.5745866004866653,-1.1406170878718125,1.1266990275324815,-3.382536887219077,-3.7309184117944136,-10.88617457651886
3.563180429607947,-1.1779262719897565,1.0928736586602907,-3.4913986329842657,-4.109630865007341,-11.056843542263444
3.5514011668880494,-1.21902258063983,1.057959672330448,-3.6019670684069003,-4.4821225416295825,-11.215316882163608
3.539210941081651,-1.263843806056126,1.021940001646379,-3.7141202372285362,-4.844578551372817,-11.357591679942695
3.52657250302109,-1.312289591569854,0.9847987992740938,-3.8276961540279633,-5.192573283211791,-11.479006925283244
3.5134496071053913,-1.364215324401972,0.9465218377338142,-3.942486223280796,-5.521040148865121,-11.574218369279233
3.4998074538613717,-1.419425725890623,0.9070969755010062,-4.058228406973588,-5.824259239026192,-11.637193350697656
3.4856131966024653,-1.477668318280885,0.8665146914312704,-4.1746003404805645,-6.095870060639917,-11.66123301571625
3.4708365134196564,-1.5386270188872841,0.8247686880264647,-4.291212670637727,-6.3289174638048245,-11.639030258451593
3.4554502432307834,-1.6019161935253323,0.7818565613200875,-4.407602973222243,-6.515939417647962,-11.562772185308166
3.43943108129553,-1.667075587701812,0.737780531587865,-4.523230695075324,-6.649105186770259,-11.424295672247904
3.422760325418512,-1.7335666395695146,0.6925482246371119,-4.637473651797803,-6.720411378542444,-11.215303315548287
3.4054246590228168,-1.800770753354939,0.6461734881191338,-4.749626684953286,-6.721940948817334,-10.927644440901314
3.3874169514892674,-1.8679901628431124,0.5986772212696009,-4.858903129362299,-6.64618628729778,-10.553661555379803
3.368737049860836,-1.9344520257160902,0.5500881899759779,-4.964439744916097,-6.486431802328989,-10.086596569553548
3.3493925296036755,-1.9993163437393802,0.5004437925268169,-5.065305710611633,-6.237184073098463,-9.521043405492646
3.3293993661662817,-2.061688184470365,0.4497907354207006,-5.160516144666559,-5.894629065046132,-8.85342472823816
3.3087824843215783,-2.120634475120826,0.398185573974035,-5.24905039194894,-5.4570869675251785,-8.082461423405023
3.28757613957037,-2.175205344796078,0.3456950700545456,-5.3298750061829905,-4.925427204078661,-7.20959546397226
3.265824086122409,-2.2244596168368647,0.29239631999271565,-5.401970960822713,-4.303400712454131,-6.239321658472085
3.2435794899540404,-2.267493623961406,0.2383766103844885,-5.464364177407434,-3.597845412836869,-5.179383198819431
3.2209045537144263,-2.303472078089775,0.18373296861041416,-5.516158009395628,-2.818725315617384,-4.040791334653288
3.1978698329335287,-2.3316593312459486,0.12857138851645789,-5.556565922742161,-1.9789746766925331,-2.837641500797533
3.174553239621069,-2.351449078012874,0.07300572928903627,-5.584942337750136,-1.0941355836780606,-1.5867162405960156
3.1510387488409406,-2.362390433849655,0.017156305911534907,-5.600809500156096,-0.18179862978939904,-0.30688737604334126
3.127414844502444,-2.364208420147549,-0.038851789090026054,-5.60387837391653,0.739121012082537,0.9816470259533052
3.1037727603009686,-2.3568172100267235,-0.09489057282919136,-5.594061903656996,1.649219394207022,2.258234994479847
3.080204588200701,-2.340325016084653,-0.15083119186576133,-5.571479553712198,2.5294841800786396,3.5026823892993657
3.056801338039855,-2.3150301742838666,-0.20654598740288332,-5.536452729819204,3.362146266095251,4.696128999651987
3.0336510362970164,-2.2814087116229143,-0.26191051470107535,-5.489491439822684,4.131432914802727,5.821818685792367
3.010836949180787,-2.240094382474887,-0.3168054290993022,-5.43127325296476,4.8241652668270625,6.865706833781398
2.9884360053560384,-2.1918527298066164,-0.37111816162894984,-5.362616184626947,5.430162310313718,7.816868325810567
2.9665174780579724,-2.137551106703479,-0.4247443234752193,-5.284447501368841,5.942435817951994,8.667692001461596
2.9451419669909376,-2.0781267485239594,-0.4775887984889077,-5.1977705813542245,6.35718276576667,9.41386956656706
2.924360699505698,-2.0145549208662925,-0.5295665043024499,-5.103631885688554,6.673600204421395,10.054205076458096
2.904215150297035,-1.9478189188220785,-0.5806028231593354,-5.003089834923973,6.893560406756158,10.590283565675358
2.884736961108814,-1.878883314754517,-0.6306337215085751,-4.897186999267219,7.021190579555801,11.026043466250957
2.865948127961269,-1.808671408958959,-0.6796055915012473,-4.786926564604709,7.062401879897378,11.367297620702653
2.8478614138716796,-1.7380473901599853,-0.7274748571472944,-4.6732535883976825,7.02440812914095,11.621243203741173
2.8304809399700797,-1.6678033088685758,-0.7742073930312713,-4.55704115636027,6.915267105010081,11.795993342064994
2.813802906881394,-1.598650637818475,-0.819777804594874,-4.43908122293962,6.743468286007772,11.900154295630184
2.7978164005032093,-1.5312159549583972,-0.8641686168242703,-4.320079679983318,6.517581850490644,11.942463113928213
2.7825042409536254,-1.4660401364534907,-0.9073694136241035,-4.200655048844037,6.245975627223519,11.931492694921673
2.7678438395890903,-1.4035803801812556,-0.9493759641125439,-4.0813401218948195,5.936600157370194,11.875424724908381
2.753808035787278,-1.3442143786075538,-0.990189365331492,-3.9625858746457356,5.59683728175283,11.78188627352364
2.7403658920012024,-1.2882460057900256,-1.0298152240779495,-3.8447670119104993,5.233404648574755,11.657842796367001
2.7274834319433023,-1.235911959304278,-1.0682628941970544,-3.7281885839468294,4.852307003114915,11.509538724803386
2.7151243123502597,-1.1873888892731288,-1.1055447800365228,-3.6130931966987956,4.458824745011766,11.342476383989265
2.7032504234575283,-1.1428006418230112,-1.1416757120035108,-3.4996684328589027,4.057530680618091,11.161424348915148
2.6918224170392984,-1.1022253350168303,-1.1766723963320997,-3.3880541893697513,3.6523268508114994,10.970447228102099
2.68080016368913,-1.0657020665087154,-1.2105529382257973,-3.27834971708873,3.2464945289408877,10.772950013246042
2.6701431430240428,-1.0332371212193066,-1.2433364353966847,-3.17062021695627,2.8427517735702446,10.57173136897804
2.6598107718118498,-1.004809603483604,-1.2750426375662474,-3.0649029032664896,2.443314160586238,10.369041435664824
2.649762675777014,-0.9803764618777416,-1.3056916665989122,-2.9612124889098412,2.049955433513556,10.16664080375461
2.6399589111582364,-0.9598769075426061,-1.3353037914880106,-2.859546080872295,1.6640657624669586,9.96585825183103
2.6303601420828104,-0.9432362499179365,-1.3638992522967335,-2.7598874983539847,1.2867060811613527,9.767645610136181
2.620927779583631,-0.930369189106323,-1.3914981272802733,-2.662211042252623,0.9186575854029446,9.572628722132803
2.611624087692568,-0.9211826132522936,-1.4181202377027995,-2.566484755031295,0.5604659430580677,9.381153944118733
2.602412261560045,-0.9155779538217129,-1.4437850852531124,-2.4726732155901074,0.21248010671823872,9.193329967277819
2.5932564820218276,-0.9134531527545305,-1.4685118174090135,-2.3807399159173293,-0.12511414090513776,9.009064989421379
2.584121950494282,-0.9147042941635819,-1.4923192165681867,-2.2906492660231152,-0.4522656208239811,8.828099425671539
2.5749749075526465,-0.9192269503718217,-1.5152257092284178,-2.2023682717664,-0.7690337865845498,8.6500344469183
2.5657826380489284,-0.9269172882376672,-1.537249391946082,-2.115867927297217,-1.0755689132504835,8.474356687804448
2.5565134651665518,-0.937672977370172,-1.558408071219054,-2.0311243604191724,-1.3720959939260637,8.30045948523016
2.5471367353928502,-0.9513939373094326,-1.5787193148232457,-1.948119765566871,-1.6589018958039181,8.127661004292358
2.5376227960197557,-0.9679829562674718,-1.5982005124789145,-1.8668431555239473,-1.9363253469711468,7.955219589259804
2.527942966457081,-0.9873462097371832,-1.616868944034154,-1.7872909596313493,-2.204749353284152,7.7823466487792246
2.518069504359709,-1.0093937032700246,-1.6347418536304674,-1.7094674931435572,-2.464595677333873,7.6082173515814615
2.507975567327009,-1.0340396600433635,-1.651836528561903,-1.6333853196277426,-2.716321045934321,7.431979374834605
2.4976351707265754,-1.0612028705027066,-1.6681703817581803,-1.5590655258793966,-2.960414786693856,7.25275991433311
2.4870231420215485,-1.0908070183696452,-1.6837610370169742,-1.4865379267360654,-3.1973976267806297,7.0696711355505215
2.476115071837852,-1.1227809946374516,-1.698626416284335,-1.4158412153805602,-3.427821417172113,6.881814218314974
2.4648872618914774,-1.1570592088091727,-1.7127848284381406,-1.3470230731974104,-3.6522695730131733,6.688282126204907
2.4533166698033857,-1.1935819045393044,-1.7262550591701147,-1.2801402519353613,-3.871358044932314,6.488161215159285
2.4413808507579926,-1.2322954849886274,-1.7390564616894684,-1.2152586397837684,-4.085736657126222,6.280531784537815
2.429057895908106,-1.2731528515598896,-1.7512090480873062,-1.1524533219383901,-4.296090665603062,6.064467668146351
2.4163263673925073,-1.3161137582159201,-1.76273358130669,-1.0918086452569267,-4.503142404048921,5.839034962724841
2.403165229810348,-1.3611451822564093,-1.7736516677592593,-1.0334182956296782,-4.70765289517509,5.603289997262511
2.389553777987784,-1.4082217112081603,-1.7839858507155562,-0.9773853956570532,-4.91042331187016,5.356276658501217
2.375471560875702,-1.457325944326862,-1.7937597046721268,-0.923822629072041,-5.112296174686303,5.097023206452316
2.3608983014324334,-1.508448906073725,-1.8029979309628472,-0.8728523970075179,-5.314156169704946,4.8245387391500225
2.3458138123716963,-1.5615904677707744,-1.8117264549329224,-0.8246070096160177,-5.516930463131658,4.537809498807817
2.3301979076939885,-1.616759772402091,-1.8199725250290826,-0.7792289146279395,-5.721588375457711,4.235795252808289
2.3140303099699677,-1.673975656156668,-1.827764814175362,-0.7368709620998566,-5.929140258028138,3.917426033475747
2.297290553408401,-1.7332670587369494,-1.8351335237963606,-0.6976967017650991,-6.140635387676405,3.5815995814319765
2.279957882821032,-1.7946734126137134,-1.8421104908140116,-0.6618807059507794,-6.357158660052736,3.2271799096853164
2.262011148694895,-1.8582449992142407,-1.8487292978735195,-0.6296089068539262,-6.57982581882112,2.8529974906189075
2.2434286987027523,-1.924043257402452,-1.8550253869420588,-0.6010789319477372,-6.809776905682851,2.4578516667425805
2.2241882661287278,-1.9921410264592805,-1.8610361762615362,-0.5765004152803114,-7.048167555237816,2.0405159990902644
2.204266855864135,-2.0626227020116588,-1.8668011804143392,-0.5560952552894087,-7.29615768965473,1.5997473944070109
2.1836406288440187,-2.135584278908206,-1.8723621329672333,-0.5400977813453386,-7.5548970925198295,1.134299992524294
2.162284786054937,-2.2111332498334044,-1.8777631107806867,-0.5287547814200957,-7.825507261878172,0.6429449455148946
2.140173453556603,-2.289388322452186,-1.8830506585948876,-0.5223253319649468,-8.109058863934116,0.12449737468166383
2.117279570332081,-2.3704789110915274,-1.888273911914537,-0.5210803582181301,-8.406544038027995,-0.42214805913078185
2.093574781221166,-2.4545443514718075,-1.8934847154967185,-0.5253018388094379,-8.718842750225056,-0.9979714061363062
2.0690293377064477,-2.5417327789740582,-1.8987377338848128,-0.535281552870801,-9.04668237067412,-1.6037698425475193
2.043612009916707,-2.6321996026807994,-1.9040905494135207,-0.5513192512962762,-9.390589676630956,-2.240086569795493
2.017290013889899,-2.726105499447109,-1.9096037419264835,-0.5737201169942312,-9.750834581178434,-2.907124598333579
1.9900289588954279,-2.8236138452588935,-1.9153409430964259,-0.602791362977567,-10.127365084282857,-3.604644046341376
1.961792820442839,-2.924887496101722,-1.9213688567262015,-0.6388378034409807,-10.519733268653905,-4.33184201778618
1.9325439454818218,-3.030084828788261,-1.9277572347606113,-0.6821562236188425,-10.927012650175799,-5.087214823313456
1.9022430971939392,-3.139354955290019,-1.9345787969967998,-0.7330283718519771,-11.347707871229131,-5.868403333098582
1.870849547641039,-3.2528320340023105,-1.9419090807153196,-0.7917124051829629,-11.779658616067248,-6.672023656909127
1.8383212273010159,-3.370628620162983,-1.9498262047671493,-0.8584326417520542,-12.219940733965107,-7.493487165454792
1.8046149410993861,-3.492828027502634,-1.9584105311846698,-0.9333675134066022,-12.664768852548182,-8.326816090900895
1.7696866608243598,-3.619475716028116,-1.9677442063187358,-1.016635674315611,-13.109406183046103,-9.164463503032163
1.7334919036640786,-3.750569777858577,-1.9779105630618918,-1.1082803093459328,-13.548088639481048,-9.99714919471242
1.6959862058854929,-3.8860506642533874,-1.9889933661553512,-1.208251801293057,-13.973971631014843,-10.813725663890688
1.657125699242959,-4.025790380563536,-2.001075884168282,-1.316389057931964,-14.379108696094296,-11.601090573774252
1.6168677954373236,-4.169581467524479,-2.0142397747476015,-1.4323999636697065,-14.754471240326062,-12.344163333167009
1.5751719807620788,-4.317126179927739,-2.0285637743842986,-1.5558415970013766,-15.09001772370951,-13.025943238797517
1.5320007189628013,-4.468026357164835,-2.0441221903543125,-1.6861010293893517,-15.374818480406063,-13.627664469416102
1.487320455391153,-4.621774541968895,-2.060983200648206,-1.8223776740835127,-15.597238847550495,-14.129058786490546
1.441102709971464,-4.7777469304444,-2.079206977389041,-1.9636682619484183,-15.74517855664433,-14.508730054821156
1.39332524066702,-4.935198716010843,-2.098843660008525,-2.1087555624966297,-15.80635982540902,-14.744636067946578
1.3439732535069115,-5.093262314264933,-2.1199312156334913,-2.2562019231760955,-15.768651019837323,-14.814663587618382
1.2930406303642623,-5.250948824463307,-2.142493234865252,-2.4043485590522793,-15.620408135332495,-14.697273410196017
1.2405311421196292,-5.407152905816631,-2.166536720455775,-2.5513212931542393,-15.350813781375479,-14.372185387701975
1.1864596130614629,-5.560661043630386,-2.192049933387317,-2.6950431470312592,-14.950193832958966,-13.821070367611586
1.130853002625159,-5.710162981959976,-2.2190003648576297,-2.8332538507073752,-14.41029603007048,-13.028218237056302
1.0737513728055594,-5.854265942260681,-2.2473329033647036,-2.963536033077938,-13.724522533117538,-11.981159058895477
1.0152087133829526,-5.991511167591856,-2.276968263695483,-3.083347623666893,-12.88811899037859,-10.671226893882837
0.955293601707034,-6.120392357495642,-2.307801739932152,-3.1900598926057215,-11.898334524073395,-9.094071289027596
0.8940896781320776,-6.239375702736376,-2.339702338858209,-3.2810006054959975,-10.75457811872011,-7.250136478445609
0.8316959211047139,-6.346921483923577,-2.372512344913169,-3.3535019702804534,-9.458604840104078,-5.145139314705854
0.7682267062654782,-6.441507532324618,-2.4060473646159735,-3.404953363427512,-8.014767772280017,-2.7905798966177957
0.703811630942232,-6.521655210047418,-2.4400968982502484,-3.43285916239369,-6.430366427517697,-0.2043102529467033
0.6385950788417578,-6.5859588743225945,-2.4744254898741853,-3.4349022649231573,-4.716107995879711,2.5888362940626117
0.5727354900985319,-6.6331199542813915,-2.508774512523417,-3.409013901982531,-2.8866731732496502,5.5563903100890135
0.506404290555718,-6.661986686013888,-2.5428646515432423,-3.353449998881641,-0.9613435733325958,8.657652696140268
0.43978442369557913,-6.671600121747214,-2.576399151532059,-3.2668734719202384,1.0353950754962769,11.84330916836224
0.373068422478107,-6.661246170992251,-2.6090678862512613,-3.148440380236616,3.0734055699408427,15.055458023463885
0.3064559607681845,-6.630512115292842,-2.6405522900536273,-2.997885800001977,5.116778964000618,18.22829728518142
