th1 (rad),w1 (rad/s),th2 (rad),w2 (rad/s),a1 (rad/s^2),a2 (rad/s^2)
3.536325824089805,-1.1195466562755432,3.5181192958670433,0.01021848892769348,3.910509540784471,-0.2836549028266339
3.5251303575270496,-1.0804415608676985,3.51822148075632,0.007381939899427141,3.7219121398006334,-0.10943902076465281
3.5143259419183726,-1.043222439469692,3.5182953001553146,0.006287549691780613,3.5368837141040674,0.06381622156629037
3.5038937175236757,-1.0078536023286513,3.5183581756522324,0.006925711907443516,3.355567826036782,0.23565609393109163
3.493815181500389,-0.9742979240682834,3.5184274327713068,0.009282272846754433,3.178028359513769,0.40576921707656183
3.484072202259706,-0.9425176404731457,3.5185202554997743,0.013339965017520052,3.004261895211213,0.5739668038791675
3.4746470258549746,-0.9124750215210335,3.5186536551499494,0.019079633056311728,2.83420901594129,0.7401636877366485
3.4655222756397643,-0.8841329313616206,3.5188444514805126,0.026481269933678213,2.6677644997956365,0.9043612055376667
3.456680946326148,-0.8574552863636643,3.5191092641798494,0.03552488198905488,2.5047864244474987,1.0666319014236791
3.4481063934625116,-0.8324074221191893,3.5194645129997397,0.046191201003291674,2.345104250794533,1.2271059483960405
3.4397823192413197,-0.8089563796112439,3.5199264250097726,0.05846226048725208,2.188525982542459,1.3859591406849918
3.4316927554452072,-0.7870711197858193,3.520511047614645,0.07232185189410201,2.034844514427133,1.5434022846031985
3.4238220442473493,-0.766722674641548,3.521234266133586,0.087755874740134,1.883843288904677,1.6996718042915637
3.4161548175009337,-0.7478842417525012,3.5221118248809873,0.10475259278304963,1.7353013819632899,1.8550213772937918
3.408675975083409,-0.7305312279328683,3.5231593508088177,0.12330280655598755,1.5889981352407487,2.009714420184522
3.40137066280408,-0.7146412465804608,3.5243923788743774,0.14339995075783277,1.4447174453228335,2.164017254270363
3.3942242503382754,-0.7001940721272325,3.525826378381956,0.16504012330053638,1.302251812935465,2.3181927941297373
3.387222309617003,-0.6871715539978779,3.527476779614961,0.18822205124183375,1.1614062453257061,2.4724946164780923
3.3803505940770244,-0.6755574915446209,3.5293590001273794,0.21294699740661466,1.0220020947429584,2.6271612830244284
3.373595019161578,-0.6653374705971913,3.5314884701014453,0.23921861023685895,0.8838809046223736,2.7824108084765276
3.366941644455606,-0.6564986615509676,3.533880656203814,0.26704271832162424,0.7469083226839454,2.9384351837987532
3.360376657840096,-0.6490295783241281,3.53655108338703,0.2964270701596118,0.6109781263912801,3.095394885588232
3.353886362056855,-0.6429197970602153,3.539515354088626,0.3273810190154941,0.4760163906551979,3.2534133255304107
3.3474571640862525,-0.6381596331536633,3.542789164278781,0.35991515227079823,0.34198580984814964,3.4125712199319973
3.3410755677547157,-0.6347397750551819,3.5463883158014893,0.3940408644701182,0.208890165630747,3.572900888938964
3.3347281700041638,-0.6326508733988744,3.5503287244461905,0.42976987335950784,0.07677890834168477,3.7343805287963767
3.328401661270175,-0.6318830843154575,3.5546264231797857,0.4671136786474716,-0.05424820755397214,3.896928538796977
3.3220828304270205,-0.6324255663909972,3.5592975599662604,0.5060829640354414,-0.1840365243362203,4.060398027504224
3.3157585747631106,-0.6342659316343594,3.564358389606615,0.5466869443104836,-0.3123720428773199,4.2245716700845435
3.309415915446767,-0.6373896520631326,3.5698252590497197,0.588932661011329,-0.4389773071417832,4.389157139183017
3.3030420189261354,-0.6417794251345504,3.575714585659833,0.6328242324031592,-0.5635078115280996,4.5537833839565325
3.29662422467479,-0.6474145032498314,3.5820428279838645,0.6783620662427245,-0.6855491692647159,4.7179980828749
3.2901500796422916,-0.6542699949424786,3.5888264486462917,0.7255420470714735,-0.80461531478753,4.881266641807126
3.283607379692867,-0.6623161480903539,3.5960818691170067,0.7743547134895448,-0.9201480407114477,5.042973144606861
3.2769842182119633,-0.6715176284974683,3.6038254162519023,0.8247844449356134,-1.0315181860772613,5.202423682624541
3.2702690419269884,-0.681832810358241,3.6120732607012584,0.8768086817618589,-1.138028791725976,5.358852485127812
3.263450713823406,-0.6932130982755007,3.620841347518877,0.930397206613137,-1.2389205153074578,5.511431236936942
3.256518582840651,-0.7056023034285753,3.6301453195850084,0.9855115189825063,-1.3333795471854029,5.65928189551542
3.2494625598063656,-0.7189360989004293,3.6400004347748336,1.0421043379376604,-1.4205481850069028,5.801493201654189
3.242273198817361,-0.7331415807504983,3.65042147815421,1.1001192699542024,-1.4995381066359168,5.937140912987358
3.234941783009856,-0.7481369618168574,3.661422670853752,1.159490679084076,-1.5694462292905045,6.065311579483139
3.2274604133916878,-0.7638314241097625,3.673017577644593,1.2201437948789073,-1.6293728619927534,6.185129432116773
3.21982209915059,-0.78012515272969,3.6852190155933817,1.281995089200075,-1.678441658631114,6.295785684218758
3.212020847623293,-0.7969095693160011,3.6980389664853823,1.3449529460422627,-1.7158206749023104,6.396569270467164
3.204051751930133,-0.8140677760650242,3.711488495945805,1.4089186387469343,-1.7407436434548584,6.486897798098539
3.1959110741694827,-0.8314752124995728,3.7255776823332742,1.4737876167279198,-1.752530429893053,6.566347289301476
3.187596322044487,-0.8490005167985033,3.7403155585005536,1.5394510896209346,-1.7506055404618328,6.634679183715134
3.1791063168765024,-0.8665065722031217,3.755710069396763,1.605797881458086,-1.7345135398285263,6.6918630718173295
3.1704412511544713,-0.883851707601407,3.771768048211344,1.6727165121762593,-1.7039303175278941,6.738093760732292
3.1616027340784574,-0.9008910107766859,3.7884952133331065,1.7400974497835822,-1.6586693178076806,6.773801536933595
3.1525938239706903,-0.9174777039547627,3.805896187830942,1.807835465152918,-1.5986821115776084,6.799654872441757
3.1434190469311427,-0.9334645250705388,3.823974542482471,1.8758320138773357,-1.5240530207312297,6.816555292868187
3.1340844016804374,-0.9487050552778511,3.8427328626212445,1.9439975668060177,-1.4349878739261184,6.825624643682185
3.124597351127659,-0.9630549340171123,3.862172838289305,2.0122538132428396,-1.3317973422476488,6.828185503650521
3.114966801787488,-0.9763729074395888,3.8822953764217334,2.080535668279345,-1.2148756351095922,6.8257359487147875
3.105203072713092,-0.9885216637906847,3.9031007331045267,2.148793027766493,-1.0846755977001818,6.819920219523099
3.095317856075185,-0.9993684197676865,3.9245886633821914,2.216992229961724,-0.9416814169823835,6.8124970587311
3.085324171877508,-1.0087852339375103,3.946758585681809,2.285117200549035,-0.7863802019530419,6.805307545097006
3.075236319538133,-1.0166490359570408,3.9696097576872993,2.3531702760000055,-0.6192336573698802,6.800244164299975
3.0650698291785625,-1.0228413725307397,3.9931414604472995,2.4211727176430053,-0.4406509325789917,6.799222642168977
3.054841415453255,-1.0272478818565296,4.01735318762373,2.489164944064695,-0.2509635217124146,6.804157757750015
3.0445689366346897,-1.0297575170736537,4.042244837064377,2.557206521642195,-0.050402846671211594,6.816943990728261
3.0342713614639534,-1.0302615455403659,4.067816902280799,2.625375961549478,0.16091910107799476,6.83944147956944
3.0239687460085496,-1.0286523545295858,4.094070661896294,2.693770376345172,0.3830259238645878,6.873467407573795
3.013682222463254,-1.02482209529094,4.121008365659745,2.76250505042091,0.6160898545583408,6.920792619316619
3.0034340015103442,-1.0186611967453565,4.148633416163954,2.8317129766140763,0.8604418897858817,6.9831430147561
2.9932473895428906,-1.0100567778474976,4.176950545930095,2.901544406761637,1.116579341137589,7.062205077400296
2.9831468217644157,-0.9988909844361217,4.205965989997711,2.97216645753564,1.3851711663321478,7.159634762209704
2.9731579119200546,-0.9850392727728002,4.235687654573067,3.043762805157737,1.6670614270586945,7.277068887430167
2.963307519192327,-0.9683686585022133,4.266125282624644,3.116533494032039,1.9632711535057703,7.416138126824796
2.9536238326073048,-0.9487359469671556,4.297290617564965,3.1906948753002866,2.274998781799904,7.578480666804884
2.9441364731376334,-0.9259859591491565,4.329197566317967,3.2664796819683355,2.603619172733984,7.765755557739998
2.934876613546142,-0.8999497674218166,4.361862363137651,3.3441372375457354,2.9506810187340853,7.979654731139057
2.925877115871924,-0.8704429572344758,4.395303735513108,3.423933784857126,3.317902198070303,8.221912555529114
2.9171726862995793,-0.8372639352537729,4.42954307336168,3.506152910412417,3.7071623340041153,8.494311644866348
2.9088000469470416,-0.8001923119137317,4.464604602465804,3.5910960268610808,4.120491450791864,8.798683394944732
2.9007981238279044,-0.7589873974058131,4.500515562734415,3.679082860810528,4.560053172847918,9.13690138531519
2.893208249853846,-0.7133868656773339,4.53730639134252,3.7704518746636797,5.0281203684598585,9.510865325107448
2.886074381197073,-0.6631056619927354,4.575010910089157,3.865560527914754,5.527040472397729,9.922472617927943
2.8794433245771454,-0.6078352572687581,4.613666515368304,3.9647852540940334,6.05918690777945,10.373573850316962
2.873364972004458,-0.5472433881909636,4.653314367909244,4.068520992597203,6.626892042668492,10.865907548667
2.867892538122548,-0.4809744677642787,4.693999577835217,4.177180068083873,7.2323559428508295,11.401008386369126
2.8630827934449052,-0.40865090833577045,4.735771378516056,4.291190151947564,7.8775238149421725,11.980081656901971
2.8589962843615475,-0.3298756701863487,4.778683280035531,4.410990968516584,8.563923497049032,12.603835289741598
2.855697527659684,-0.24423643521585842,4.822793189720697,4.537029321414,9.292452720456396,13.272259056404293
2.8532551633075256,-0.15131190801129446,4.868163482934837,4.669751911978043,10.063104289546862,13.984339061551246
2.8517420442274126,-0.05068086511582584,4.914861002054617,4.809595302593555,10.87461609098087,14.737694441778489
2.8512352355762545,0.05806529579398287,4.962956955080553,4.956972247011341,11.724032422387806,15.528122907823569
2.8518158885341944,0.17530562001786093,5.012526677550666,5.112253476089577,12.606164276122414,16.34904315854354
2.853568944734373,0.3013672627790851,5.063649212311561,5.275743907675012,13.51294004648441,17.190826448833324
2.856582617362164,0.4364966632439292,5.116406651388311,5.4476521721633455,14.43264623055797,18.04001836847242
2.8609475839946032,0.5808231255495089,5.170883173109944,5.6280523558480695,15.349072144426906,18.87846735789344
2.8667558152500985,0.734313846993778,5.227163696668425,5.8168370294270035,16.240595965454027,19.682401226755452
2.8740989537200363,0.8967198066483183,5.285332066962695,6.013661041694558,17.079284066847055,20.42152952763008
2.8830661517865197,1.0675126473167889,5.345468677379641,6.217876336970859,17.830123365174636,21.058299729923313
2.8937412782596876,1.2458138809685353,5.407647440749349,6.428459334270092,18.450566639933225,21.547497808463653
2.906199417069373,1.4303195473678676,5.47193203409205,6.6439343123547285,18.89063811528858,21.83645299038543
2.9205026125430513,1.6192259285207533,5.538371377215597,6.862298842258583,19.093907685575008,21.8661673583822
2.936694871828259,1.8101650053765035,5.606994365638183,7.0809605158424045,18.999672713824847,21.573717559496426
2.9547965218820242,2.000161732514752,5.6778039707966075,7.296697691437369,18.54665024883089,20.896229686387656
2.974798139207172,2.185628235003061,5.750770947710981,7.505659988301245,17.678336836887986,19.77656491279785
2.9966544215572024,2.3624116033719407,5.825827547593994,7.703425637429223,16.349902720091603,18.17053830767216
3.020278537590922,2.5259106305728567,5.902861803968285,7.885131020505945,14.536050905556177,16.055030535084867
3.04553764389665,2.6712711396284186,5.981713114173345,8.045681325856794,12.238753686522452,13.435817331146687
3.0722503552929346,2.793658676493643,6.0621699274319125,8.180039499168261,9.49332881061931,10.353498807971958
3.100186942057871,2.8885919645998364,6.143970322423595,8.28357448724798,6.371148376173495,6.8857852212435615
3.1290728617038694,2.952303448361571,6.226806067296074,8.352432339460416,2.9775853806322634,3.1447852201827855
3.158595896187485,2.9820793021678935,6.3103303906906785,8.383880191662243,-0.5553398767381882,-0.7311126803768176
3.188416689209164,2.976525903400512,6.3941691926073005,8.376569064858474,-4.080917166394174,-4.589883633360786
3.2181819482431693,2.93571673173657,6.477934883255886,8.330670228524866,-7.452390171740497,-8.280942029372111
3.247539115560535,2.8611928300191654,6.561241585541135,8.247860808231145,-10.537618430528669,-11.669887077971264
3.2761510438607266,2.7558166457138786,6.643720193623446,8.131161937451433,-13.231103701890241,-14.65029084677743
3.3037092103178654,2.6235056086949764,6.725031812997961,7.984659028983658,-15.46148741015735,-17.150762498470748
3.3299442664048153,2.468890734593403,6.804878403287797,7.81315140399895,-17.19381634026784,-19.136751332410878
3.3546331737507495,2.2969525711907246,6.8830099173277866,7.621783890674841,-18.427058681344683,-20.60770545748663
3.3776026994626567,2.1126819843772777,6.959227756234535,7.415706836099975,-19.188181768273957,-21.590960825836962
3.3987295193064293,1.9208001666945382,7.033384824595535,7.199797227841605,-19.524430800672924,-22.133991197370623
3.417937520973375,1.725555858687809,7.1053827968739505,6.9784573158678995,-19.49532872710035,-22.296485544744563
3.435193079560253,1.5306025714168054,7.1751673700326295,6.755492460420454,-19.165521140403257,-22.143311854677055
3.450499105274421,1.3389473600127728,7.242722294636834,6.534059341873683,-18.599104328375052,-21.73895377460209
3.4638885788745486,1.1529563167290222,7.308062888055571,6.316669804127662,-17.85564049378158,-21.143595464711858
3.4754181420418386,0.9743999117912064,7.371229586096848,6.105233849480544,-16.987753683697804,-20.410740894702624
3.485162141159751,0.8045223749542284,7.432281924591654,5.901126440533518,-16.04002596759584,-19.586093921706237
3.493207364909293,0.64412211527827,7.4912931889969885,5.705265501316456,-15.048852427170589,-18.70737077608402
3.499648586062076,0.4936335910065641,7.548345844010153,5.518191793555616,-14.042928348011833,-17.804731892501874
3.5045849219721417,0.3532043075264458,7.603527761945709,5.340144474630597,-13.044096964379817,-16.901572324897824
3.508116965047406,0.22276333788264766,7.6569292066920145,5.171128751381619,-12.068354384739987,-16.015474578336015
3.5103445984262325,0.10207979403524778,7.708640494205831,5.010974005598259,-11.126873353445246,-15.1591892974784
3.511365396366585,-0.009188939499204685,7.7587502342618135,4.859382112623475,-10.22696123422482,-14.34156038118419
3.511273506971593,-0.11145855184145288,7.807344055388048,4.715966508811634,-9.372907758533621,-13.568349561488976
3.5101589214531783,-0.2051876294267891,7.854503720476165,4.580283013196744,-8.566705639257785,-12.842942123778455
3.5081070451589103,-0.2908546858193669,7.900306550608133,4.451853591958959,-7.808644490483424,-12.166932419718284
3.5051984983007167,-0.36894113072420115,7.944825086527723,4.330184267761776,-7.097788284731889,-11.540597598149013
3.5015090869934746,-0.43991901357152,7.9881269292053405,4.214778291780286,-6.4323512013695545,-10.963272773364414
3.4971098968577596,-0.5042425255852155,8.030274712123143,4.105145564046642,-5.809988055328013,-10.433642437673823
3.4920674716019073,-0.5623424061384956,8.07132616776361,4.0008091396699035,-5.228014911146927,-9.94996260721592
3.4864440475405223,-0.6146225552499649,8.111334259160309,3.9013095135977442,-4.6835739121276445,-9.510226860390304
3.4802978219880227,-0.6614582943712414,8.150347354296287,3.8062072449938413,-4.173754379427423,-9.11228766435171
3.4736832390443104,-0.7031958381655156,8.188409426746224,3.715084368350324,-3.6956802120366605,-8.753942536043297
3.4666512806626555,-0.7401526402858821,8.225560270429728,3.627544942989891,-3.2465717347994096,-8.432992844547462
3.4592497542597966,-0.7726183576338762,8.261835719859628,3.5432150145444163,-2.8237884840554375,-8.147281525681054
3.4515235706834577,-0.8008562424744305,8.297267870005072,3.4617421992876056,-2.4248580134807973,-7.894714681651254
3.4435150082587134,-0.8251048226092386,8.331885291997947,3.382795052471093,-2.0474946364110633,-7.673270977646964
3.435263960032621,-0.8455797689733492,8.365713242522657,3.306062342694623,-1.6896110686793837,-7.481001905142528
3.4268081623428874,-0.862475879660143,8.398773865949604,3.231252323643198,-1.349325164945325,-7.31602533244569
3.418183403546286,-0.8759691313095963,8.431086389186035,3.158092070318741,-1.024963318734636,-7.1765142785923075
3.40942371223319,-0.8862187644969427,8.462667309889223,3.086326927532818,-0.7150615923446265,-7.0606824997385305
3.4005615245882206,-0.8933693804203889,8.49353057916455,3.0157201025354325,-0.41836523273268084,-6.966768242036921
3.391627830784017,-0.8975530327477157,8.523687780189904,2.9460524201150635,-0.1338268944850118,-6.893017367471834
3.38265230045654,-0.8988913016925658,8.553148304391055,2.877122246440345,0.13939638223210604,-6.837666976081259
3.3736633874396142,-0.8974973378702448,8.581919526855458,2.808745576679532,0.40194760975806076,-6.798930606405421
3.364688414060912,-0.8934778617726642,8.610006982622254,2.7407562706154778,0.6542760450938064,-6.774986072491237
3.355753635443185,-0.8869351013217261,8.63741454532841,2.6730064098905655,0.8966455872268051,-6.763966966436702
3.3468842844299678,-0.8779686454494581,8.664144609427316,2.6053667402261986,1.1291458845801594,-6.763958796381971
3.338104597975473,-0.8666771866036564,8.690198276829578,2.537727152262379,1.3517066453691216,-6.773000618513558
3.3294378261094364,-0.8531601201499652,8.715575548352202,2.4699971460772434,1.564115559241247,-6.789092839104132
3.3209062249079366,-0.8375189645575527,8.740275519812975,2.4021062176862022,1.7660400788963626,-6.810211596452701
3.312531035262361,-0.8198585637685891,8.764296581989838,2.3340041017216753,1.9570530782503863,-6.834329780215608
3.304332449624675,-0.8002880329860853,8.787636623007055,2.2656608039195194,2.1366621101752727,-6.859444317211549
3.296329569294814,-0.7789214118843326,8.81029323104625,2.197066360747404,2.304341652677015,-6.883608873166536
3.2885403551759707,-0.7558779953575625,8.832263894653725,2.1282302720157387,2.4595673880071356,-6.904970628343517
3.280981575222395,-0.7312823214774912,8.853546197373882,2.0591805657323037,2.6018512427525664,-6.921809332510062
3.2736687520076204,-0.7052638090499656,8.874138003031206,1.9899624724072031,2.730775670063516,-6.9325764879990714
3.2666161139171206,-0.6779560523493304,8.894037627755278,1.9206367075272124,2.8460255171376607,-6.93593230302456
3.2598365533936273,-0.6494957971779538,8.91324399483055,1.8512773844969668,2.9474158220166706,-6.930778043252591
3.2533415954218476,-0.6200216389577871,8.93175676867552,1.7819696040644408,3.0349140383721895,-6.916281609319001
3.2471413790322696,-0.5896724985740651,8.949576464716165,1.7128067879712507,3.1086554902387267,-6.891894575844095
3.241244654046529,-0.5585859436716778,8.966704532595877,1.6438878422128098,3.168951284798947,-6.857359509023335
3.235658794609812,-0.5268964308236883,8.983143411018006,1.5753142471225765,3.216288416589055,-6.8127070754151795
3.2303898303015752,-0.4947335466577978,8.998896553489232,1.5071871763684248,3.2513223255082138,-6.758243187918672
3.225442494834997,-0.4622203234027156,9.013968425252916,1.4396047444892381,3.2748626654885498,-6.694527125351305
3.22082029160097,-0.42947169674783015,9.028364472697808,1.3726594732357251,3.2878534485469073,-6.622342136842738
3.2165255746334913,-0.3965931622623611,9.042091067430166,1.3064360518672977,3.2913490120903375,-6.542660447716064
3.212559643010868,-0.3636796721414577,9.055155427948838,1.241009447390137,3.2864873963926033,-6.456604791569345
3.2089228462894535,-0.3308147981775317,9.06756552242274,1.1764433994744434,3.2744627144931235,-6.365408603158888
3.205614698307678,-0.2980701710326004,9.079329956417483,1.1127893134428546,3.256497966137316,-6.270376841803249
