th1 (rad),w1 (rad/s),th2 (rad),w2 (rad/s),a1 (rad/s^2),a2 (rad/s^2)
3.093457424372614,1.6287892374377422,4.511406605011934,-2.71032500292574,2.657958147532201,6.576028709268152
3.109745316746991,1.6553688189130642,4.484303354982677,-2.6445647158330585,2.496507492328789,6.371765870589056
3.1262990049361217,1.6803338938363521,4.457857707824346,-2.5808470571271678,2.3530245347061856,6.183575461556427
3.143102343874485,1.703864139183414,4.432049237253075,-2.5190113025116037,2.2265940705948606,6.0095318632247166
3.1601409852663194,1.7261300798893626,4.406859124227959,-2.4589159838793564,2.116461019070497,5.847759177017311
3.177402286065213,1.7472946900800677,4.382269964389166,-2.400438392109183,2.022025766233596,5.696419766953179
3.1948752329660137,1.7675149477424037,4.358265580468074,-2.3434741944396515,1.9428388660240696,5.553702888109815
3.2125503824434376,1.7869433364026444,4.334830838523677,-2.2879371655585534,1.878595210888313,5.417814061627106
3.230419815807464,1.8057292885115275,4.311951466868091,-2.2337590249422825,1.829127639743717,5.286965806059314
3.2484771086925797,1.8240205649089647,4.289613876618668,-2.1808893668816896,1.7943998295656922,5.159370323613622
3.2667173143416695,1.8419645632046215,4.267804982949851,-2.129295663645553,1.7744982130596436,5.033234758965754
3.2851369599737157,1.859709545335218,4.246512026313396,-2.0789633160558956,1.7696225732834958,4.906759690740298
3.3037340554270678,1.877405771068053,4.225722393152837,-2.0298957191484925,1.7800748834406905,4.778141575316748
3.3225081131377485,1.89520651990246,4.205423435961352,-1.982114303395325,1.8062458844099554,4.64557993398109
3.341460178336773,1.9132689787465595,4.185602292927399,-1.935658504055514,1.8485988231059582,4.5072901524803175
3.3605928681242387,1.931754966977619,4.166245707886844,-1.8905856025307108,1.907649711754518,4.361522841483019
3.379910417794015,1.9508314640951643,4.147339851861537,-1.8469703741158807,1.9839434131425693,4.206590781236404
3.3994187324349667,1.97067089822659,4.128870148120378,-1.8049044663035168,2.0780248131175925,4.040904535978116
3.4191254414172327,1.9914511463577658,4.110821103457343,-1.7644954209437356,2.190404314988771,3.863017862155234
3.4390399528808104,2.0133551895076534,4.093176149247905,-1.7258652423221832,2.321516891224525,3.671684032100854
3.459173504775887,2.0365703584198984,4.075917496824683,-1.6891484020011747,2.4716739728490897,3.465924124928455
3.479539208360086,2.0612870981483895,4.059026012804671,-1.6544891607518901,2.6410075731528595,3.24510815808798
3.5001520793415697,2.087697173879918,4.042481121197152,-1.6220380791710103,2.829406270850702,3.009049585037098
3.521029051080369,2.115991236588425,4.0262607404054425,-1.5919475833206393,3.03644307827521,2.758113079006277
3.542188963446253,2.1463556673711772,4.0103412645722365,-1.5643664525305765,3.2612958739869615,2.4933345408813845
3.5636525201199647,2.178968626111047,3.9946976000469308,-1.5394331071217626,3.502662089168548,2.2165507612323667
3.5854422063810754,2.213995247002732,3.979303268975713,-1.517267599509439,3.7586708195195992,1.9305339642110022
3.607582158851103,2.251581955197928,3.9641305929806188,-1.4979622598673288,4.02679759666835,1.6391234092309346
3.6300979784030822,2.2918499311646117,3.9491509703819454,-1.4815710257750194,4.303789751098123,1.3473422454323962
3.6530164777147283,2.3348878286755927,3.934335260124195,-1.4680976033206954,4.5856135645627845,1.061483003225129
3.6763653560014844,2.3807439643212205,3.919654284090988,-1.4574827732884441,4.867437951137971,0.7891398915026581
3.7001727956446966,2.4294183438326002,3.9050794563581035,-1.4495913743734175,5.143672584771787,0.5391613713978771
3.7244669790830227,2.480855069680318,3.8905835426143693,-1.4441997606594388,5.408080124883567,0.321493863376977
3.7492755297798257,2.5349358709291536,3.876141545007775,-1.440984822025669,5.653980946866279,0.14688913197095688
3.774624888489117,2.5914756803978163,3.861731696787518,-1.4395159307059593,5.874562775577334,0.02645646836812392
3.8005396452930955,2.6502213081535895,3.8473365374804587,-1.439251366022278,6.063295324872029,-0.028941527754157724
3.8270418583746313,2.71085426140231,3.832944023820236,-1.4395407812998198,6.2144310746830485,-0.009423378789356267
3.8541504009886545,2.7729985721491404,3.8185486160072375,-1.4396350150877133,6.3235494647209185,0.09310737682965939
3.881880386710146,2.8362340667963495,3.8041522658563602,-1.4387039413194167,6.38807780064644,0.2841845301598384
3.9102427273781095,2.900114844802814,3.789765226443166,-1.4358620960178183,6.407705520804049,0.5661481265424578
3.9392438758261377,2.9641919000108543,3.775406605482988,-1.4302006147523938,6.384607470780079,0.9377826412384379
3.9688857948262464,3.028037974718655,3.761104599335464,-1.4208227883400095,6.32341220435557,1.3943187361765759
3.999166174573433,3.0912720967622107,3.746896371452064,-1.4068796009782438,6.230892474785349,1.9278345319440822
4.030078895541055,3.1535810215100644,3.7328275754422813,-1.387601255658803,6.115408233702637,2.528016186265597
4.061614705756155,3.2147351038470906,3.7189515628856933,-1.3623210937961472,5.986182611353725,3.18316501588853
4.093762056794627,3.274596929960628,3.705328351947732,-1.3304894436372618,5.852522899461812,3.8812918255690714
4.126508026094233,3.333122158955246,3.6920234575113593,-1.2916765253815712,5.723102001083078,4.611132369440083
4.159839247683785,3.390353178966077,3.6791066922575437,-1.2455652016871703,5.6053918326067,5.362950396748826
4.193742779473446,3.446407097292144,3.666651040240672,-1.191935697719682,5.505298719758699,6.129052679131514
4.228206850446368,3.501460084489731,3.654731683263475,-1.130645170928367,5.427006081929837,6.9040037730304995
4.263221451291265,3.5557301453090293,3.6434252315541915,-1.0616051331980618,5.372993923604921,7.684579506066654
4.298778752744355,3.6094600845450784,3.632809180222211,-0.9847593381373952,5.344184317497898,8.46952787304382
4.334873353589806,3.6629019277200574,3.622961586840837,-0.9000640594069571,5.340157325468283,9.259213707246387
4.371502372867007,3.7163035009747403,3.6139609462467672,-0.8074719223344933,5.359388553211986,10.055214785012549
4.408665407876755,3.76989738650686,3.605886227023422,-0.7069197744843678,5.39947223577018,10.859919684802335
4.446364381741823,3.823892108864562,3.5988170292785786,-0.5983205776363445,5.457307613112011,11.676158551202377
4.484603302830469,3.878465184995682,3.592833823502215,-0.48155899212432074,5.529238330257944,12.506881302095874
4.523387954680426,3.9337575682982617,3.588018233580972,-0.356490179103362,5.611143387974257,13.35488570647097
4.562725530363409,3.989869002178004,3.584453331789938,-0.2229413220386523,5.698483735536604,14.222590323193977
4.602624220385189,4.04685383953337,3.5822239185695515,-0.08071541880671254,5.78631155788669,15.111843750227965
4.643092758780522,4.104716955112237,3.5814167643814843,0.07040301869556712,5.869250491449903,16.02376090681751
4.6841399283316445,4.163409460026736,3.58212079456844,0.23064062776374222,5.941455165085228,16.958578151564883
4.725774022931912,4.222824011677589,3.5844272008460774,0.400226409279391,5.996558182930773,17.915521156269357
4.768002263048688,4.282789593506896,3.588429464938871,0.5793816208420846,6.027612323202849,18.89268209356914
4.810830158983757,4.343065716738924,3.594223281147292,0.7683084417777759,6.027035529266418,19.88690554763613
4.854260816151146,4.403336072031588,3.60190636556507,0.9671774972541372,5.986566293793432,20.893685451006185
4.898294176871461,4.463201734969522,3.611578140537611,1.176114351764199,5.897237266100284,21.90707818860593
4.942926194221156,4.5221741076305255,3.623339284055253,1.3951851336502583,5.749375260820501,22.91963971313162
4.988147935297461,4.579667860238731,3.637291135391756,1.6243815307815745,5.5326361755759805,23.92239698746366
5.033944613899848,4.63499422199449,3.6535349506995716,1.8636055006562111,5.236083458956398,24.90486617294307
5.080294556119793,4.687355056584054,3.672171005706134,2.112654162385642,4.848318500232727,25.855131531157557
5.127168106685634,4.735838241586381,3.6932975473299905,2.3712054776972176,4.3576704120885825,26.759999770156615
5.174526489101497,4.779414945707267,3.7170096021069625,2.638805475398784,3.7524509170907114,27.60524428339928
5.22232063855857,4.816939454878175,3.7433976568609504,2.914857918232777,3.0212772154158394,28.37595213948826
5.270490033107352,4.847152227032333,3.772546236043278,3.1986174396276597,2.153461638514083,29.056983557021592
5.318961555377675,4.868686843417474,3.8045324104395544,3.4891872751978754,1.139461491489677,29.63354879552125
5.36764842381185,4.880081458332371,3.839424283191533,3.785522763153088,-0.028624219973417034,30.091900889998698
5.416449238395173,4.879795216132637,3.877279510823064,4.0864417720530755,-1.3565323190549943,30.420134603378195
5.465247190556499,4.866229892942087,3.9181439285435946,4.3906431180868575,-2.8473169863389853,30.609072728983886
5.51390948948592,4.837756723078697,3.962050359724463,4.696733845376697,-4.500873806721305,30.653211053049283
5.562287056716707,4.792747985011484,4.00901769817823,5.00326595590719,-6.3135529606509255,30.551683770747715
5.610214536566822,4.729612455404975,4.059050357737302,5.308782793614667,-8.277914514788316,30.309203121367805
5.657510661120872,4.646833310257092,4.112138185673449,5.611874824828345,-10.382681979859058,29.936921939655665
5.703978994223443,4.5430064904585015,4.168256933921732,5.911244044224902,-12.612948931221222,29.453167399177453
5.749409059128029,4.41687700114629,4.227369374363981,6.205775718216676,-14.950686127617967,28.88400017440383
5.793577829139491,4.26737013987011,4.289427131546148,6.494615719960715,-17.37558216528722,28.26356698626938
5.836251530538193,4.093614318217238,4.354373288745755,6.777251389823409,-19.866228884197056,27.634236574910474
5.877187673720365,3.8949520293752675,4.422145802643989,7.053593755572513,-22.401633963365793,27.04653847746257
5.916137194014118,3.6709356897416097,4.492681740199714,7.3240591403471385,-24.96300846628398,26.558956821420708
5.952846550911533,3.42130560507877,4.565922331603185,7.589648708561345,-27.535737066115225,26.237659805393395
5.987059606962321,3.145948234417618,4.641818818688799,7.852025306615279,-30.111390629939024,26.156255231844046
6.018519089306497,2.844834328118228,4.720339071754952,8.11358785893372,-32.689573524356554,26.39562755183719
6.046967432587679,2.5179385928746623,4.801474950344289,8.37754413445209,-35.27928130216976,27.043784218265944
6.072146818516425,2.1651457798529647,4.88525039168881,8.64798197663475,-37.89920947298038,28.195323845805472
6.093798276314955,1.786153685123161,4.971730211455158,8.929935215092804,-40.5759538992016,29.94944112206435
6.111659813166187,1.3803941461311449,5.061029563606087,9.229429626313449,-43.3379750370231,32.40389882699324
6.125463754627499,0.9470143957609138,5.1533238598692215,9.553468614583382,-46.20095655851872,35.63929752743541
6.134933898585108,0.48500483017572665,5.248858546015056,9.909861589857735,-49.1356392878271,39.68166303437267
6.139783946886865,-0.006351562702544333,5.347957161913633,10.306678220201462,-52.00056580508514,44.41924156930396
6.13972043125984,-0.5263572207533957,5.451023944115647,10.750870635894502,-54.40815534766669,49.42926214296058
6.134456859052306,-1.0704387742300627,5.558532650474592,11.245163257324108,-55.47991685271041,53.65062886380079
6.123752471310005,-1.6252379427571668,5.670984283047833,11.781669545962117,-53.47973830643056,54.8783619537161
6.107500091882433,-2.1600353258214726,5.788800978507454,12.330453165499279,-45.54581379261154,49.36422801622918
6.085899738624218,-2.615493463747588,5.912105510162447,12.82409544566157,-28.41201818651668,32.720624394138554
6.059744803986742,-2.899613645612755,6.040346464619063,13.151301689602954,-1.5303154469952478,4.049613446826076
6.030748667530615,-2.9149168000827075,6.171859481515092,13.191797824071216,28.90403821383677,-28.72300884079711
6.001599499529788,-2.62587641794434,6.303777459755804,12.904567735663244,52.50656181282812,-52.38133029078531
5.975340735350344,-2.100810799816059,6.432823137112437,12.380754432755392,64.18113328030118,-60.991561631216385
5.9543326273521835,-1.4589994670130468,6.556630681439991,11.770838816443229,66.61784063634865,-58.74796040048339
5.939742632682053,-0.7928210606495604,6.674339069604423,11.183359212438395,64.52594409984553,-52.04240948560128
5.931814422075558,-0.14756161965110504,6.786172661728807,10.662935117582382,60.9434630120064,-44.76219496281497
5.930338805879047,0.4618730104689589,6.892802012904631,10.215313167954232,57.1964864523404,-38.47389356438299
5.934957535983736,1.033837874992363,6.994955144584173,9.830574232310402,53.706810958488674,-33.58937719793219
5.94529591473366,1.5709059845772497,7.093260886907277,9.49468046033108,50.525401983946814,-30.08173842728952
5.961004974579432,2.076160004416718,7.188207691510588,9.193863076058186,47.57767940037294,-27.79322504104935
5.9817665746236,2.5519367984204475,7.28014632227117,8.915930825647692,44.761806356176706,-26.546111392575856
6.007285942607804,2.9995548619822148,7.369305630527647,8.650469711721934,41.98506848280355,-26.17521066772312
6.037281491227626,3.41940554681025,7.455810327644866,8.388717605044702,39.176062122454105,-26.532628111151567
6.071475546695728,3.8111661680347915,7.539697503695313,8.123391323933186,36.287730973858324,-27.48428524254471
6.109587208376076,4.174043477773375,7.620931416934646,7.848548471507739,33.29690558391883,-28.905334573821246
6.1513276431538095,4.5070125336125635,7.699416901649723,7.559495125769526,30.202341871947787,-30.676843676752146
6.196397768489935,4.809035952332041,7.775011852907419,7.252726689002005,27.021911296454984,-32.684329836263586
6.244488128013256,5.079255065296591,7.847539119797439,6.925883390639369,23.789168559807884,-34.81803110063856
6.295280678666222,5.31714675089467,7.916797953703832,6.577703079632983,20.54944691654257,-36.97452172819539
6.348452146175169,5.522641220060096,7.982574984500162,6.207957862351029,17.35567061372936,-39.059175425347796
6.40367855837577,5.69619792619739,8.044654563123672,5.817366108097551,14.26412769700535,-40.988964134001364
6.460640537637744,5.838839203167443,8.102828224204647,5.4074764667575375,11.330473108918206,-42.69512221868505
6.519028929669418,5.952143934256625,8.156902988872222,4.980525244570687,8.606220244764277,-44.12528868823203
6.578550369011984,6.038206136704268,8.206708241317928,4.539272357688367,6.135932888643394,-45.24484916022799
6.638932430379027,6.099565465590702,8.252100964894812,4.086823866086087,3.955259479757776,-46.03732117332228
6.6999280850349345,6.13911806038828,8.292969203555673,3.6264506543528645,2.089870107868722,-46.50374911960219
6.761319265638817,6.160016761466967,8.329233710099201,3.1614131631568427,0.5552743848069811,-46.66118777108068
6.822919433253487,6.1655695053150374,8.36084784173077,2.694801285446036,-0.6425757489258437,-46.540446096230916
6.884575128306637,6.159143747825779,8.38779585458523,2.229396824483727,-1.5060533038884458,-46.18332647873785
6.946166565784895,6.144083214786895,8.410089822830066,1.7675635596963486,-2.0441881987846506,-45.639621020161336
7.007607397932764,6.123641332799049,8.42776545842703,1.3111673494947351,-2.2707773245388743,-44.96411220514156
7.068843811260755,6.10093355955366,8.440877131921978,0.8615262274433195,-2.202487505358778,-44.21376991050409
7.129853146856291,6.078908684500072,8.449492394196412,0.4193885283382786,-1.8571586382876473,-43.445243518698604
7.190642233701292,6.060337098117196,8.453686279479795,-0.015063906848707453,-1.252512325607305,-42.712618740655515
7.251245604682463,6.047811974861123,8.453535640411308,-0.4421900942552626,-0.405495629113523,-42.06523860964004
7.311723724431074,6.043757018569988,8.449113739468755,-0.862842480351663,0.6674312249273271,-41.545157426643506
7.372161294616774,6.0504313308192605,8.440485314665239,-1.278294054618098,1.948580800373169,-41.18346353035499
7.4326656079249664,6.069917138822992,8.427702374119058,-1.6901286899216479,3.4150948360100553,-40.994203511361604
7.493364779313197,6.104068087183093,8.410801087219841,-2.100070725035264,5.031440712393671,-40.963884503912276
7.554405460185028,6.154382494307029,8.389800379969488,-2.5097095700743868,6.736267478704615,-41.033497197691254
7.6159492851280985,6.221745169094075,8.364703284268744,-2.9200445420512993,8.420768413543678,-41.068972642835014
7.67816673681904,6.3059528532295115,8.335502838848232,-3.3307342684796493,9.895822741772767,-40.816260761483086
7.741226265351335,6.404911080647239,8.302195496163435,-3.73889687609448,10.849003898611182,-39.84273337307078
7.805275376157807,6.513401119633351,8.26480652740249,-4.137324209825188,10.806412793919774,-37.486324427373724
7.87040938735414,6.621465247572549,8.223433285304237,-4.5121874540989255,9.14718670590885,-32.88025950753087
7.936624039829866,6.712937114631638,8.178311410763248,-4.840990049174234,5.265449172181654,-25.187046183622385
8.003753410976183,6.765591606353454,8.129901510271505,-5.092860511010458,-1.0334306103822308,-14.162999797659557
8.071409327039717,6.755257300249632,8.0789729051614,-5.2344905089870535,-9.03290579173392,-0.8655031772855029
8.138961900042213,6.664928242332293,8.026628000071529,-5.243145540759908,-17.03177142041101,12.249640160234108
8.205611182465537,6.494610528128183,7.97419654466393,-5.1206491391575675,-23.143582901672193,22.471542767487534
8.270557287746819,6.2631746991114605,7.922990053272354,-4.895933711482692,-26.396203528365348,28.402434560029526
8.333189034737932,5.999212663827807,7.874030716157527,-4.611909365882396,-27.02591280131925,30.379484521927516
8.39318116137621,5.728953535814615,7.8279116224987035,-4.308114520663121,-25.901856465555912,29.656308536509673
8.450470696734357,5.469934971159056,7.784830477292072,-4.011551435298024,-23.886937485314412,27.488609087659878
8.505170046445947,5.231065596305911,7.744714962939092,-3.7366653444214255,-21.571862115519725,24.748445012678168
8.557480702409006,5.015346975150714,7.707348309494878,-3.489180894294644,-19.28230865498472,21.928932187303868
8.607634172160513,4.822523888600867,7.672456500551932,-3.269891572421605,-17.167530356000594,19.267762652230278
8.65585941104652,4.650848585040861,7.6397575848277155,-3.0772139458993024,-15.278706512758932,16.85821787100937
8.702367896896929,4.498061519913271,7.608985445368723,-2.908631767189209,-13.618712028520687,14.72049986576489
8.747348512096062,4.361874399628064,7.579899127696831,-2.76142676853156,-12.169468925858748,12.841461576231742
8.790967256092342,4.2401797103694765,7.5522848600115156,-2.6330121527692425,-10.905733420728716,11.195017709437312
8.833369053196037,4.131122376162189,7.525954738483823,-2.5210619756748693,-9.80154598785692,9.751989643223228
8.874680276957658,4.03310691628362,7.5007441187270745,-2.423542079242637,-8.832953677292666,8.48450545350954
8.915011346120494,3.944777379510693,7.476508697934648,-2.3386970247075416,-7.9789265383548456,7.367708320298036
8.954459119915601,3.8649881141271445,7.453121727687573,-2.265019941504561,-7.221445996641086,6.380190741460639
8.993109001056872,3.7927736541607335,7.430471528272527,-2.2012180340899548,-6.545247179895689,5.5038643789355275
9.03103673759848,3.7273211823617767,7.408459347931627,-2.1461793903005995,-5.937445113971287,4.723612057077356
9.068309949422098,3.667946731222064,7.386997554028621,-2.098943269729826,-5.387149233438115,4.026885262443009
9.104989416734318,3.6140752388876827,7.366008121331323,-2.058674417105396,-4.885109428643787,3.4033195048163103
9.141130169123194,3.565224144601245,7.345421377160268,-2.024641222057233,-4.423407813660843,2.8443955260999974
9.176782410569206,3.5209900664646363,7.325174964939696,-1.9961972667962329,-3.9951973148601114,2.343153326916207
9.211992311233853,3.481038093316035,7.305212992271733,-1.9727657335270707,-3.5944829031057672,1.8939565158404832
9.246802692167014,3.4450932642849774,7.285485334936463,-1.953826168368666,-3.2159397697704732,1.4923005930254378
9.281253624809864,3.412933866587273,7.265947073252776,-1.9389031624384117,-2.854762986497744,1.134657428554552
