th1 (rad),w1 (rad/s),th2 (rad),w2 (rad/s)
0.08374785642480369,-1.754974567386037,0.14024272770104615,-1.8718001504438488
0.06619811075094331,-1.7539815803008274,0.12152472619660766,-1.888229413005774
0.04865829494793504,-1.7514225681005728,0.10264243206654992,-1.9043658690204581
0.031144069266929312,-1.747331484349405,0.08359877337634534,-1.920147446879361
0.013670754423435263,-1.7417465089111959,0.06439729890755173,-1.9355086764623808
-0.0037467106656766946,-1.7347097797661208,0.045042212142927925,-1.9503811500379544
-0.021093808463337905,-1.7262670890908771,0.02553840064254838,-1.964694021429179
-0.03835647935424667,-1.7164675459678453,0.005891460428256588,-1.9783745381785423
-0.055521154813925125,-1.7053632084421697,-0.013892284953528837,-1.9913486011393047
-0.07257478689834682,-1.6930086879909116,-0.033805770964921884,-2.0035413456937956
-0.08950487377825593,-1.6794607298093993,-0.05384118442185984,-2.0148777386355348
-0.10629948107634993,-1.6647777726595694,-0.07398996180821518,-2.025283184640256
-0.12294725880294563,-1.6490194923642634,-0.09424279365461774,-2.034684136178529
-0.13943745372658828,-1.63224633336805,-0.11458963501640303,-2.0430087006798114
-0.1557599170602688,-1.6145190331139014,-0.13501972202320114,-2.0501872387377196
-0.1719051073914078,-1.5958981442971496,-0.15552159441057833,-2.0561529471465065
-0.1878640888343793,-1.5764435603413247,-0.1760831238820434,-2.0608424205811664
-0.20362852443779256,-1.5562140496794414,-0.19669154808785505,-2.0641961857849602
-0.21919066493458697,-1.5352668046013334,-0.21733350994570466,-2.0661592022194673
-0.23454333298060032,-1.513657010523682,-0.23799510196789933,-2.0666813232780767
-0.24967990308583712,-1.4914374415352425,-0.2586619152006801,-2.0657177123809385
-0.2645942775011895,-1.4686580879475666,-0.2793190923244895,-2.063229208575389
-0.2792808583806652,-1.4453658213262797,-0.2999513844102434,-2.0591826366771806
-0.29373451659392796,-1.42160410207914,-0.3205432107770152,-2.0535510575179368
-0.30795055761471934,-1.3974127341299423,-0.3410787213521946,-2.0463139545217457
-0.3219246849560188,-1.372827670514034,-0.361541860897412,-2.03745735362074
-0.3356529616611591,-1.3478808729016236,-0.38191643443361944,-2.0269738744303796
-0.34913177039017534,-1.322600227106859,-0.40218617317792327,-2.014862711625989
-0.3623577726612439,-1.297009515598986,-0.42233480029418313,-2.001129546570702
-0.37532786781723376,-1.2711284469284108,-0.44234609575989015,-1.9857863904114652
-0.38803915228651786,-1.2449727408518552,-0.4622039596640048,-1.9688513610481724
-0.40048887969503644,-1.2185542668266678,-0.48189247327448653,-1.9503483975510754
-0.4126744223633031,-1.1918812324852308,-0.5013959572499973,-1.9303069167114357
-0.4245932346881554,-1.1649584177350751,-0.5206990264171116,-1.9087614174188812
-0.43624281886550614,-1.1377874492936884,-0.5397866405913004,-1.885751039428644
-0.447620693358443,-1.1103671097879348,-0.5586441509855868,-1.861319083781326
-0.45872436445632236,-1.0826936750477567,-0.5772573418234,-1.8355125026435057
-0.46955130120679994,-1.0547612729149607,-0.5956124668498352,-1.8083813666351627
-0.48009891393594956,-1.0265622567738715,-0.6136962805161867,-1.7799783177951918
-0.4903645365036883,-0.9980875870860113,-0.6314960636941387,-1.7503580162147458
-0.5003454123745484,-0.9693272144621822,-0.6489996438562862,-1.7195765880542664
-0.5100386845191702,-0.940270458212012,-0.6661954097368288,-1.6876910821760598
-0.5194413891012903,-0.9109063748475685,-0.6830723205585894,-1.6547589419982043
-0.528550452849766,-0.8812241116550402,-0.6996199099785714,-1.620837498439416
-0.5373626939663164,-0.8512132411561866,-0.7158282849629656,-1.5859834890120124
-0.5458748263778783,-0.8208640730288599,-0.7316881198530857,-1.5502526072649117
-0.5540834671081669,-0.7901679408147335,-0.7471906459257348,-1.5136990859124697
-0.5619851465163143,-0.7591174614866418,-0.7623276367848595,-1.4763753161363573
-0.5695763211311807,-0.7277067666556782,-0.7770913899462231,-1.4383315047409344
-0.5768533887977375,-0.6959317048517436,-0.7914747049936324,-1.3996153700970795
-0.583812705846255,-0.6637900148974607,-0.8054708586946032,-1.3602718771395903
-0.5904506059952296,-0.6312814709055833,-0.8190735774659991,-1.3203430110984844
-0.5967634207042855,-0.5984079998596709,-0.8322770075769839,-1.2798675891496265
-0.6027475007028822,-0.5651737730859636,-0.8450756834684802,-1.2388811087658402
-0.6083992384337418,-0.5315852731932378,-0.8574644945561386,-1.1974156312333994
-0.6137150911656741,-0.49765133825154184,-0.8694386508684726,-1.155499698565196
-0.6186916045481895,-0.46338318510649706,-0.8809936478541246,-1.1131582818836439
-0.6233254363992544,-0.42879441379089134,-0.892125230672961,-1.0704127592548485
-0.6276133805371633,-0.39390099500785236,-0.9028293582655095,-1.0272809209213962
-0.6315523904872419,-0.3587212426284192,-0.9131021674747234,-0.9837769998946782
-0.6351396029135261,-0.32327577307912564,-0.9229399374736702,-0.9399117259195336
-0.6383723606443173,-0.287587453400087,-0.9323390547328655,-0.8956924009052455
-0.6412482351783182,-0.2516813396381921,-0.941295978741918,-0.8511229940193
-0.6437650485747001,-0.2155846071096702,-0.949807208682111,-0.8062042547564917
-0.6459208946457968,-0.17932647392696255,-0.9578692512296759,-0.7609338424194854
-0.6477141593850665,-0.14293811904097847,-0.9654785896538708,-0.7153064705724322
-0.6491435405754763,-0.10645259590503797,-0.9726316543595951,-0.6693140651522325
-0.6502080665345267,-0.0699047427237975,-0.9793247950111175,-0.6229459350390638
-0.6509071139617646,-0.03333109011109999,-0.9855542543615081,-0.5761889539962782
-0.6512404248628756,0.0032302331538846263,-0.9913161439014709,-0.5290277529879599
-0.6512081225313368,0.03973959571218303,-0.9966064214313506,-0.4814449219693648
-0.6508107265742149,0.0761559601163343,-1.0014208706510441,-0.4334212203208407
-0.6500491669730516,0.1124369799112322,-1.0057550828542525,-0.3849357951599859
-0.6489247971739392,0.148539097104243,-1.0096044408058524,-0.3359664068206142
-0.6474394062028969,0.18441763993804938,-1.0129641048740585,-0.28648966083189886
-0.6455952298035164,0.220026920992547,-1.0158290014823774,-0.23648124576860083
-0.6433949605935909,0.2553203357558061,-1.0181938139400635,-0.18591617637563568
-0.6408417572360329,0.29025046192028864,-1.02005297570382,-0.134769041399751
-0.6379392526168299,0.3247691597808634,-1.0214006661178174,-0.08301425559035575
-0.6346915610190212,0.358827674237289,-1.022230808673721,-0.030626315363332435
-0.6311032842766483,0.3923767390372144,-1.0225370718273543,0.02241994234112612
-0.6271795168862762,0.4253666840376671,-1.022312872403943,0.07614907842996504
-0.6229258500458995,0.4577475464145419,-1.0215513816196433,0.1305847876241287
-0.6183483745817541,0.4894691869115758,-1.020245533743402,0.1857496323150799
-0.6134536827126383,0.5204814123932459,-1.0183880374202512,0.2416647745154191
-0.6082488685887059,0.5507341061501753,-1.015971389675097,0.29834970599706
-0.6027415275272041,0.5801773676008951,-1.0129878926151263,0.35582197657495057
-0.5969397538511951,0.6087616632397354,-1.0094296728493768,0.4140969203310712
-0.5908521372187978,0.6364379908964006,-1.005288703646066,0.47318737937911165
-0.5844877573098338,0.6631580595971787,-1.000556829852275,0.5331034245416237
-0.577856176713862,0.6888744875490123,-0.9952257956068586,0.5938520720455734
-0.570967431838372,0.7135410210035259,-0.9892872748864029,0.6554369950364277
-0.5638320216283367,0.7371127769954703,-0.9827329049360386,0.7178582283631788
-0.5564608938583819,0.7595465131849003,-0.9755543226524068,0.7811118646959725
-0.5488654287265329,0.7808009282594102,-0.9677432040054471,0.8451897396046634
-0.5410574194439388,0.8008369965648618,-0.9592913066094004,0.910079102753224
-0.5330490494782902,0.8196183408208756,-0.9501905155818682,0.975762271857074
-0.5248528660700815,0.8371116469284431,-0.9404328928632975,1.0422162655178895
-0.5164817496007971,0.8532871249747934,-0.9300107302081185,1.1094124105088412
-0.5079488783510492,0.8681190205631608,-0.9189166061030302,1.1773159185556143
-0.49926768814541755,0.8815861805135263,-0.9071434469174741,1.2458854271780482
-0.4904518263402823,0.8936726767571149,-0.8946845926456936,1.3150724987694722
-0.48151509957271116,0.9043684918338778,-0.8815338676579988,1.3848210718574054
-0.47247141465437237,0.9136702687365197,-0.8676856569394248,1.455066858491245
-0.46333471196700715,0.9215821268491785,-0.8531349883545123,1.5257366820442229
-0.45411889069851535,0.9281165443078433,-0.8378776215340701,1.5967477505295564
-0.4448377252554369,0.9332953051473613,-0.8219101440287745,1.6680068619757409
-0.4355047722039633,0.9371505069604421,-0.805230075409017,1.7394095406763865
-0.42613326713435884,0.9397256213228098,-0.7878359800022532,1.8108391064494553
-0.4167360109211307,0.9410765947676755,-0.7697275889377586,1.882165683657592
-0.40732524497345396,0.9412729724514883,-0.7509059321011827,1.9532451629160867
-0.39791251524893906,0.9403990196865832,-0.7313734804720219,2.0239181363981085
-0.38850852505207323,0.9385548081140426,-0.7111342991080408,2.0940088376422343
-0.3791229769709328,0.935857223426048,-0.6901942107316185,2.1633241288798124
-0.3697644047366723,0.9324408403360729,-0.6685609694428203,2.2316525930622753
-0.3604399963333116,0.9284585982633664,-0.6462444435121976,2.298763803648963
-0.35115541035067793,0.9240821985645223,-0.6232568054757079,2.3644078621061926
-0.3419145883650327,0.9195021321080785,-0.5996127268546461,2.4283153097664303
-0.3327195670439519,0.9149272360002956,-0.5753295737569818,2.49019753540177
-0.32357029468394893,0.910583672275068,-0.5504275984029641,2.549747810118792
-0.31446445796119826,0.9067132217597492,-0.5249301203017761,2.606643083894352
-0.3053973257436008,0.9035707958346837,-0.4988636894628326,2.6605466697045137
-0.29636161778525394,0.9014210901428544,-0.47225822276578744,2.7111119181392804
-0.2873474068838254,0.9005343397366335,-0.44514710358439463,2.7579869445737866
-0.278342063486459,0.9011811858174765,-0.41756723413865676,2.8008204106964953
-0.2693302516282842,0.9036267294183596,-0.3895590300316918,2.8392682831551457
-0.2602939843341006,0.908123923824148,-0.36116634720014035,2.8730013982428066
-0.2512127450958591,0.9149065389507604,-0.33243633321771227,2.901713560762107
-0.2420636797063515,0.9241820081246718,-0.3034191976100912,2.925129809120159
-0.2328218596251048,0.9361245294428234,-0.2741678995188896,2.943014401698064
-0.22346061433067657,0.9508688284173534,-0.24473775550190896,2.9551780365905795
-0.21395192604650304,0.9685049860173568,-0.21518597513600315,2.9614838205348812
-0.20426687618632947,0.9890746909192297,-0.18557113693065436,2.961851560253586
-0.19437612927713716,1.012569187495245,-0.1559526213281185,2.956260059341765
-0.18425043740218472,1.0389290696936395,-0.12639002073470085,2.944747255803257
-0.17386114670524833,1.0680459297504967,-0.09694254817666828,2.92740821081667
-0.16318068740774336,1.0997657278369501,-0.06766846606850158,2.904391134794173
-0.15218303012937384,1.133893622946655,-0.03862455472055984,2.875891788491993
-0.1408440938999073,1.1701999120116346,-0.009865636835639912,2.8421467055160368
-0.12914209477979094,1.2084266727957087,0.018555830219520456,2.8034257367936544
-0.11705782805183385,1.2482946986259422,0.046590087587457,2.760024415812023
-0.10457488106557442,1.2895103447008311,0.07419033174557724,2.712256592840839
-0.0916797776185661,1.3317719667925692,0.10131289767398563,2.6604477003857436
-0.07836205795064041,1.3747757114733548,0.12791737467784306,2.6049289069585466
-0.06461430083590686,1.4182205005171575,0.1539666637474285,2.5460323075434905
-0.05043209583073528,1.4618121308990224,0.17942698682286343,2.48408719951354
-0.03581397452174506,1.5052664789803563,0.20426785881799883,2.4194174105620463
-0.0207613097319415,1.5483118494692651,0.2284620329236193,2.3523395844191595
-0.005278191237248847,1.590690545865918,0.2519854287678109,2.283162290962262
0.010628714221410332,1.6321597606970117,0.27481705167743353,2.2121858074328036
0.02695031182838045,1.6724918934778745,0.29693890975176157,2.139702413006615
0.0436752307631592,1.7114744050532582,0.31833593388182774,2.0659970456243313
0.06078997481369178,1.7489093117200485,0.33899590433807103,1.9913481836948477
0.07827906793089226,1.7846124138771065,0.3589093861750195,1.9160288326033597
0.09612519206966333,1.818412343862559,0.3780696745010531,1.8403075142713572
0.11430931550828892,1.8501495075176788,0.39647274964376666,1.764449175541065
0.13281081058346572,1.879674984709913,0.4141172413991773,1.688715946840513
0.15160756043056486,1.9068494459573975,0.43100440086758246,1.6133676959805636
0.17067605489013885,1.931542135476185,0.4471380778273881,1.5386623330578588
0.1899914762449007,1.9536299652166937,0.46252470115796673,1.4648558316390465
0.20952777589706764,1.9729967593898687,0.4771732594743572,1.3922019392598057
0.22925774349096634,1.9895326841211718,0.49109527886695525,1.3209515575012805
0.24915307033217807,2.003133891677648,0.5043047944419681,1.251351779278027
0.26918440924895454,2.013702402661075,0.5168183122347484,1.1836445792396353
0.2893214332755653,2.0211462421800896,0.5286547580271448,1.1180651630125722
0.3095328956973662,2.025379836957078,0.5398354096572705,1.0548399928716408
0.32978669406693695,2.0263246694243247,0.5503838095859869,0.9941845215477851
0.3500499407611802,2.023910172195514,0.5603256548014647,0.9363006821136867
0.3702890424831353,2.0180748322375446,0.5696886616226016,0.8813741996776909
0.39046979080551075,2.0087674593172453,0.5785024036193784,0.8295718089311147
0.4105574653986832,1.9959485588857648,0.5867981217086896,0.7810384789524922
0.43051695098754084,1.9795917367877116,0.5946085064982145,0.7358947612275162
0.45031286835541795,1.9596850534964165,0.6019674541104897,0.6942343865526706
0.46990971889038213,1.9362322404207566,0.6089097979760164,0.6561222393670862
0.4892720412945897,1.9092536914162057,0.6154710203696873,0.6215928324782468
0.5083645782087517,1.8787871497260904,0.6216869486944697,0.5906493901746597
0.5271524497060126,1.8448880242967203,0.6275934425962163,0.5632636233710266
0.5456013299489798,1.807629289106908,0.6332260788299265,0.5393762478424516
0.5636776228400489,1.7671009434138583,0.638619841308351,0.5188982580140455
0.5813486322741874,1.7234090375852564,0.6438088238884915,0.5017129273277475
0.59858272265004,1.6766742960070729,0.6488259531617689,0.48767846558777833
0.6153494656101107,1.6270303929077756,0.6537027378176468,0.4766312276088411
0.6316197695391885,1.5746219565886386,0.6584690500937351,0.46838933919892206
0.6473659891050749,1.5196023908562233,0.6631529434857244,0.4627565883222739
0.6625620130136372,1.4621316085713698,0.6677805093689472,0.4595264223221683
0.6771833290993509,1.4023737711716544,0.6723757735921688,0.45848589616536073
0.6912070668110674,1.340495120584227,0.6769606325538224,0.4594194304705803
0.7046120180169096,1.2766619775063155,0.6815548268585282,0.46211225940544237
0.7173786377919728,1.2110389643096482,0.6861759494525826,0.46635347470318467
0.7294890274350693,1.1437874936100778,0.6908394841996145,0.47193860030373064
0.7409269023711701,1.0750645464621462,0.6955588702026518,0.47867165996432776
0.7516775478357915,1.0050217484948525,0.7003455868022951,0.48636672561657884
0.76172776532074,0.933804738997431,0.7052092540584609,0.49484895589761135
0.7710658127107144,0.8615528174726905,0.710157743617437,0.5039551514218394
0.7796813408854413,0.7883988446078419,0.7151972951316554,0.5135338658253905
0.7875653293315197,0.7144693697828327,0.7203326337899093,0.5234451196970717
0.794710023029348,0.6398849547574232,0.72556708498688,0.5335597688066102
0.8011088725769222,0.5647606625528084,0.7309026826749462,0.5437585793254495
0.8067564792024503,0.4892066812381471,0.7363402684682007,0.5539310618388911
0.8116485460148318,0.41332905383478313,0.7418795790865895,0.5639741136736574
0.8157818365531797,0.33723048740816575,0.7475193202233261,0.5737905161279874
0.8191541414272614,0.26101121625692975,0.753257225384606,0.5832873301875134
0.8217642535898307,0.18476989564746635,0.7590900986864811,0.5923742316990381
0.8236119525463054,0.1086045035890368,0.7650138410034715,0.6009618250766247
0.8246979975821958,0.032613228596396884,0.7710234592542378,0.6089599736147829
0.8250241298681598,-0.04310467877298002,0.7771130589903856,0.6162761844350804
0.82459308308043,-0.11844811352541897,0.7832758208347365,0.6228140869202455
0.8234086019451758,-0.19331340700223243,0.7895039617039389,0.6284720449922222
0.8214754678751535,-0.26759372610640036,0.7957886821538611,0.6331419454402453
0.8187995306140895,-0.34117860740339057,0.8021201016082635,0.6367082062511098
0.8153877445400556,-0.41395365311822224,0.8084871836707747,0.639047049971077
0.8112482080088733,-0.4858004156892086,0.8148776541704854,0.6400260868777419
0.8063902038519812,-0.556596495739416,0.8212779150392628,0.6395042504444871
0.8008242388945871,-0.6262158746269904,0.8276729575437077,0.6373321225268471
0.7945620801483172,-0.694529496740577,0.8340462787689762,0.6333526772637443
0.7876167851809114,-0.761406108162979,0.8403798055416136,0.6274024604360197
0.7800027240992816,-0.8267133472051404,0.8466538301459738,0.6193132048439618
0.7717355906272302,-0.8903190688859907,0.8528469621944135,0.6089138624720737
0.7628323999383703,-0.9520928703359984,0.8589361008191342,0.5960330116463483
0.7533114712350103,-1.0119077683500928,0.8648964309355976,0.5805015734637394
0.7431923935515093,-1.0696419652702882,0.8707014466702351,0.5621557484113571
0.7324959738988065,-1.1251806266377098,0.8763230041543486,0.5408400635932893
0.7212441676324294,-1.1784175852728431,0.8817314047902814,0.5164104057682963
0.709459991779701,-1.2292568831006037,0.8868955088479644,0.4887369076863446
0.6971674229486949,-1.2776140651828896,0.8917828779248279,0.45770655663769344
0.6843912822968661,-1.3234171504517318,0.8963599434912048,0.4232254054337418
0.6711571107923487,-1.366607220150021,0.9005921975455423,0.3852202868392408
0.6574910385908486,-1.407138586765162,0.9044444004139347,0.34363996121256346
0.6434196527231969,-1.4449785313678678,0.9078808000260603,0.2984556612038348
0.6289698674095182,-1.480106623379786,0.9108653566380986,0.2496610335434059
0.6141688011757204,-1.5125136614120946,0.9133619669735327,0.19727151273633156
0.5990436645615994,-1.5422002947043882,0.915334682100896,0.14132319164949764
0.5836216616145555,-1.5691754001531704,0.916747914017391,0.08187127703696578
0.5679299076130239,-1.5934542989946454,0.9175666267877607,0.018988232501664093
0.5519953646230774,-1.6150568997388481,0.9177565091127773,-0.047238283145616705
0.5358447956256889,-1.63400585051009,0.9172841262813212,-0.11670757704950847
0.519504737120588,-1.650324775653976,0.916117050510826,-0.18930808769074958
0.5030014893640482,-1.6640366597697411,0.9142239696339185,-0.2649194739097226
0.4863611227663508,-1.6751624287541145,0.9115747748948213,-0.3434145645755897
0.4696094984788097,-1.6837197634255294,0.9081406292490654,-0.4246611243331664
0.4527723008445544,-1.6897221680123824,0.9038940180057337,-0.5085234084608363
0.4358750791644306,-1.6931783040919506,0.8988087839211253,-0.5948634953898044
0.41894329612351106,-1.6940915909807197,0.8928601489672272,-0.6835423980619633
0.4020023802137039,-1.6924600663274645,0.8860247249866076,-0.7744209646460535
0.3850777795504292,-1.688276495737131,0.8782805153401471,-0.8673605851275193
0.3681950145930579,-1.6815287174835845,0.8696069094888719,-0.9622237231112952
0.3513797274182221,-1.6722002074881293,0.8599846722577589,-1.0588742921461183
0.3346577253433408,-1.6602708504523138,0.8493959293362977,-1.1571778933728731
0.31805501683881765,-1.6457179050555113,0.837824150402569,-1.2570019266964496
0.30159783778826255,-1.6285171542211716,0.8252541311356044,-1.3582155813169416
0.28531266624605084,-1.6086442354402999,0.811671975322435,-1.4606897036028068
0.26922622389164785,-1.5860761508983454,0.7970650782864069,-1.5642965311447758
0.2533654623826644,-1.5607929626183787,0.7814221129749592,-1.668909271528173
0.2377575327564806,-1.5327796839829726,0.7647330202596775,-1.7744014929889702
0.22242973591665086,-1.5020283858145818,0.7469890053297877,-1.8806462817447276
