th1 (rad),w1 (rad/s),th2 (rad),w2 (rad/s),a1 (rad/s^2),a2 (rad/s^2)
3.463340423307837,-1.2581241453288687,0.04137596069218718,1.9788597315975116,6.010894529330912,4.932813718200657
3.450759181854548,-1.1980152000355595,0.0611645580081623,2.028187868779518,5.7072104343369965,4.5812532894462485
3.4387790298541923,-1.1409430956921895,0.08144643669595748,2.0740004016739806,5.36350286393489,4.163208404581565
3.4273695988972706,-1.0873080670528406,0.1021864407126973,2.115632485719796,4.9813145777317205,3.6820855305017317
3.416496518226742,-1.0374949212755233,0.12334276556989526,2.1524533410248132,4.56345827379301,3.1429330637105406
3.4061215690139868,-0.9918603385375933,0.1448672989801434,2.1838826716619186,4.114005779881924,2.552407114244989
3.396202965628611,-0.950720280738774,0.16670612569676257,2.2094067428043687,3.638198250047233,1.9186358275072095
3.386695762821223,-0.9143382982383017,0.18880019312480625,2.228593101079441,3.1422763703258623,1.2509826281447214
3.37755237983884,-0.8829155345350431,0.21108612413560066,2.2411029273608882,2.6332382235191774,0.5597197252513628
3.3687232244934897,-0.8565831522998514,0.23349715340920954,2.246700124613402,2.118540963231246,-0.14436621741853553
3.3601573929704913,-0.835397742667539,0.25596415465534356,2.2452564624392166,1.6057693651026168,-0.8504059704759462
3.351803415543816,-0.8193400490165128,0.2784167192797357,2.236752402734457,1.1022984099657627,-1.5478822558366014
3.343610015053651,-0.8083170649168552,0.3007842433070803,2.221273580176091,0.6149775570083051,-2.2270318885391513
3.3355268444044825,-0.8021672893467722,0.32299697910884123,2.199003261290699,0.1498612207006314,-2.8791850393266785
3.3275051715110147,-0.8006686771397659,0.3449870117217482,2.170211410897432,-0.28799619066124876,-3.4970192966380482
3.319498484739617,-0.8035486390463783,0.36668912583072255,2.1352412179310516,-0.694670319158356,-4.074716548110962
3.3114629983491533,-0.8104953422379618,0.38804153801003305,2.094494052449942,-1.0674200781218572,-4.608021421210393
3.3033580449267737,-0.8211695430191804,0.40898647853453246,2.048413838237838,-1.4046697315159427,-5.094209491016204
3.295146349496582,-0.8352162403343398,0.42947061691691085,1.9974717433276759,-1.70593127827211,-5.531980516638687
3.2867941870932382,-0.8522755531170609,0.44944533435018763,1.942151938161289,-1.9716820467777985,-5.92129605793879
3.2782714315620676,-0.8719923735848389,0.46886685373180054,1.8829389775819012,-2.2032135503450085,-6.263181998364318
3.269551507826219,-0.894024509088289,0.48769624350761953,1.8203071575982581,-2.4024668471995403,-6.559515253744057
3.260611262735336,-0.9180491775602844,0.5058993150836021,1.7547120050608176,-2.571867457773262,-6.812811021446056
3.2514307709597334,-0.943767852138017,0.5234464351342103,1.686583894846357,-2.714169939478157,-7.0260231078612865
3.2419930924383533,-0.9709095515327986,0.5403122740826739,1.616323663767744,-2.8323190583905813,-7.20236585426803
3.2322839969230253,-0.9992327421167044,0.5564755107203514,1.5443000052250637,-2.929331545346657,-7.345162471650237
3.222291669501858,-1.028526057570171,0.571918510772602,1.4708483805085613,-3.008199940452388,-7.4577215035950175
3.2120064089261566,-1.0586080569746947,0.5866269945776876,1.396271165472611,-3.0718181314816513,-7.543240794147621
3.2014203283564098,-1.0893262382895113,0.6005897062324137,1.3208387575311349,-3.122926884795206,-7.604736741106479
3.1905270659735145,-1.1205555071374633,0.6137980938077251,1.24479139012007,-3.164076887751054,-7.644995675949601
3.17932151090214,-1.1521962760149738,0.6262460077089258,1.168341433360574,-3.197606468149219,-7.666543798628302
3.16779954814199,-1.184172340696466,0.6379294220425316,1.091675995374291,-3.225631118243931,-7.671632068544651
3.1559578247350255,-1.2164286518789051,0.6488461819962744,1.0149596746888445,-3.2500421249048905,-7.662232683095052
3.1437935382162365,-1.248929073127954,0.6589957787431628,0.938337347857894,-3.2725119069837127,-7.640044155171904
3.131304247484957,-1.2816541921977913,0.6683791522217418,0.861936906306175,-3.2945040191836825,-7.606502449348361
3.118487705562979,-1.314599232389628,0.6769985212848035,0.7858718818126914,-3.3172861514264804,-7.562796095706918
3.105341713239083,-1.3477720939038929,0.6848572401029305,0.7102439208556223,-3.3419448031629213,-7.509883633534306
3.091863992300044,-1.381191541935522,0.6919596793114867,0.6351450845202792,-3.369400625684527,-7.448512123547771
3.078052076880689,-1.4148855481923674,0.6983111301566896,0.5606599632848015,-3.4004236942355233,-7.379235797719957
3.0639032213987654,-1.4488897851347227,0.7039177297895376,0.4868676053076019,-3.4356481940877113,-7.302434188737276
3.0494143235474183,-1.4832462670755997,0.7087864058426137,0.41384326342022915,-3.475586183267914,-7.218329300088756
3.034581860876662,-1.5180021289082788,0.712924838476816,0.3416599704193416,-3.52064023409714,-7.12700154877479
3.0194018395875792,-1.5532085312492503,0.7163414381810094,0.2703899549315937,-3.571114861848469,-7.028404342756499
3.0038697542750867,-1.588919679867735,0.7190453377303253,0.20010591150402868,-3.6272267275237904,-6.922377251726794
2.9879805574764093,-1.6251919471429728,0.7210463968453656,0.13088213898676074,-3.6891136584888318,-6.808657799260895
2.9717286380049797,-1.662083083727861,0.7223552182352333,0.06279556099415179,-3.7568425703681423,-6.686891952779139
2.955107807167701,-1.6996515094315425,0.7229831738451749,-0.004073358533639604,-3.8304164003370604,-6.556643419991793
2.9381112920733856,-1.737955673434913,0.7229424402598384,-0.06963979273355753,-3.909780179177267,-6.4174018806417585
2.9207317353390363,-1.7770534752266858,0.7222460423325029,-0.13381381153997512,-3.9948263799300197,-6.268590293614316
2.9029612005867693,-1.817001739025986,0.7209079042171032,-0.19649971447611828,-4.085399686832881,-6.109571424290287
2.8847911831965094,-1.8578557358943149,0.718942907072342,-0.25759542871902114,-4.181301331098188,-5.939653737181553
2.866212625837566,-1.8996687492052968,0.7163669527851517,-0.3169919660908367,-4.282293141197322,-5.758096795664663
2.847215938345513,-1.94249168061727,0.7131970331242433,-0.3745729340474833,-4.388101455519528,-5.564116304826798
2.8277910215393405,-1.9863726951724654,0.7094513037837685,-0.4302140970957513,-4.498421045164312,-5.356888925494049
2.807927294587616,-2.0313569056241083,0.705149162812811,-0.48378298635069183,-4.612919194563511,-5.1355569775504675
2.787613725531375,-2.0774860975697433,0.7003113329493041,-0.5351385561261965,-4.731240087798175,-4.8992331385492385
2.7668388645556776,-2.124798498447725,0.6949599473880422,-0.584130887511689,-4.853009648919904,-4.647005229019703
2.7455908795712003,-2.1733285949369243,0.6891186385129253,-0.630600939801886,-4.977840985243223,-4.377941158262954
2.723857593621831,-2.2231070047893566,0.6828126291149065,-0.6743803513845156,-5.105340583301782,-4.091094083128805
2.7016265235739376,-2.2741604106223745,0.6760688256010613,-0.7152912922158037,-5.235115407762232,-3.78550780647796
2.678884919467714,-2.326511564699997,0.6689159126789033,-0.7531463702805833,-5.366781053848269,-3.460222410856219
2.655619803820714,-2.38017937523848,0.6613844489760974,-0.7877485943891455,-5.499971103537956,-3.1142800853715
2.6318180100683293,-2.4351790862738594,0.6535069630322059,-0.8188913952428605,-5.634347834805089,-2.7467310588580145
2.6074662192055906,-2.4915225646219104,0.6453180490797773,-0.8463587058314406,-5.769614431427706,-2.356639499119599
2.5825509935593716,-2.5492187089361873,0.6368544620214629,-0.8699251008226365,-5.905528838494243,-1.9430891753849253
2.5570588064700095,-2.6082739973211297,0.6281552110132366,-0.8893559925764858,-6.041919406050901,-1.5051886081802566
2.530976066496798,-2.6686931913816387,0.6192616510874717,-0.9044078786582883,-6.178702461034462,-1.0420753468527948
2.5042891345829816,-2.7304802159919834,0.6102175723008888,-0.9148286321268163,-6.3159019468444075,-0.5529189193463473
2.476984332423062,-2.7936392354604274,0.6010692859796206,-0.9203578213202798,-6.453671272311014,-0.03692189112188285
2.4490479400684575,-2.8581759481835376,0.5918657077664178,-0.9207270402314987,-6.592317519795691,0.5066816498867026
2.4204661805866223,-2.9240991233814944,0.5826584373641028,-0.9156602237326317,-6.732328178943517,1.078630997717651
2.3912251893528076,-2.9914224051709297,0.5735018351267765,-0.9048739137554551,-6.874400602409054,1.679648082222582
2.361310965301098,-3.0601664111950204,0.564453095989222,-0.8880774329332293,-7.019474428024524,2.3104521889844545
2.330709301189148,-3.1303611554752657,0.5555723216598897,-0.8649729110433847,-7.168767284910542,2.9717814308346733
2.2994056896343955,-3.2020488283243713,0.5469225925494559,-0.835255096735038,-7.32381420671186,3.664422437829012
2.2673852013511517,-3.2752869703914897,0.5385700415821055,-0.7986108723567479,-7.486511322372414,4.389249927151647
2.2346323316472367,-3.350152083615214,0.530583932858538,-0.7547183730852314,-7.6591645933605275,5.147278023467888
2.2011308108110845,-3.4267437295488192,0.5230367491276857,-0.7032455928505525,-7.844544625860245,5.939725424821974
2.1668633735155964,-3.5051891758074216,0.5160042931991802,-0.6438483386023328,-8.045948915784216,6.76809674889804
2.131811481757522,-3.5856486649652637,0.5095658098131568,-0.5761673711133524,-8.26727328842364,7.634282644363823
2.0959549951078698,-3.6683213978495,0.5038041361020232,-0.49982454466971415,-8.513094769627305,8.540681496168583
2.059271781129375,-3.753452345545773,0.4988058906553261,-0.4144177297080283,-8.788768651171912,9.490345752845236
2.021737257673917,-3.8413400320574924,0.4946617133582458,-0.31951427217957595,-9.100543036467203,10.487155972433772
1.9833238573533423,-3.9323454624221643,0.49146657063645005,-0.21464271245523825,-9.455694559656083,11.536025446863293
1.9440004027291207,-4.026902408018725,0.4893201435118977,-0.09928245798660532,-9.862689033043756,12.643137380432554
1.9037313786489334,-4.1255292983491625,0.48832731893203163,0.02714891581772022,-10.331370054247243,13.816214413783111
1.8624760856654416,-4.2288429988916345,0.48859880809020884,0.16531105995555134,-10.873176262340596,15.064815574605028
1.8201876556765253,-4.33757476151504,0.49025191868976437,0.3159592157016016,-11.50138240980493,16.400646217840503
1.776811908061375,-4.45258858561309,0.49341151084678037,0.47996567788000666,-12.231347799170043,17.837847960261016
1.732286022205244,-4.574902063604791,0.49821116762558043,0.6583441574826168,-13.080732489302916,19.39320018836389
1.6865370015691963,-4.705709388497819,0.5047946092004066,0.8522761593662557,-14.069596906693569,21.08609795954981
1.6394799076842181,-4.846405357564755,0.5133173707940692,1.0631371389617539,-15.220215385877427,22.93804638131461
1.5910158541085706,-4.99860751142353,0.5239487421836868,1.2925176027749,-16.556274323317957,24.971180165663505
1.5410297789943352,-5.164170254656709,0.5368739182114358,1.542229404431535,-18.100829055576142,27.204891723870407
1.489388076447768,-5.3451785452124705,0.5522962122557512,1.8142783216702392,-19.871852776339388,29.64888145104923
1.4359362909956432,-5.543897072975865,0.5704389954724536,2.1107671361807316,-21.873254680703003,32.28959216232695
1.3804973202658846,-5.762629619782895,0.5915466668342609,2.4336630578040013,-24.077654020429165,35.06475689705771
1.3228710240680557,-6.003406159987186,0.615883297412301,2.7843106267745785,-26.394885364120597,37.817577030967776
1.2628369624681839,-6.267355013628392,0.6437264036800467,3.1624863970842565,-28.617977878476907,40.21903583275917
1.2001634123319,-6.553534792413161,0.6753512676508893,3.564676755411848,-30.340220371752263,41.649818768174796
1.1346280644077684,-6.856936996130684,0.7109980352050077,3.9811749430935963,-30.85548050170242,41.06018234958765
1.0660586944464616,-7.1654918011477085,0.7508097846359436,4.391776766589473,-29.115692203931715,36.91443647933046
0.9944037764349846,-7.456648723187025,0.7947275523018383,4.760921131382777,-23.941805928850247,27.500799795813887
0.9198372892031144,-7.696066782475528,0.8423367636156661,5.035929129340916,-14.748083555418152,11.976766311770577
0.8428766213783591,-7.843547618029709,0.8926960549090752,5.155696792458622,-2.6200463029135377,-8.078795396942452
0.7644411451980619,-7.8697480810588445,0.9442530228336614,5.074908838489198,9.446488142551766,-28.309129622838974
0.6857436643874735,-7.775283199633327,0.9950021112185534,4.791817542260808,18.243456242150696,-43.997457043457295
0.6079908323911402,-7.592848637211819,1.0429202866411615,4.351842971826235,22.497277883003605,-53.15997926900852
0.5320623460190219,-7.367875858381783,1.0864387163594238,3.82024317913615,23.028398340000756,-56.828809529084175
0.4583835874352041,-7.1375918749817755,1.1246411481507852,3.251955083845308,21.39383137499318,-57.14585801889676
0.38700766868538633,-6.923653561231844,1.1571606989892382,2.6804965036563404,18.860814266984608,-55.88777911347165
0.31777113307306787,-6.735045418561998,1.1839656640258016,2.1216187125216237,16.178365082494793,-54.114132143317676
0.2504206788874479,-6.57326176773705,1.205181851151018,1.580477391088447,13.71200683880906,-52.340245003524984
0.18468806121007741,-6.43614169934896,1.2209866250619024,1.0570749410531972,11.611949158144927,-50.768023748147925
0.12032664421658781,-6.320022207767511,1.2315573744724344,0.5493947035717179,9.924081624914356,-49.44183266288021
0.05712642213891271,-6.220781391518367,1.2370513215081516,0.05497637694291585,8.64935489504248,-48.334020135453734
-0.005081391776270955,-6.134287842567942,1.2376010852775807,-0.4283638244116215,7.772184131839068,-47.387693834233026
-0.06642427020195038,-6.056566001249552,1.2333174470334645,-0.9022407627539517,7.2727470063493485,-46.53716485857978
-0.1269899302144459,-5.983838531186058,1.2242950394059249,-1.3676124113397494,7.131462392514126,-45.71756262629781
-0.1868283155263065,-5.912523907260917,1.2106189152925273,-1.8247880376027275,7.329849137244529,-44.86945632724771
-0.24595355459891566,-5.839225415888472,1.1923710349165,-2.2734826008752047,7.849819030162293,-43.94128121802952
-0.3043458087578004,-5.760727225586849,1.1696362089077479,-2.7128954130555,8.672407276743375,-42.89083977552751
-0.36195308101366885,-5.674003152819415,1.1425072547771928,-3.1418038108107753,9.776444988788809,-41.686398449851495
-0.41869311254186303,-5.576238702931526,1.1110892166690851,-3.5586677953092902,11.137442863820866,-40.30754038756061
-0.4744554995711783,-5.464864274293317,1.0755025387159922,-3.9617431991848964,12.726840081921884,-38.74576930588726
-0.5291041423141114,-5.337595873474099,1.0358851067241432,-4.349200892243769,14.51170881538877,-37.004795604300185
-0.5824801010488524,-5.192478785320211,0.9923930978017056,-4.719248848286771,16.454960787395496,-35.10042647637042
-0.6344048889020545,-5.027929177446256,0.9452006093188379,-5.070253113050475,18.51606421144991,-33.06000320481707
-0.684684180676517,-4.842768535331757,0.8944980781883332,-5.400853145098646,20.652242157885528,-30.921367399230505
-0.7331118660298346,-4.636246113752902,0.8404895467373467,-5.710066819090951,22.820086247335052,-28.731385134341956
-0.7794743271673636,-4.408045251279551,0.7833888785464371,-5.997380670434371,24.977484264803167,-26.544107677246824
-0.8235547796801591,-4.15827040863152,0.7234150718420934,-6.262821747206839,27.085730086711727,-24.418694589004563
-0.8651374837664743,-3.8874131077644023,0.660786854370025,-6.507008693096885,29.111663508784837,-22.417264234780713
-0.9040116148441183,-3.596296472676554,0.5957167674390562,-6.731181335444692,31.02968058308704,-20.60286249171598
-0.9399745795708838,-3.285999666845684,0.5284049540846093,-6.937209960361852,32.823464950324215,-19.037746931641102
-0.9728345762393407,-2.957765017342442,0.4590328544809908,-7.127587429678263,34.48731697203953,-17.782165776154677
-1.002412226412765,-2.6128918476220466,0.3877569801842082,-7.305409087439809,36.02699417108718,-16.893764071076095
-1.0285411448889856,-2.252621905911175,0.31470288930981005,-7.47434672815057,37.46000976504379,-16.427668511755737
-1.0510673639480974,-1.878021808260737,0.23995942202830434,-7.638623413268127,38.81534169359814,-16.43717544352704
-1.0698475820307047,-1.4898683913247555,0.16357318789562306,-7.802995167703398,40.13244246132005,-16.974763415351397
-1.0847462659439522,-1.0885439667115548,0.08554323621858907,-7.972742801856912,41.45924181976098,-18.092799591361526
-1.0956317056110678,-0.673951548513945,0.005815808200019951,-8.153670797770527,42.8483747688929,-19.842648673672212
-1.1023712210962073,-0.24546780082501596,-0.07572089977768533,-8.352097284507249,44.34990950231901,-22.269595408634824
-1.1048258991044575,0.1980312941981741,-0.1592418726227578,-8.574793238593596,45.99695053442023,-25.398423856439294
-1.1028455861624757,0.6580007995423764,-0.24498980500869377,-8.828777477157988,47.776896478598765,-29.199560004473614
-1.096265578167052,1.1357697643283642,-0.33327757978027367,-9.120773077202724,49.57489244214246,-33.5169454703729
-1.0849078805237684,1.6315186887497888,-0.42448531055230093,-9.455942531906453,51.06741279062371,-37.92639263712971
-1.0685926936362706,2.142192816656026,-0.5190447358713655,-9.835206458277751,51.54088728961917,-41.48758252325344
-1.0471707654697104,2.6576016895522176,-0.617396800454143,-10.250082283510286,49.648720265833305,-42.40314458667091
-1.0205947485741882,3.1540888922105506,-0.7198976232892459,-10.674113729376995,43.298500726780084,-37.841033551846536
-0.9890538596520827,3.5870738994783515,-0.8266387605830159,-11.05252406489546,30.276193987801175,-24.748927672653537
-0.9531831206572992,3.8898358393563632,-0.9371640012319705,-11.300013341621995,10.367600831408021,-2.7109969991220386
-0.9142847622637356,3.9935118476704434,-1.0501641346481905,-11.327123311613216,-12.194424537816982,22.743932032694207
-0.8743496437870312,3.8715676022922736,-1.1634353677643225,-11.099683991286273,-30.34115314674468,42.35322065847394
-0.8356339677641085,3.568156070824827,-1.2744322076771852,-10.676151784701533,-40.041059969347515,51.029553598054875
-0.7999524070558602,3.1677454711313517,-1.3811937255242006,-10.165856248720985,-42.514872012468516,50.667151773670945
-0.7682749523445467,2.7425967510066664,-1.4828522880114106,-9.659184730984276,-41.00734384747956,45.66690212327514
-0.74084898483448,2.3325233125318707,-1.5794441353212534,-9.202515709751523,-37.99464430755591,39.24561594877168
-0.7175237517091613,1.9525768694563117,-1.6714692924187686,-8.810059550263807,-34.74566865997833,32.95959794923577
-0.6979979830145981,1.6051201828565285,-1.7595698879214068,-8.48046357077145,-31.767996532210063,27.36233261317167
-0.6819467811860329,1.287440217534428,-1.8443745236291214,-8.206840244639734,-29.208528730621417,22.555821359881595
-0.6690723790106886,0.9953549302282138,-1.9264429260755187,-7.981282031040918,-27.06831851377029,18.47488269134842
-0.6591188297084065,0.7246717450905109,-2.006255746385928,-7.796533204127433,-25.298689452174898,15.00873025306476
-0.6518721122575014,0.4716848505687619,-2.0842210784272024,-7.646445901596786,-23.840187274166443,12.046896229079872
-0.6471552637518138,0.23328297782709748,-2.1606855374431704,-7.525976939305987,-22.636818032186685,9.493767217819233
-0.6448224339735428,0.006914797505230608,-2.2359453068362303,-7.431039267127795,-21.640221620611143,7.271090631996852
-0.6447532859984905,-0.20948741870088083,-2.310255699507508,-7.3583283608078265,-20.80999667746626,5.316363089011085
-0.6468481601854993,-0.4175873854755434,-2.383838983115586,-7.305164729917716,-20.112723829254477,3.5801754258079503
-0.6510240340402548,-0.6187146237680882,-2.4568906304147635,-7.269362975659637,-19.520690327674185,2.0236237850631715
-0.6572111802779357,-0.81392152704483,-2.52958426017136,-7.249126737809005,-19.01068145158166,0.6161230482823851
-0.6653503955483839,-1.0040283415606466,-2.60207552754945,-7.242965507326182,-18.562946666662473,-0.6663298691618649
-0.6753906789639904,-1.1896578082272713,-2.674505182622712,-7.2496288060178005,-18.160349377784613,-1.84249100570405
-0.6872872570462631,-1.3712613020051174,-2.74700147068289,-7.268053716074841,-17.78767488813742,-2.9268720738253013
