th1 (rad),w1 (rad/s),th2 (rad),w2 (rad/s),a1 (rad/s^2),a2 (rad/s^2)
1.4603896571299357,-2.165080710200847,3.161826436159798,-0.3304043300945305,-10.06139096012495,-5.760041543391577
1.4387388500279272,-2.2656946198020966,3.1585223928588526,-0.38800474552844627,-10.1161353539113,-6.412205867832652
1.4160819038299062,-2.3668559733412096,3.1546423454035684,-0.45212680420677276,-10.174474892588506,-7.09439114289457
1.392413344096494,-2.4686007222670945,3.1501210773615007,-0.5230707156357185,-10.235372923054745,-7.806260150523716
1.3677273368738232,-2.570954451497642,3.1448903702051436,-0.6011333171409556,-10.297472035359695,-8.547245488507658
1.3420177923588468,-2.673929171851239,3.138879037033734,-0.6866057720260322,-10.35905560632069,-9.316491769132043
1.3152785006403345,-2.777519727914446,3.132012979313474,-0.7797706897173526,-10.418008269710977,-10.112791845115222
1.28750330336119,-2.881699810611556,3.1242152724163,-0.8808986081685048,-10.471776112158514,-10.934517854708254
1.2586863052550745,-2.986417571733141,3.1154062863346152,-0.9902437867155874,-10.517327689878,-11.779548304481748
1.228822129537743,-3.0915908486319212,3.1055038484674595,-1.108039269760405,-10.551117294247799,-12.645192901767409
1.1979062210514237,-3.1971020215743993,3.0944234557698556,-1.2344911987780791,-10.569052252277164,-13.528117397422225
1.1659352008356798,-3.302792544097171,3.0820785437820746,-1.3697723727523015,-10.566466413235885,-14.42427128222033
1.132907275394708,-3.40845720822953,3.0683808200545517,-1.5140150855745047,-10.538102320706791,-15.328821764376043
1.0988227033124127,-3.5138382314365977,3.0532406691988068,-1.6673033032182651,-10.478104869733986,-16.23609799792329
1.0636843209980467,-3.6186192801339376,3.036567636166624,-1.829664283197498,-10.380029467110829,-17.13954997897303
1.0274981281967073,-3.7224195748050457,3.018270993334649,-2.0010597829872285,-10.236867813804377,-18.03172682108782
0.9902739324486568,-3.8247882529430894,2.9982603955047766,-2.1813770511981065,-10.041094380435265,-18.90427920580656
0.9520260499192259,-3.925199196747442,2.9764466249927954,-2.370419843256172,-9.784736427523553,-19.747990634833947
0.9127740579517515,-4.023046561022677,2.9527424265602336,-2.5678997496045115,-9.459470025185396,-20.552841664460257
0.8725435923415247,-4.117641261274531,2.9270634290641886,-2.773428166249114,-9.05674396536352,-21.308110592009044
0.8313671797287794,-4.208208700928166,2.8993291474016973,-2.9865092721692044,-8.567932767727386,-22.002513141408663
0.7892850927194978,-4.29388802860544,2.869464054680005,-3.206534403583291,-7.984519208639829,-22.62438265477352
0.7463462124334433,-4.373733220691838,2.8373987106441723,-3.432778230131026,-7.298306005688347,-23.161891264258212
0.702608880226525,-4.4467162807487215,2.803070928342862,-3.664397142773608,-6.501655506563199,-23.60331162448683
0.6581417174190378,-4.511732835814353,2.766426956915126,-3.9004302590184765,-5.5877554558681455,-23.93731812917546
0.6130243890608943,-4.5676103903730345,2.727422654324941,-4.1398034403102315,-4.5509080710361225,-24.15332613451902
0.567348285157164,-4.613119471083396,2.686024619921839,-4.381336701655422,-3.3868385812012045,-24.241867457204844
0.52121709044633,-4.646987856895407,2.642211252905285,-4.623755376227471,-2.0930178088404925,-24.19500003763197
0.47474721187737595,-4.6679180349838125,2.59597369914301,-4.86570537660379,-0.6689909764742,-24.00674873261291
0.4280680315275378,-4.674607944748555,2.547316645376972,-5.10577286392992,0.8832986212963648,-23.673572196979944
0.38132195208005226,-4.665774958535591,2.496258916737673,-5.342508585899719,2.5592073263795427,-23.194847216427785
0.33466420249469636,-4.640182885271796,2.442833830878676,-5.574457058063997,4.351132610854159,-22.573356348827517
0.2882623736419784,-4.596671559163254,2.387089260298036,-5.8001906215522725,6.248327689052152,-21.81575742294513
0.24229565805034584,-4.534188282272733,2.3290873540825134,-6.018348195781724,8.236825231537866,-20.933005071795396
0.1969537752276185,-4.451820029957354,2.2689038721246964,-6.227678246499678,10.299510926200396,-19.940686549374742
0.15243557492804496,-4.34882492069535,2.2066270896597,-6.427085111993425,12.416388493999053,-18.85922882856589
0.10894732572109148,-4.224661035755359,2.1423562385397656,-6.615677400279084,14.56507269273539,-17.71393408005796
0.06670071536353789,-4.079010308828005,2.076199464536975,-6.792816741079664,16.72153434820787,-16.534808643869773
0.025910612275257837,-3.9117949653459263,2.0082712971261785,-6.958164827518361,18.861101292614986,-15.356168197308918
-0.013207337378201428,-3.7231839524197765,1.9386896488509948,-7.111726509491451,20.959692848650846,-14.21602898824112
-0.05043917690239919,-3.513587023933268,1.8675723837560803,-7.253886799373862,22.995236827363463,-13.155329512364718
-0.08557504714173186,-3.2836346556596334,1.7950335157623416,-7.385440094497509,24.949192286489723,-12.217064417526888
-0.1184113936983282,-3.034142732794736,1.7211791148173665,-7.507610738672779,26.808084606288627,-11.445446752310827
-0.14875282102627557,-2.76606188673185,1.6461030074306386,-7.622065206195887,28.564957016563575,-10.885239795319766
-0.17641343989359407,-2.480412316566214,1.5698823553686798,-7.730917604149084,30.220657228054403,-10.58141083839323
-0.2012175630592562,-2.1782057442856697,1.492573179327189,-7.836731712533017,31.78490799173874,-10.57925416688513
-0.2229996205021129,-1.8603566643682823,1.414205862201859,-7.942524254201868,33.27715011980002,-10.92510911539664
-0.2416031871457957,-1.5275851631702821,1.3347806196598402,-8.051775345355834,34.727184236431626,-11.667761493109891
-0.2568790387774985,-1.180313320805966,1.2542628662062818,-8.168452960286933,36.175654798043446,-12.860557134961718
-0.26868217198555816,-0.8185567728255314,1.1725783366034124,-8.29705853163655,37.67438594184651,-14.564151692798395
-0.27686773971381345,-0.4418129134070663,1.0896077512870468,-8.442700048564534,39.28643569965266,-16.84960665664881
-0.2812858688478841,-0.048948556410539745,1.0051807508014015,-8.611196115131023,41.08536260969476,-19.80106141153685
-0.2817753544119895,0.3619050696864079,0.9190687896500912,-8.809206729246391,43.152332393497474,-23.516103476942362
-0.2781563037151254,0.7934283936213826,0.8309767223576273,-9.044367764015815,45.567745623311275,-28.099409646558463
-0.2702220197789116,1.2491058498544954,0.7405330447174692,-9.3253618604814,48.38976450842675,-33.63945358840969
-0.25773096128036665,1.733003494938763,0.6472794261126551,-9.661756396365497,51.6028549820103,-40.14538864499299
-0.24040092633097904,2.249032044758866,0.5506618621490001,-10.063210282815428,55.00081417623455,-47.39523542232094
-0.21791060588339037,2.7990401865212116,0.4500297593208459,-10.537162637038637,57.937646018159434,-54.60224769984946
-0.18992020401817825,3.378416646702806,0.3446581329504595,-11.083185114037132,58.85813154941212,-59.772658815514156
-0.1561360375511502,3.966997962196927,0.2338262818100882,-11.680911702192274,54.652728810300225,-58.80276464940314
-0.11646605792918091,4.51352525029993,0.11701716478816544,-12.268939348686306,40.62836423841081,-45.38352366533845
-0.07133080542618161,4.9198088926840375,-0.005672228698697615,-12.72277458533969,13.488488424843982,-14.991929231942345
-0.02213271649934124,5.054693776932478,-0.1328999745520945,-12.872693877659113,-21.71583230288692,25.705649549361528
0.02841422126998354,4.837535453903609,-0.26162691332868565,-12.615637382165499,-50.76370539808089,57.87091128864334
0.07678957580901963,4.3298983999228,-0.3877832871503406,-12.036928269279066,-64.32844651116922,69.61609492599916
0.12008855980824762,3.6866139348111076,-0.5081525698431313,-11.340767320019074,-65.59847968325352,65.82940728143807
0.15695469915635868,3.0306291379785724,-0.621560243043322,-10.682473247204694,-61.51747731048874,55.95410659586843
0.1872609905361444,2.415454364873685,-0.728384975515369,-10.122932181246009,-56.299537450358855,45.45205651481933
0.21141553418488124,1.8524589903700965,-0.8296142973278291,-9.668411616097815,-51.54482291797495,36.23763453965015
0.2299401240885822,1.337010761190347,-0.9262984134888073,-9.306035270701313,-47.6384997914136,28.658396814441602
0.24331023170048566,0.860625763276211,-1.0193587661958203,-9.019451302556897,-44.541731339946594,22.561541189836834
0.2519164893332478,0.41520844987674504,-1.1095532792213894,-8.793835890658528,-42.10286636244149,17.69356076587235
0.25606857383201526,-0.0058202137476698335,-1.1974916381279745,-8.616900282999804,-40.16118400817641,13.822643609358883
0.25601037169453855,-0.407432053829434,-1.2836606409579725,-8.478673846906215,-38.57563853102062,10.765183690994558
0.25193605115624423,-0.7931884391396402,-1.3684473794270346,-8.371022009996269,-37.22911372326136,8.383099754234431
0.24400416676484782,-1.1654795763722539,-1.4521575995269973,-8.287191012453924,-36.025849860125085,6.574219582961341
0.2323493710011253,-1.5257380749735048,-1.5350295096515365,-8.22144881662431,-34.88784677355282,5.262519364483691
0.21709199025139025,-1.8746165427090329,-1.6172439978177797,-8.168823622979474,-33.7519265943373,4.389922578092776
0.1983458248242999,-2.212135808652406,-1.6989322340475745,-8.124924397198546,-32.56774886602063,3.909821397968795
0.17622446673777586,-2.537813297312612,-1.78018147801956,-8.085826183218858,-31.29662564426692,3.782109593870366
0.15084633376464973,-2.8507795537552814,-1.8610397398517486,-8.048005087280155,-29.910862658746826,3.96949722643952
0.12233853822709692,-3.1498881803427494,-1.9415197907245503,-8.008310115015759,-28.3933425689672,4.4349393553549
0.09083965642366942,-3.4338216060324216,-2.021602891874708,-7.963960721462209,-26.737099510896652,5.140063654714565
0.05650144036334521,-3.701192601141388,-2.10124249908933,-7.9125600849150635,-24.94469046511082,6.0445006195026965
0.019489514351931324,-3.950639505792496,-2.1803680999384807,-7.852115078720036,-23.027241470069825,7.106005375942298
-0.02001688070599364,-4.180911920493195,-2.258889250725681,-7.781055024960613,-21.003128521119528,8.28122362454497
-0.061825999910925585,-4.39094320570439,-2.3366998009752873,-7.698242788715164,-18.896333978479575,9.526912615384393
-0.10573543196796947,-4.579906545489186,-2.413682228862439,-7.60297366256132,-16.734587096085367,10.801398243970116
-0.15153449742286135,-4.747252416450039,-2.489711965488052,-7.494959680121619,-14.547440639653502,12.066044175047834
-0.19900702158736175,-4.892726822846575,-2.564661562289268,-7.374299238371141,-12.364447943940093,13.286533641543935
-0.2479342898158275,-5.016371302285975,-2.6384045546729795,-7.241433901955702,-10.21358649358518,14.433815869547784
-0.29809800283868726,-5.118507167221827,-2.7108188936925366,-7.097095743260224,-8.120032252549313,15.484636533291722
-0.3492830745109055,-5.19970748974732,-2.7817898511251387,-6.942249377927308,-6.105334956063538,16.42164144858737
-0.4012801494083787,-5.260760839307956,-2.8512123449044116,-6.778032963441434,-4.186990756961515,17.233101979089646
-0.45388775780145824,-5.302630746877571,-2.918992674538826,-6.605701943650537,-2.378364964081715,17.912350717558926
-0.506914065270234,-5.3264143965183885,-2.9850496939753315,-6.426578436474948,-0.6888897774073054,18.45703395874312
-0.5601782092354178,-5.333303294292461,-3.049315478340081,-6.242008096887517,0.8755490671782099,18.868285503327133
-0.6135112421783424,-5.324547803620679,-3.111735559308956,-6.053325241854245,2.3121195737565206,19.149909962513632
-0.6667567202145492,-5.301426607883114,-3.1722688117274984,-5.861826142229109,3.6205145580443543,19.30763966330061
-0.7197709862933803,-5.26522146230267,-3.2308870731497894,-5.668749745596103,4.8024386392056,19.34850354214765
-0.772423200916407,-5.217197075910614,-3.2875745706057504,-5.475264710174627,5.861144853805488,19.280323448587936
-0.8245951716755132,-5.15858562737256,-3.3423272177074965,-5.282461475688748,6.8010383131501015,19.111335505663956
-0.8761810279492388,-5.090575244241059,-3.395151832464384,-5.091348120632108,7.627351649539747,18.849922346297344
-0.9270867803916494,-5.014301727745662,-3.446065313670705,-4.902848897169134,8.345888299846244,18.504435734894795
-0.977229797669106,-4.9308428447471995,-3.4950938026423963,-4.717804539820186,8.962824608659343,18.083087210810405
-1.026538226116578,-4.841214598660606,-3.542271848040598,-4.536973667712082,9.484559576916062,17.59388565273259
-1.0749503721031841,-4.746369002891446,-3.5876415847177188,-4.361034811184756,9.917601004158232,17.044603822716926
-1.1224140621320986,-4.647192992849863,-3.6312519328295663,-4.190588772957587,10.268477997826466,16.442759982468562
-1.1688859920605972,-4.544508212871598,-3.673157820559142,-4.026161173132901,10.543671714930005,15.795604826280957
-1.2143310741893132,-4.439071495722298,-3.713419432290471,-3.8682051248700913,10.749558288534256,15.110107745854192
-1.258721789146536,-4.331575912836955,-3.752101483539172,-3.7171040474115493,10.892359858674428,14.392939550891594
-1.3020375482749056,-4.222652314250211,-3.7892725240132874,-3.5731746519026335,10.978101290877483,13.650451102752559
-1.3442640714174077,-4.112871301341436,-3.8250042705323137,-3.436670140875108,11.012571443154163,12.888648882812904
-1.385392784430822,-4.002745586909895,-3.8593709719410647,-3.3077836520469788,11.001288724101649,12.113169396092829
-1.425420240299921,-3.8927326996688785,-3.8924488084615345,-3.1866519580860504,10.94947120770092,11.329254630703657
-1.4643475672966098,-3.7832379875918694,-3.924315328042395,-3.073359411779014,10.862011798169677,10.541730697926514
-1.5021799471725283,-3.674617869610173,-3.955048922160185,-2.9679421047997487,10.743458945384146,9.754991406897847
-1.53892612586863,-3.5671832801563315,-3.984728343208183,-2.87039219073077,10.598003271958119,8.972988007104094
-1.5745979586701933,-3.4612032474367505,-4.01343226511549,-2.780662310659729,10.429470253077636,8.199225763360928
-1.6092099911445608,-3.356908544905974,-4.041238888222088,-2.69867005302612,10.24131884331969,7.436767487783226
-1.6427790765936205,-3.254495356472777,-4.068225588752349,-2.6243023781482875,10.036645710614318,6.688243691841152
-1.6753240301583483,-3.1541288993666337,-4.094468612533832,-2.557419941229876,9.818194542212524,5.955868666424658
-1.7068653191520147,-3.0559469539445083,-4.1200428119461305,-2.4978612545656294,9.588369744881433,5.241461557698992
-1.7374247886914598,-2.960063256495694,-4.1450214244917865,-2.4454466389886393,9.349253775737312,4.54647137638123
-1.7670254212564167,-2.8665707187383207,-4.169475890881673,-2.399981925224827,9.10262730825037,3.872004843763627
-1.7956911284438,-2.775544445655817,-4.193475710133921,-2.3612618767871907,8.849991452577424,3.2188560203159877
-1.8234465729003582,-2.687044531130043,-4.217088328901792,-2.3290733165840307,8.592591300717764,2.587536761437888
-1.8503170182116586,-2.6011186181228654,-4.240379062067633,-2.3031979489696517,8.331440144629948,1.978307180227301
-1.8763282043928873,-2.517804216676566,-4.26341104155733,-2.283414877167379,8.06734380956827,1.3912054517705883
-1.9015062465596528,-2.437130778580883,-4.286245190329003,-2.269502822649673,7.800924647017593,0.8260764535015926
-1.9258775543454616,-2.359121532110707,-4.3089402185555,-2.261242058114657,7.532644834963226,0.28259889119324505
-1.9494687696665687,-2.283795083761075,-4.331552639136646,-2.2584160692027244,7.262828732867978,-0.23968929696461416
-1.9723067205041793,-2.211166796432395,-4.354136799828673,-2.2608129621723707,6.991684131364449,-0.7413673391689659
-1.9944183884685032,-2.1412499551187505,-4.376744929450397,-2.2682266355640603,6.719322320481191,-1.2231098042033015
-2.0158308880196905,-2.0740567319139385,-4.399427195806037,-2.2804577336060934,6.445776974541797,-1.6856664332297098
-2.0365714553388297,-2.0095989621685204,-4.422231773142098,-2.2973143979383903,6.171021916908305,-2.1298434379244924
-2.0566674449605147,-1.9478887429994374,-4.445204917121482,-2.318612832317635,5.89498788427293,-2.5564860150661293
-2.076146332390509,-1.888938864156708,-4.468391045444658,-2.3441776924682967,5.617578459370263,-2.9664617813494214
-2.095035721032076,-1.8327630795630054,-4.491832822369341,-2.3738423102817907,5.338685384059261,-3.360644795557072
-2.113363351827706,-1.7793762257224128,-4.515571245472159,-2.4074487582373614,5.058203502954776,-3.739899805768381
-2.1311571140849304,-1.728794190692865,-4.539645733054532,-2.444847756295045,4.7760456222410275,-4.1050663348256
-2.148445055991859,-1.6810337344704547,-4.564094210617482,-2.485898419643301,4.4921575997394,-4.456942196067741
-2.1652553933365635,-1.6361121584730607,-4.588953194813915,-2.5304678416039788,4.2065340110621845,-4.796266012235515
-2.181616514921294,-1.5940468183624388,-4.614257873229955,-2.578430501726334,3.9192347625204733,-5.123698293060547
-2.1975569831049184,-1.554854470737234,-4.640042178247219,-2.6296674846569394,3.630403043382625,-5.439800611926131
-2.213105527812291,-1.5185504403034078,-4.666338853093788,-2.684065490776201,3.3402850261595294,-5.745012410848633
-2.228291032215325,-1.4851475900418125,-4.69317950800155,-2.7415156148846873,3.0492517306609055,-6.039624959077685
-2.243142508115743,-1.4546550727352034,-4.720594664150397,-2.801911864475464,2.7578234609063723,-6.323751998910192
-2.257689058843095,-1.4270768381261396,-4.748613782795152,-2.865149384464566,2.466697196907432,-6.597296640260444
-2.2719598272243564,-1.4024098661570652,-4.777265276639798,-2.9311223508671707,2.176777266755975,-6.859914123439236
-2.285983925885927,-1.3806420934895054,-4.80657650014847,-2.999721492101563,1.8892095263124826,-7.110970171334888
-2.299790346820822,-1.3617499982263805,-4.836573715069486,-3.070831193814912,1.6054191185971396,-7.349494815830697
-2.313407846803086,-1.3456958070404093,-4.867282027007635,-3.1443261419732194,1.3271516534389542,-7.574131831682385
-2.32686480487349,-1.3324242905060197,-4.898725288427367,-3.220067460290043,1.056517316803138,-7.783084272111794
-2.3401890477785505,-1.3218591173379883,-4.930925963030267,-3.297898303011161,0.7960369618067508,-7.974057106691727
-2.3534076389519303,-1.3138987477199209,-4.963904946060379,-3.3776388740780785,0.5486886210218945,-8.144198649726206
-2.3665466264291295,-1.308411861509702,-4.997681334801159,-3.4590808605753405,0.3179520844342579,-8.290043372600543
-2.3796307450442264,-1.3052323406653594,-5.032272143406913,-3.541981294301346,0.10784818765746768,-8.407459847442878
-2.39268306845088,-1.3041538587887846,-5.067691956349926,-3.6260558927757747,-0.07703175659986318,-8.491608988139134
-2.405724607038768,-1.3049241763547832,-5.103952515277684,-3.710971982657166,-0.2315123548389962,-8.536919425634753
-2.418773848802316,-1.3072392999031732,-5.141062235104256,-3.7963411769135136,-0.34984386129617456,-8.53708871618255
-2.4318462418013476,-1.310737738516135,-5.179025646873391,-3.881712064075339,-0.4257442780647508,-8.485120998095297
-2.444953619186509,-1.3149951812967824,-5.217842767514144,-3.966563274056292,-0.452484185916406,-8.373413445060663
-2.458103570999477,-1.3195200231559465,-5.257508400254707,-4.050297408506899,-0.42302544178483,-8.193905039863383
-2.4712987712310364,-1.3237502775737948,-5.298011374339776,-4.132236458905533,-0.33022466220512575,-7.9383012878067625
-2.4845362740067745,-1.3270525241958462,-5.339333738928831,-4.2116194717836,-0.167110639292621,-7.598386836308837
-2.4978067992487327,-1.3287236305887724,-5.381449933646667,-4.287603340146688,0.07275911530183814,-7.166433807605827
-2.5110940355546205,-1.327996039435754,-5.424325967048134,-4.359267678222746,0.3948642030413653,-6.635706260519986
-2.524373995948978,-1.3240473974053404,-5.4679186438303615,-4.4256247408279465,0.8032208344509172,-6.0010500970090614
-2.5376144699230316,-1.3160151890608311,-5.512174891238641,-4.485635241798037,1.2998389810106696,-5.259542989028236
-2.55077462181364,-1.3030167992507244,-5.557031243656621,-4.53823067168832,1.884175870572242,-4.411161484049803
-2.563804789806147,-1.284175040545002,-5.602413550373504,-4.582342286528817,2.5526392559147535,-3.459404504951398
-2.576646540211597,-1.2586486479858545,-5.6482369732387925,-4.616936331578331,3.298205683802706,-2.4117974189435083
