th1 (rad),w1 (rad/s),th2 (rad),w2 (rad/s),a1 (rad/s^2),a2 (rad/s^2)
6.015936721852452,2.6826502330533697,1.1040392319310361,2.8353595341474085,8.25625075865513,-17.44186384617171
6.042763224182986,2.765212740639921,1.1323928272725103,2.6609408956856915,7.560840033680767,-17.857398863874778
6.070415351589385,2.8408211409767286,1.1590022362293673,2.4823669070469436,6.8943058230754675,-18.254811502437857
6.0988235629991525,2.9097641992074834,1.1838259052998368,2.299818792022565,6.2613119551269305,-18.628830083585683
6.127921204991227,2.9723773187587526,1.2068240932200625,2.113530491186708,5.666329514981367,-18.975346971546116
6.157644978178815,3.0290406139085664,1.2279593981319294,1.9237770214712469,5.113536050717435,-19.291441489173923
6.187935384317901,3.0801759744157406,1.2471971683466418,1.7308626065795076,4.606735232495642,-19.57538012179229
6.218737144062058,3.1262433267406973,1.264505794412437,1.5351088053615847,4.149297621184983,-19.82659291956551
6.249999577329465,3.167736302952547,1.2798568824660528,1.3368428761659295,3.7441221021884568,-20.045626038414312
6.281676940358991,3.205177523974432,1.2932253112277121,1.1363866157817863,3.393616375729291,-20.234071114823728
6.313728715598735,3.2391136877317246,1.30458917738553,0.9340459046335491,3.099693672513021,-20.394472531791337
6.346119852476052,3.270110624456855,1.3139296364318656,0.7301011793156357,2.8637815628483363,-20.5302134720485
6.37882095872062,3.298748440085338,1.321230648225022,0.5247990445951507,2.6868372892187,-20.645380822031427
6.4118084431214735,3.325616812977525,1.3264786386709735,0.3183452363748364,2.5693623663317307,-20.74460730375543
6.445064611251249,3.3513104366408424,1.3296620910347219,0.11089916333728211,2.5114070801489103,-20.83288643430211
6.478577715617657,3.3764245074423314,1.3307710826680947,-0.097429701005739,2.512552712712529,-20.91535172219732
6.512341960692081,3.4015500345694565,1.3297967856580373,-0.30658321822771223,2.57185545036334,-20.9970054664042
6.5463574610377755,3.42726858907309,1.32673095347576,-0.5165532728917542,2.6877305052003044,-21.0823740392629
6.580630146928506,3.454145894125093,1.3215654207468426,-0.7273770132843832,2.8577473844296692,-21.175054873581317
6.615171605869757,3.4827233679693896,1.3142916506139988,-0.9391275620201964,3.078296822889214,-21.277104736153213
6.649998839549451,3.5135063361982817,1.3049003749937969,-1.1518986093817285,3.3440761593700596,-21.388198680184434
6.685133902911434,3.5469470977919824,1.2933813888999797,-1.3657805961835727,3.647323096539603,-21.50446471728436
6.720603373889354,3.5834203287573785,1.279723582938144,-1.5808252433564163,3.9767099395672183,-21.61687375155184
6.756437577176928,3.6231874281530505,1.2639153305045798,-1.7969939808719346,4.315797999382378,-21.70904672535989
6.792669451458458,3.6663454081468743,1.2459453906958604,-2.0140844481255336,4.6409602493103375,-21.754352746730984
6.829332905539927,3.712755010639978,1.225804546214605,-2.2316279755928434,4.918741586433675,-21.71225795914113
6.866460455646326,3.7619424265043144,1.2034882664586766,-2.4487505551842546,5.102799542464973,-21.52412792782256
6.904079879911369,3.812970421928964,1.179000760906834,-2.6639918344624802,5.1309488709571935,-21.10921858979199
6.942209584130659,3.864279910638536,1.1523608425622092,-2.8750840203604002,4.923537160499174,-20.362573680672547
6.980852383237044,3.9135152822435275,1.123610002358605,-3.078709757167126,4.3854566187619675,-19.15804933303534
7.01998753605948,3.957369848431147,1.0928229047869338,-3.2702902504974793,3.4152964419820524,-17.361350850585538
7.059561234543791,3.9915228128509677,1.060120002281959,-3.4439037590033346,1.925478151876391,-14.858410532670131
7.099476462672301,4.010777594369731,1.0256809646919256,-3.5924878643300358,-0.1253244387159867,-11.600829668800667
7.139584238615998,4.009524349982572,0.9897560860486252,-3.7084961610180422,-2.693754512087425,-7.659444644544531
7.179679482115824,3.9825868048616972,0.9526711244384448,-3.7850906074634874,-5.625027590348617,-3.261070049872306
7.21950535016444,3.926336528958211,0.9148202183638099,-3.8177013079622104,-8.661918784512393,1.2252963590341528
7.258768715454022,3.839717341113087,0.8766432052841878,-3.805448344371869,-11.501423946150007,5.369275904743467
7.297165888865153,3.724703101651587,0.8385887218404692,-3.7517555853244344,-13.880005822667536,8.799625465990513
7.334412919881669,3.5859030434249117,0.8010711659872248,-3.6637593306645293,-15.643539576453088,11.302457426231399
7.370271950315918,3.4294676476603807,0.7644335726805795,-3.5507347564022154,-16.7673032873953,12.848513369946932
7.404566626792522,3.2617946147864276,0.7289262251165574,-3.422249622702746,-17.3270337022285,13.551318988385882
7.437184572940386,3.088524277764143,0.6947037288895299,-3.2867364328188873,-17.44895296461784,13.595874753607628
7.468069815718027,2.9140347481179645,0.661836364561341,-3.150777685282811,-17.266273956244675,13.176780582317148
7.497210163199207,2.7413720085555178,0.6303285877085129,-3.01900987945964,-16.89384844734694,12.462208483652228
7.524623883284762,2.572433524082048,0.6001384889139164,-2.8943877946231176,-16.419235159414054,11.581210299213936
7.550348218525582,2.408241172487908,0.5711946109676852,-2.7785756916309783,-15.903627034217754,10.625032920693506
7.574430630250461,2.2492049021457303,0.5434088540513754,-2.672325362424043,-15.386864684940864,9.654247603237907
7.596922679271919,2.0953362552963215,0.516685600427135,-2.575782886391664,-14.893129204299793,8.706857637159153
7.617876041824882,1.9464049632533236,0.4909277715632183,-2.488714310020072,-14.43583493970288,7.805280925197445
7.637340091457415,1.8020466138562947,0.4660406284630176,-2.410661500768098,-14.021336669642578,6.96165519663478
7.655360557595978,1.661833247159869,0.4419340134553366,-2.34104494880175,-13.651544456175047,6.181593802457942
7.671978890067577,1.5253178025981184,0.4185235639673191,-2.2792290107771707,-13.3256852062186,5.466728238461613
7.687232068093558,1.3920609505359325,0.39573127385954737,-2.2245617283925547,-13.04145091741947,4.816376175565273
7.701152677598918,1.2616464413617379,0.3734856565756218,-2.1763979666369018,-12.795727079848655,4.228608735754139
7.713769142012535,1.1336891705632512,0.3517216769092528,-2.1341118792793603,-12.585042577027984,3.7009173735514955
7.725106033718168,1.0078387447929713,0.3303805581164592,-2.097102705543845,-12.405838949744997,3.2306193384777138
7.735184421166098,0.8837803552955213,0.30940953106102076,-2.064796512159068,-12.254624641713532,2.8150950688332053
7.744022224719053,0.761234108878386,0.2887615659394301,-2.0366455614707357,-12.128057338545233,2.4519189496610516
7.751634565807837,0.6399535354929338,0.26839511032472274,-2.012126371974125,-12.022982337878418,2.13892330055495
7.7580341011627665,0.5197237121141496,0.24827384660498147,-1.9907371389685757,-11.936444873956914,1.8742211892478828
7.763231338283908,0.40035926337458044,0.2283664752152957,-1.9719949270760968,-11.865687798933656,1.6562043513106592
7.767234930917653,0.2817023853852439,0.20864652594453476,-1.9554328835629902,-11.808141814847225,1.4835264706874542
7.770051954771506,0.16362096723677164,0.18909219710890485,-1.9405976188561156,-11.761412751456884,1.3550782068915719
7.771688164443874,0.04600683972220279,0.1696862209203437,-1.9270468367871998,-11.72326866263352,1.2699578890991727
7.772148232841096,-0.07122584690413242,0.1504157525524717,-1.914347257896208,-11.691628418654368,1.2274402413871959
7.771435974372055,-0.1881421310906761,0.1312722799735096,-1.902072855482336,-11.664552776870071,1.2269445361012024
7.769554553061148,-0.3047876588593768,0.11225155141868623,-1.8898034101213241,-11.640238472368441,1.2680029862432745
7.766506676472554,-0.4211900435830612,0.09335351731747299,-1.8771233802588914,-11.61701558915434,1.3502298488468656
7.762294776036724,-0.5373601994746047,0.07458228351488408,-1.8636210817704226,-11.593348290462275,1.4732915330570906
7.7569211740419775,-0.6532936823792275,0.055946072697179855,-1.8488881664398518,-11.567838865438272,1.636877933099425
7.750388237218186,-0.7689720710336102,0.037457191032781334,-1.8325193871088574,-11.539234964093952,1.8406752010898588
7.74269851650785,-0.8843644206745497,0.019131997161692758,-1.8141126350979588,-11.506439827964078,2.084340213757349
7.733854872301104,-0.9994288189541904,0.000990870810713168,-1.7932692329603854,-11.46852527126472,2.3674770545191546
7.723860584111562,-1.1141140716668376,-0.016941821518890687,-1.7695944624151938,-11.424747121684863,2.6896159167617775
7.712719443394894,-1.2283615428836863,-0.03463776614304263,-1.742698303247576,-11.374562789266808,3.0501949273923916
7.700435827966057,-1.3421071707763543,-0.052064749175518385,-1.712196353973652,-11.317650596223478,3.4485454852220765
7.687014756258294,-1.455283676738589,-0.06918671271525491,-1.6777108991214313,-11.253930471624715,3.8838818009546774
7.672461919490908,-1.5678229814548361,-0.08596382170646923,-1.6388720811118846,-11.183585595452673,4.355295409389697
7.6567836896763595,-1.6796588374093628,-0.10235254251758807,-1.5953191270179876,-11.107084570265567,4.861755495029729
7.639987101302266,-1.7907296831120185,-0.11830573378776796,-1.5467015720676902,-11.025203709945046,5.402115924867383
7.622079804471146,-1.900981720211469,-0.13377274950844487,-1.4926804128190163,-10.939049068414858,5.975129912118147
7.6030699872690315,-2.0103722108956177,-0.14869955363663503,-1.4329291136978348,-10.850077891477518,6.579473237712392
7.582966265160075,-2.118872989810393,-0.16302884477361337,-1.3671343813207109,-10.760119266187113,7.213776928453141
7.561777535261971,-2.226474182472264,-0.1767001885868205,-1.2949966120361793,-10.67139386742864,7.876670228224696
7.539512793437249,-2.3331881211465504,-0.18965015470718227,-1.2162299097539324,-10.586532861401274,8.5668345979166
7.516180912225783,-2.439053449760563,-0.2018124538047216,-1.1305615637747664,-10.508596217724925,9.28306933649334
7.491790377728178,-2.5441394119378122,-0.21311806944246925,-1.037730870409833,-10.441090897513023,10.024369223027952
7.4663489836088,-2.6485503209129426,-0.22349537814656759,-0.9374871781795534,-10.38798960691694,10.790014324597731
7.43986348039967,-2.752430216982112,-0.2328702499283631,-0.8295870349335761,-10.35375100388433,11.579671772337576
7.412339178229849,-2.8559677270209556,-0.24116612027769888,-0.7137903172102004,-10.34334236877363,12.393508828806384
7.38377950095964,-2.959401150708692,-0.24830402344980088,-0.5898552289221365,-10.362265712308835,13.23231586310669
7.3541854894525525,-3.0630238078317804,-0.2542025757390222,-0.45753207029106957,-10.416587958503987,14.097636751430787
7.323555251374235,-3.1671896874168204,-0.25877789644193294,-0.3165557027767617,-10.512974978295851,14.991902439875606
7.291883354500067,-3.272319437199779,-0.26194345346970055,-0.16663667837800564,-10.658727486629402,15.918560441110834
7.2591601601280695,-3.378906712066073,-0.2636098202534806,-0.007451073966897287,-10.86181352846513,16.882188027000172
7.225371093007409,-3.4875248473507243,-0.2636843309931496,0.16137080630310444,-11.13088642595232,17.888568365576873
7.190495844533902,-3.5988337116102476,-0.2620706229301185,0.34025648995887314,-11.47526689207237,18.944694367164736
7.154507507417799,-3.7135863805309715,-0.2586680580305298,0.5297034336305205,-11.904850601509809,20.0586404076312
7.117371643612489,-3.8326348865460695,-0.2533710236942246,0.7302898377068325,-12.429872942636148,21.23920047340846
7.079045294747028,-3.956933615972431,-0.24606812531715627,0.9426818424409171,-13.060412846050957,22.495121230160752
7.039475958587304,-4.08753774443294,-0.2366413068927471,1.1676330547425247,-13.805434386423109,23.833641710664384
6.998600581142974,-4.225592088297171,-0.22496497634532184,1.4059694718491684,-14.671028000438932,25.257859494275465
6.956344660260003,-4.37230236830156,-0.21090528162683014,1.658548066791923,-15.657293934765281,26.76213667818944
6.912621636576987,-4.528875307649213,-0.1943198009589109,1.9261694335738175,-16.752976215253508,28.32429302861835
6.867332883500495,-4.696405069801748,-0.17505810662317273,2.209412363860001,-17.92649372473954,29.892694066483
6.820368832802478,-4.875670007049143,-0.1529639829845727,2.508339304524831,-19.111515901925966,31.36566070381645
6.7716121327319865,-5.066785166068403,-0.12788058993932439,2.8219959115629956,-20.18510971263742,32.56049920374304
6.7209442810713025,-5.268636263194777,-0.09966063082369443,3.147600903600426,-20.937987868811273,33.17164523313052
6.6682579184393544,-5.47801614188289,-0.06818462178769016,3.479317355931731,-21.042423576530428,32.72604613281152
6.613477757020526,-5.6884403776481935,-0.03339144822837285,3.8065778172598463,-20.038819914321127,30.565811054780095
6.556593353244044,-5.888828576791405,0.004674329944225612,4.112235927807648,-17.389158576144048,25.926680815881916
6.49770506747613,-6.0627201625528455,0.04579668922230209,4.371502735966467,-12.666635793163788,18.21041866852149
6.437077865850602,-6.189386520484484,0.08951171658196676,4.5536069226516815,-5.899315996129027,7.475680750250649
6.375184000645757,-6.248379680445774,0.1350477858084836,4.628363730154188,2.1142387939181635,-5.111943388750695
6.3127002038413,-6.227237292506593,0.18133142311002548,4.577244296266681,9.907683446260682,-17.425676384155285
6.250427830916234,-6.128160458043986,0.22710386607269228,4.402987532425128,16.02323476797256,-27.341261106719557
6.189146226335794,-5.9679281103642605,0.2711337413969436,4.129574921357933,19.744309698002926,-33.78599998331403
6.129466945232151,-5.770485013384231,0.3124294906105229,3.7917149215247927,21.233568331233844,-36.94627831897597
6.071762095098308,-5.558149330071893,0.3503466398257708,3.422252138335033,21.12991388055652,-37.70237106340988
6.01618060179759,-5.346850191266327,0.3845691612091211,3.045228427700934,20.108600809896156,-37.00288011066168
5.962712099884927,-5.1457641831673655,0.41502144548613046,2.6751996265943174,18.67332950890054,-35.563825055546914
5.911254458053254,-4.9590308880783605,0.4417734417520736,2.3195613760388483,17.135190435616284,-33.83290646004428
5.86166414917247,-4.787678983722198,0.4649690555124621,1.9812323114384056,15.662356693652738,-32.056195344829085
5.813787359335248,-4.63105541678567,0.48478137862684617,1.6606703579901148,14.334299114040537,-30.353205931583187
5.767476805167392,-4.487712425645265,0.5013880822067474,1.3571382986742828,13.180815483000277,-28.771681940346188
5.722599680910939,-4.355904270815262,0.5149594651934902,1.069421479270821,12.20593826445618,-27.321576221865378
5.679040638202786,-4.233844888170701,0.5256536799861984,0.7962057170521673,11.401385384058292,-25.994468011278155
5.636702189321079,-4.119831034330118,0.5336157371567201,0.5362610369393856,10.753712667729925,-24.77412445079647
5.5955038789777785,-4.012293907652818,0.538978347526114,0.2885197924314209,10.24792579179778,-23.642029340433382
5.555380939901251,-3.9098146497348405,0.5418635454504281,0.052099499027087076,9.86918376982467,-22.58015676015595
5.516282793403902,-3.8111228120365936,0.5423845404406991,-0.17370206857447243,9.603508290764918,-21.572272715771167
5.478171565283536,-3.7150877291289444,0.5406475197549543,-0.38942479573218414,9.437996056918433,-20.604466156491835
5.441020687992246,-3.62070776855976,0.5367532717976324,-0.5954694572971024,9.360799116266504,-19.665285351259655
5.404813610306649,-3.527099777397095,0.5307985772246614,-0.792122310809699,9.361011748104229,-18.74567790984696
5.369542612532678,-3.4334896599160527,0.5228773541165644,-0.9795790899081686,9.428534349360099,-17.838837110128726
5.335207715933517,-3.339204316422452,0.5130815632174828,-1.1579674610094557,9.553948297140268,-16.940006429114455
5.301815672769293,-3.2436648334510494,0.5015018886073882,-1.3273675253006003,9.72841632898583,-16.04626771932631
5.269379024434783,-3.146380670161191,0.4882282133543822,-1.4878302024938634,9.943612707041416,-15.15632509624194
5.237915217733171,-3.046944543090777,0.4733499113294436,-1.6393934534562828,10.191682093763806,-14.270290188989248
5.207445772302264,-2.945027722153139,0.45695597679488076,-1.7820963553461753,10.465223409899844,-13.38947161822749
5.177995495080732,-2.8403754880541405,0.439135013241419,-1.9159910715284503,10.757293766128832,-12.516170581037377
5.149591740200191,-2.732802550392852,0.4199751025261345,-2.041152777338824,11.061427212147398,-11.65348425415563
5.122263714696262,-2.6221882782713783,0.3995635747527463,-2.15768761988038,11.371663179824937,-10.805118847773377
5.096041831913548,-2.508471646473129,0.3779866985539425,-2.265738808358114,11.682579913554223,-9.975214285412456
5.070957115448817,-2.391645847337587,0.35532931047036137,-2.3654909512122386,11.989328765001098,-9.168182530145897
5.047040656975441,-2.2717525596875756,0.33167440095823897,-2.4571727765136977,12.287665907728933,-8.388561483959831
5.024323131378566,-2.148875900610286,0.30710267319310197,-2.541058391353296,12.57397874961043,-7.640886159148596
5.002834372372463,-2.023136113114182,0.281692089279569,-2.617467252944782,12.845305051188278,-6.929578483230863
4.982603011241321,-1.8946830626022992,0.2555174167501212,-2.686763037777091,13.099343468573238,-6.258856685063834
4.963656180615298,-1.7636896279165668,0.22864978637235028,-2.749351604627729,13.33445490845477,-5.632664753650875
4.946019284336132,-1.630345078832019,0.201156270326073,-2.805678252164238,13.549654693116757,-5.054621993904177
4.929715833547812,-1.4948485319008515,0.17309948780443063,-2.8562244721032797,13.744596071142235,-4.527992252341946
4.9147673482288035,-1.357402571189429,0.14453724308339783,-2.901504394626699,13.919546063668854,-4.055671972454567
4.901193322516909,-1.2182071105527406,0.11552219913713084,-2.9420611143512447,14.075354998007388,-3.640195881106817
4.8890112514113815,-1.0774535605726667,0.08610158799361839,-2.9784630731623127,14.213421343875405,-3.283758814985317
4.878236715805655,-0.9353193471339127,0.05631695726199526,-3.011300661312166,14.335653628258173,-2.988251974337256
4.868883522334316,-0.791962810851331,0.0262039506488736,-3.0411831810555383,14.44443126036085,-2.755311736817356
4.860963894225803,-0.6475184982477226,-0.004207881161681783,-3.068736298423712,14.542566045918319,-2.5863790641901696
4.854488709243325,-0.5020928377885394,-0.0348952441459189,-3.0946000890656133,14.633266005931208,-2.482767463582366
4.84946778086544,-0.3557601777292273,-0.06584124503657504,-3.119427763701437,14.720102828581792,-2.445737381316733
4.845910179088147,-0.20855914944340936,-0.09703552267358942,-3.1438851375146046,14.806983852973676,-2.4765747471193396
4.843824587593713,-0.0604893109136726,-0.12847437404873546,-3.168650884985798,14.898128867498649,-2.5766710537274142
4.843219694484576,0.0884919777613139,-0.16016088289859343,-3.1944175955230723,14.99805112887794,-2.7476017082035558
4.844104614262189,0.2384724890500933,-0.19210505885382415,-3.2218936126051076,15.11154074231515,-2.9911982107924846
4.84648933915269,0.38958789647324477,-0.2243239949798752,-3.2518055947130327,15.243646678540172,-3.309607677359645
4.850385218117422,0.5420243632586464,-0.2568420509270055,-3.284901671486629,15.399650902635841,-3.7053298212988994
4.855805461750008,0.6960208722850049,-0.2896910676418718,-3.3219549696996182,15.585023820850594,-4.1812159812772345
4.862765670472858,0.8518711104935108,-0.322910617338868,-3.3637671295123908,15.80534368954225,-4.740405944222558
4.8712843815777935,1.0099245473889333,-0.3565482886339919,-3.4111711889546164,16.06615251396807,-5.386164379933902
4.881383627051683,1.1705860725286141,-0.39066000052353805,-3.4650328327539555,16.372705411870765,-6.1215570096841905
4.893089487776969,1.3343131266473218,-0.4253103288510776,-3.5262484028507974,16.729546721671294,-6.948873341056055
4.906432619043442,1.501608593864035,-0.46057281287958557,-3.595737136261358,17.13981065688419,-7.868652740268349
4.921448704982082,1.6730067004328768,-0.49653018424219914,-3.6744236636640415,17.604092777949415,-8.878097674911015
4.938178771986411,1.849047628212371,-0.5332744208788396,-3.763204640413152,18.118667622596444,-9.96855725040144
