th1 (rad),w1 (rad/s),th2 (rad),w2 (rad/s)
6.022337810743796,0.676166347464044,1.7713399113070287,-0.954418558995917
6.0290994742184365,0.684007224371818,1.7617957257170695,-1.0510577063258686
6.035939546462155,0.6928213222278903,1.7512851486538108,-1.1477036360081416
6.042867759684434,0.7027509334174669,1.7398081122937294,-1.2443603926488072
6.0498952690186085,0.7139392790911868,1.7273645083672413,-1.3410417427264374
6.057034661809521,0.7265305569639818,1.7139540909399769,-1.4377722436412002
6.064299967379161,0.7406700673670932,1.6995763685035647,-1.5345883750174885
6.0717066680528315,0.7565044328236443,1.6842304847533898,-1.6315397409405443
6.079271712381068,0.7741819275477536,1.6679150873439843,-1.728690354648489
6.087013531656546,0.7938529344742679,1.6506281837974994,-1.8261200205910144
6.094952061001289,0.8156705487592946,1.6323669835915893,-1.9239258327353692
6.103108766488882,0.8397913482002736,1.6131277252642355,-2.022223812577806
6.111506679970884,0.8663763527517389,1.5929054871384576,-2.1211507155260345
6.1201704434984014,0.8955921972849921,1.5716939799831973,-2.2208660401602125
6.129126365471252,0.9276125439466413,1.5494853195815952,-2.3215542813253274
6.138402490910718,0.9626197628370968,1.526269776768342,-2.4234274749557834
6.14802868853909,1.0008069120676828,1.502035502018784,-2.5267280897558426
6.158036757659767,1.0423800501865506,1.4767682211212256,-2.6317323279060245
6.168460558161632,1.0875609147973957,1.4504508978421653,-2.738753902999814
6.179336167309606,1.1365899997223063,1.423063358812167,-2.8481483669505003
6.190702067306829,1.1897300572238245,1.394581875142662,-2.9603180560669853
6.202599367879068,1.2472700381541226,1.3649786945819922,-3.0757177154839175
6.215072068260609,1.3095294557142962,1.334221517427153,-3.194860833228366
6.228167362817752,1.3768631083163776,1.3022729090948693,-3.3183266579835062
6.241935993900916,1.4496660082307584,1.2690896425150342,-3.446767767332818
6.256432653983223,1.528378209556822,1.234621964841706,-3.5809178614405934
6.271716436078791,1.613488969278382,1.1988127862273001,-3.7215991235122425
6.287851325771575,1.7055392393596753,1.1615967949921777,-3.8697279183465785
6.304906718165172,1.8051207627169554,1.1228995158087118,-4.026316638275441
6.322957925792341,1.9128688483948786,1.0826363494259574,-4.192467898719693
6.34208661427629,2.0294439410923335,1.0407116704387604,-4.36935462953719
6.362381053687214,2.1554939329206584,0.9970181241433885,-4.558175280444664
6.38393599301642,2.291584155349871,0.9514363713389419,-4.760066459957486
6.4068518345699195,2.4380743534113973,0.903835706739367,-4.975944731682356
6.431232578104034,2.5949110823133603,0.8540762594225434,-5.206234087945623
6.457181688927167,2.761290605047684,0.8020139185430871,-5.450416672007466
6.484794594977644,2.935136657828091,0.7475097518230125,-5.7063285375059705
6.514145961555925,3.1123458948744616,0.6904464664479528,-5.9691322117092
6.5452694205046695,3.2858210189301986,0.6307551443308608,-6.229988263200348
6.578127630693971,3.4445081702705282,0.5684552616988573,-6.4747171664732175
6.612572712396676,3.5730455631735363,0.5037080900341251,-6.683281203388769
6.648303168028411,3.6530995807900717,0.4368752780002374,-6.831566633680491
6.684834163836312,3.667404467650816,0.3685596116634325,-6.8968674255028795
6.72150820851282,3.6059516907049645,0.2995909374084037,-6.866305314293008
6.75756772541987,3.4709851293973855,0.23092788426547362,-6.743576820510369
6.792277576713843,3.276704644462525,0.16349211606036992,-6.548413911274598
6.825044623158469,3.0434633756414744,0.09800797694762395,-6.308542491665593
6.855479256914884,2.7908091905785426,0.034922552030968015,-6.050182938747935
6.883387348820669,2.5334220274713437,-0.025579277356511332,-5.792626024383993
6.908721569095382,2.280463980507194,-0.08350553760035126,-5.547502055557421
6.931526208900454,2.0367424102347185,-0.13898055815592547,-5.320485819058562
6.951893633002801,1.8042207495719815,-0.1921854163465111,-5.11341900210363
6.969935840498521,1.5832269598675601,-0.2433196063675474,-4.9259773120747985
6.9857681100971964,1.3732502408358527,-0.2925793794882954,-4.756752657334112
6.999500612505555,1.1734133716089834,-0.3401469060616365,-4.603883523764184
7.011234746221644,0.9827331505022242,-0.38618574129927835,-4.465394520843105
7.021062077726667,0.8002546493724432,-0.43083968650770943,-4.339365386407214
7.029064624220391,0.6251143319576238,-0.47423334037178155,-4.224005701662555
7.035315767539967,0.4565646464659352,-0.5164733973884071,-4.1176799614337005
7.039881414004626,0.293978564482529,-0.5576501970027441,-4.018907978042264
7.042821199649452,0.13684422536017343,-0.5978392767831667,-3.9263541558040855
7.044189641903054,-0.015244867261019812,-0.6371028183412076,-3.8388127529816165
7.0440371932304435,-0.162601263417195,-0.6754909458710238,-3.7551927243076206
7.042411180596272,-0.3054551905443622,-0.7130428731141,-3.674503835683823
7.039356628690828,-0.44396573640173376,-0.7497879114709383,-3.595844734549268
7.034916971326811,-0.5782313410665857,-0.785746358816431,-3.518393137764031
7.029134657916145,-0.7082995441032723,-0.8209302901940713,-3.4413980393739987
7.022051662475112,-0.8341760209281044,-0.8553442705878113,-3.364173720714411
7.013709902265831,-0.9558329729342762,-0.8889860077949554,-3.2860952984708067
7.004151572536489,-1.073216937333487,-0.9218469607796634,-3.2065955368320003
6.993419403163154,-1.186256070540666,-0.9539129161479835,-3.1251626588529704
6.981556842457747,-1.2948669418874297,-0.9851645427365132,-3.0413389098386
6.968608173038873,-1.398960857176938,-1.0155779318348992,-2.9547196470901587
6.954618564467103,-1.4984497165333668,-1.0451251283058007,-2.864952753399763
6.939634067301769,-1.5932513993090351,-1.0737746558397983,-2.771738195173463
6.923701553308679,-1.6832946608854258,-1.101492037791533,-2.674827569527851
6.906868606699825,-1.768523521978331,-1.1282403134868115,-2.5740235078790574
6.8891833714800415,-1.8489011301983866,-1.153980548565602,-2.4691788262280476
6.8706943601780575,-1.924413075643339,-1.1786723368278826,-2.360195334345673
6.851450229421624,-1.9950701466616116,-1.2022742901713395,-2.2470222371756314
6.831499527955008,-2.060910518082184,-1.2247445125430958,-2.129654081818694
6.810890422774186,-2.12200137165183,-1.2460410533612827,-2.0081282222866377
6.789670409057668,-2.1784399567263026,-1.266122335584149,-1.8825217917127124
6.767886009490405,-2.2303541080759066,-1.2849475535012762,-1.7529481878104993
6.745582468409646,-2.2779022467102195,-1.3024770353793813,-1.6195530920399253
6.722803445942544,-2.321272898678986,-1.3186725662997805,-1.4825100561182116
6.699590716955754,-2.3606837756736927,-1.3334976668609626,-1.3420157011208915
6.675983879199017,-2.3963804697486104,-1.3469178238721715,-1.1982845843131569
6.652020074501531,-2.428634822395871,-1.358900669715303,-1.0515437968276715
6.627733726277572,-2.4577430353135337,-1.3694161076835798,-0.902027361096269
6.603156295924437,-2.484023596238869,-1.3784363812945424,-0.7499705002533487
6.578316059962049,-2.5078150979075766,-1.3859360862970758,-0.5956038522752992
6.553237908982973,-2.529474031276608,-1.3918921248198288,-0.4391476991891238
6.527943168670206,-2.5493726353776114,-1.39628360181172,-0.28080627619090753
6.50244944231643,-2.5678968853629143,-1.399091664573629,-0.12076221706608445
6.476770473462801,-2.585444697334342,-1.40029928674429,0.04082881875435901
6.450916026489457,-2.602424423313053,-1.3998909985567465,0.2038433051990766
6.424891782256327,-2.6192537021126903,-1.3978525655047558,0.3681947763542526
6.3986992452352,-2.6363587217177575,-1.3941706177412132,0.533838516452493
6.372335658018022,-2.6541739356043754,-1.3888322325766882,0.7007760198798157
6.345793918661978,-2.673142258377965,-1.38182447237789,0.8690592346617823
6.319062496078199,-2.693715743476241,-1.3731338800312722,1.0387946011650213
6.292125338643436,-2.7163567145837915,-1.362745934019622,1.2101468825493136
6.264961771497599,-2.741539277953047,-1.3506444651941287,1.3833427472571451
6.2375463787180685,-2.7697510771029124,-1.3368110377215572,1.5586739950604631
6.20984886794704,-2.801495051729321,-1.3212242977709525,1.736500199237839
6.1818339174297465,-2.8372908091913542,-1.3038592957785742,1.9172503409192594
6.153461009337833,-2.877674978544788,-1.2846867923693817,2.1014226949047905
6.124684259552385,-2.923199545752304,-1.2636725654203338,2.289581723420395
6.095452264094862,-2.9744265912198316,-1.2407767481861298,2.4823499445126607
6.065707998182664,-3.0319169581187544,-1.2159532487410032,2.680391514211274
6.0353888286014765,-3.0962090156016853,-1.1891493335988905,2.884382378758218
6.00442673844546,-3.16778163599059,-1.1603055098113084,3.0949590230747046
5.972748922085554,-3.2469925395184576,-1.1293559195805614,3.3126337265017756
5.9402789966903695,-3.3339791046974208,-1.0962295823155437,3.5376585918076415
5.906939205643395,-3.4285037966406846,-1.0608529963974673,3.769813699928241
5.872654167676989,-3.529721834481707,-1.023154859398185,4.0080883505371485
5.837356949332172,-3.63584857335068,-0.9830739758928134,4.250223970276045
5.800998463598665,-3.7437176801721774,-0.940571736190053,4.492105912004238
5.763561286796944,-3.8482664054734075,-0.8956506770700106,4.727053912706779
5.72507862274221,-3.942085858183779,-0.8483801379429428,4.94520197294029
5.685657764160372,-4.015342659179173,-0.7989281182135398,5.133392547553432
5.645504337568581,-4.0565475620707945,-0.7475941927380055,5.276244953709414
5.604938861947873,-4.054589982688662,-0.6948317432009115,5.358977543457917
5.564392962120986,-4.001853898481554,-0.6412419677663322,5.371720268037301
5.52437442313617,-3.8971427074638227,-0.5875247650859592,5.313539402691193
5.4854029960615325,-3.7465520949811335,-0.5343893710590473,5.193586689433312
5.447937475111721,-3.5614780884342063,-0.48245350416471416,5.028262874946055
5.412322694227379,-3.354984070911714,-0.4321708754152536,4.836127769687926
5.378772853518262,-3.138634410917665,-0.38380959771837436,4.633501159109432
5.347386509409085,-2.9209592763967787,-0.33747458612728004,4.43236107019406
5.318176916645117,-2.7073731637364307,-0.29315097542533947,4.240270060018365
5.291103185007753,-2.5008184298837906,-0.2507482748251558,4.061301491861009
5.266095000708915,-2.3025487930582202,-0.21013525990654575,3.8971485273035475
5.243069512778333,-2.112780546982252,-0.17116377463351026,3.7480394716110275
5.221941707308511,-1.9311504881086425,-0.13368337991739998,3.613378181531417
5.202630202427424,-1.757008520296061,-0.0975495981020858,3.4921512408748057
5.185060117224464,-1.5895928128235075,-0.06262808569333775,3.383170248824999
5.169164189096229,-1.4281290079020252,-0.028796383205087754,3.2852078990400524
5.154882899017209,-1.271882996529724,0.004055695785312771,3.197069388712892
5.142164069051912,-1.1201864057725324,0.03602638967244169,3.1176260084196095
5.130962204994186,-0.9724465902860076,0.06720264975663778,3.045827414944575
5.121237739091327,-0.8281481609740122,0.09766092390608354,2.9807024136575277
5.112956257481587,-0.686850143809748,0.12746794804265882,2.921353967604081
5.10608775604349,-0.5481810952804269,0.15668148771869964,2.866951688873885
5.1006059450906855,-0.41183345804653815,0.18535100460743847,2.8167236191552134
5.09648761051022,-0.27755783317792165,0.21351824079899062,2.7699482653982277
5.09371203217844,-0.14515749667963143,0.2412177234529729,2.7259473747469745
5.092260457211644,-0.014483291513948976,0.26847719720044266,2.68407966133914
5.092115624296505,0.11457108123670048,0.29531799381383406,2.6437355478926046
5.093261335108872,0.24207340429781346,0.3217553492927601,2.6043329052180977
5.0956820691518505,0.36805697751478655,0.3477986783449411,2.5653137324718305
5.099362638926999,0.49252440987725865,0.3734518156696594,2.5261417023463744
5.104287883025771,0.6154512370469895,0.39871323269312314,2.4863004882254374
5.110442395396241,0.7367894253952814,0.42357623757537755,2.445292788732424
5.117810289650194,0.8564708150226267,0.4480291654627018,2.402639965806469
5.12637499780042,0.9744105443937299,0.47205556512076646,2.3578822136867643
5.136119103244358,1.0905104889108723,0.4956343872576341,2.3105791771099886
5.147024208133467,1.2046627354613975,0.5187401790287339,2.26031093727587
5.159070835488081,1.3167531050165469,0.5413432884014926,2.2066792836551974
5.172238366538247,1.4266647259351743,0.5634100812380446,2.1493091886077433
5.186505013797599,1.5342816518942526,0.584903173124122,2.0878504002337523
5.201847830316542,1.63949251046548,0.6057816771264595,2.0219790671316558
5.218242755421197,1.7421941614168683,0.626001467797776,1.951399307023116
5.235664697035365,1.8422953379797486,0.6455154608680072,1.8758446297867097
5.254087650415163,1.9397202397384075,0.6642739071658742,1.7950791245668458
5.273484852812547,2.0344120426427583,0.6822246984115427,1.7088983205466004
5.293828973238974,2.12633629010514,0.6993136816170087,1.6171296319377249
5.315092336140026,2.2154841294295,0.7154849779363859,1.5196322999782874
5.337247177434321,2.3018753601548574,0.7306813009361688,1.4162967484361624
5.36026593103587,2.3855612654926124,0.7448442684205304,1.3070432744355749
5.384121543690796,2.466627205093792,0.7579147011648861,1.1918200034057993
5.408787815741734,2.545194957042943,0.7698329011989441,1.0706000455234315
5.434239765312164,2.6214248093034693,0.7805389016541784,0.9433778009538354
5.460454013405198,2.695517415780965,0.7899726796637168,0.8101643720892586
5.487409187563008,2.7677154495183602,0.7980743233846094,0.6709820522555778
5.515086342058192,2.8383051048881636,0.8047841439071651,0.5258578713137636
5.543469393107073,2.9076175213627913,0.8100427226203027,0.37481618848428117
5.572545568320701,2.9760302225813207,0.8137908845051456,0.2178703309898805
5.602305870546513,3.043968684636282,0.8159695878150444,0.055013283599100155
5.632745557392877,3.1119081648141673,0.8165197206510354,-0.11379256039637958
5.663864639041019,3.1803759334982633,0.8153817950470716,-0.28862656948167603
5.695668398376001,3.2499540529964186,0.8124955293522549,-0.4696219350871824
5.728167938905965,3.321282830265652,0.807799310001383,-0.6569785641353323
5.761380767208622,3.395065023519203,0.8012295243600297,-0.850976681280893
5.795331417443814,3.4720707846260437,0.7927197575472208,-1.0519908940711462
5.8300521252900745,3.553143134401076,0.7821998486065094,-1.2605042352377198
5.8655835566340855,3.639203435337951,0.7695948062541321,-1.4771212564381047
5.901975590987465,3.7312557417659296,0.754823593689751,-1.7025784592553304
5.939288148405125,3.830387893295078,0.7377978090971977,-1.937748962047805
5.977592027338075,3.9377654743530295,0.7184203194767197,-2.1836358952263972
6.016969682081606,4.054611794395884,0.6965839605244557,-2.44134489832021
6.0575158000255644,4.182162053961595,0.6721705115412536,-2.7120191477542415
6.09933742056518,4.321571652621858,0.6450503200637112,-2.9967089027311022
6.142553137091399,4.473745595075497,0.6150832310364002,-3.29612943111723
6.187290593042154,4.639036814293436,0.5821219367252278,-3.610234507741275
6.2336809611850885,4.816737192790414,0.5460195916478151,-3.937499249993499
6.281848333112992,5.0042668371109205,0.5066445991478801,-4.273780987546155
6.3318910014841014,5.1959910408939765,0.4639067892724185,-4.61066122978918
6.383850911893041,5.381748915654907,0.4178001769745267,-4.933390077929947
6.43766840104959,5.545611604941599,0.3684662761952272,-5.219165436604861
6.493124517099006,5.666171725463112,0.3162746218291786,-5.437580972933615
6.549786234353637,5.7202882553385965,0.26189881209984245,-5.555947810508781
6.606989116907023,5.691035261565059,0.20633933399475463,-5.550530211785
6.663899469522674,5.5763863175638235,0.1508340318769046,-5.418792558326233
6.719663332698312,5.39158972450723,0.09664610629364229,-5.18272723683043
6.773579229943384,5.162240051914628,0.04481883392533799,-4.879054393002703
6.82520163046253,4.913804917743708,-0.003971710004689044,-4.54441666928232
6.874339679639967,4.665048907382152,-0.04941587669751225,-4.2060584371147405
6.920990168713789,4.42696367161785,-0.09147646106865964,-3.8802663444533523
6.965259805429968,4.204609217400109,-0.13027912451319318,-3.574926606294993
7.007305897603969,3.9993933356215514,-0.1660283905761431,-3.2927181555454714
7.047299830960184,3.8107851593755324,-0.1989555721315978,-3.03352283793079
7.08540768255394,3.637368492153915,-0.22929080051090572,-2.795913431572042
7.121781367475479,3.477419459647701,-0.25724993482662617,-2.5779746751116117
7.156555562071956,3.329196941940305,-0.2830296815777423,-2.3777200254643405
7.189847531491359,3.19107463812669,-0.3068068818323857,-2.1932843826695025
7.221758277872626,3.061590857949869,-0.3287397256590807,-2.022999545933672
7.2523741864521245,2.93945786445623,-0.34896972111841745,-1.8654113024201744
7.281768765096687,2.8235527920409944,-0.3676238341426192,-1.7192693325173738
7.310004293017097,2.712901349491309,-0.38481652746779293,-1.5835059352994316
7.33713330651201,2.606659791441008,-0.4006515868207873,-1.4572115128476406
7.36319990442642,2.5040976748493824,-0.41522370194926367,-1.3396105534763094
7.388240881174914,2.404582413254526,-0.4286198074840268,-1.2300397102413114
7.4122867053074595,2.3075659026613167,-0.4409202045864399,-1.1279285052734513
7.435362364334073,2.2125731492854586,-0.4521994896391744,-1.0327826836942744
7.457488095826927,2.1191926868089985,-0.4625273164761171,-0.9441700199143993
7.478680022695017,2.0270685279450094,-0.4719690166752611,-0.8617083008806996
7.498950707974467,1.9358933994337757,-0.48058609968406807,-0.7850552008913074
7.518309641968805,1.8454030342087013,-0.4884366516929811,-0.7138997826790255
7.536763672310892,1.7553713259030286,-0.4955756495197714,-0.6479553903480871
7.554317385569922,1.665606182626803,-0.5020552034232523,-0.586953732177592
7.57097344739619,1.5759459461305563,-0.5079247407450282,-0.5306399811874877
7.586732906857495,1.4862562680056097,-0.5132311405569031,-0.47876874723605317
7.601595469537552,1.3964273562530047,-0.5180188280292637,-0.43110079609960456
7.615559743100081,1.3063715235908715,-0.5223298359902597,-0.3874004088691104
7.62862345833599,1.216020983632994,-0.5262038400789508,-0.34743328968803394
7.64078366817232,1.1253258529734196,-0.5296781729758312,-0.31096494198126273
7.6520369267020545,1.0342523266577934,-0.5327878223956438,-0.2777594434574405
7.662379449968633,0.9427810018851889,-0.5355654168302182,-0.24757855878385585
7.671807259987484,0.850905330400347,-0.5380412024180568,-0.2201811363107145
7.680316313291487,0.758630184203707,-0.5402430137811639,-0.19532274184166323
7.687902615133525,0.6659705221886516,-0.5421962411995805,-0.17275548840885224
7.694562320355411,0.5729501473433114,-0.543923796083669,-0.1522280264446423
7.700291821828844,0.4796005454302569,-0.5454460763481155,-0.13348566372594892
7.705087827283147,0.38595979675700787,-0.546780932985375,-0.11627058903888472
7.708947425250717,0.29207155292453885,-0.5479436388757638,-0.10032217768024537
7.711868140779962,0.19798407041836513,-0.5489468606525663,-0.08537736066926281
7.713847981484146,0.10374929269517896,-0.5498006342592588,-0.0711710428677207
7.714885474411098,0.009421972106385665,-0.5505123446879361,-0.057436558073558165
7.714979694132162,-0.08494117733972933,-0.5510867102686716,-0.043906151536082974
7.714130282358765,-0.17928230568633524,-0.5515257717840325,-0.030311482215327597
7.712337459301901,-0.273543240755036,-0.5518288866061858,-0.016384138453178064
7.709602026894351,-0.36766629957598146,-0.5519927279907175,-0.0018561615239213423
7.705925363898591,-0.4615951072196712,-0.5520112896059567,0.013539428223232357
7.701309412826395,-0.5552754326117546,-0.5518758953237244,0.030068108231069278
7.695756658500277,-0.6486560506647377,-0.5515752142414136,0.04799334008214211
7.68927009799363,-0.7416896396945964,-0.5510952808405922,0.06757607321493508
7.681853201596684,-0.8343337226284941,-0.5504195201084429,0.08907427584109026
7.6735098643703985,-0.9265516599866689,-0.5495287773500319,0.11274250534590444
7.6642443477705315,-1.0183137020847997,-0.5484013522965728,0.13883153337648005
7.654061210749684,-1.1095981074150185,-0.547013036962808,0.16758804417851658
