th1 (rad),w1 (rad/s),th2 (rad),w2 (rad/s),a1 (rad/s^2),a2 (rad/s^2)
1.8970169844269724,-0.06788292071318586,4.474625428218509,2.0085743441170942,-6.503968622330439,4.025122590955494
1.8963381552198406,-0.13292260693649025,4.49471117165968,2.0488255700266493,-6.484721091697721,4.008364447565541
1.8950089291504757,-0.19776981785346745,4.5151994273599465,2.088909214502305,-6.481203962233291,3.970612249495137
1.893031230971941,-0.2625818574758004,4.536088519504969,2.1286153369972562,-6.495045405747863,3.9106324488497775
1.890405412397183,-0.327532311533279,4.557374672874942,2.167721661485754,-6.527949843051395,3.8270829760458978
1.88713008928185,-0.39281180996379295,4.579051889489799,2.2059924912462128,-6.581656183970154,3.718567840235558
1.883201971182212,-0.4586283718034945,4.601111814402261,2.2431781696485684,-6.657877915002053,3.5837174234773137
1.878615687464177,-0.525207150953515,4.623543596098746,2.2790153438833416,-6.758221136185769,3.4213002207509526
1.8733636159546418,-0.5927893623153727,4.64633374953758,2.313228346090851,-6.884076985194094,3.230371444961452
1.8674357223314881,-0.6616301321673137,4.669466032998488,2.3455320605404655,-7.03648597619606,3.010462563402693
1.860819421009815,-0.7319949919292743,4.692921353603893,2.3756366861744924,-7.215973950518686,2.761812992304343
1.8534994710905224,-0.8041547314344611,4.716677720465638,2.4032548160975358,-7.4223629109898175,2.4856403700696217
1.8454579237761777,-0.8783783605443594,4.740710268626613,2.428111219798232,-7.654565218296553,2.184438699214434
1.836674140170734,-0.9549240127273249,4.764991380824596,2.4499556067903763,-7.910376438755639,1.8622841671344885
1.8271249000434608,-1.0340277771148814,4.789490936892499,2.468578448461721,-8.186290067366322,1.525117219916063
1.816784622272312,-1.1158906777885447,4.814176721377117,2.483829620660882,-8.477365268362778,1.1809579810754514
1.8056257154944266,-1.2006643304721725,4.839015017583725,2.4956392004716363,-8.777184763950435,0.8400029924702477
1.793619072189705,-1.2884361781116769,4.863971409588442,2.504039230396339,-9.077941480500732,0.5145481146572075
1.7807347104085882,-1.3792155929166843,4.889011801892405,2.509184711542911,-9.370686756212075,0.21868924336346174
1.7669425544794213,-1.472922460478805,4.914103649007834,2.5113716039765457,-9.645757753216513,-0.032227579682134085
1.7522133298746332,-1.5693800380109701,4.9392173650475995,2.511049328179724,-9.893377014723738,-0.2224014192609318
1.7365195294945235,-1.6683138081582076,4.964327858329397,2.508825313987115,-10.104385629724202,-0.33656783361716663
1.7198363914129413,-1.7693576644554496,4.989416111469268,2.505459635650943,-10.27103925871637,-0.361090935219203
1.7021428147683868,-1.8720680570426134,5.014470707825778,2.501848726298751,-10.387771686318546,-0.28502374364381106
1.6834221341979607,-1.9759457739057988,5.039489195088765,2.498998488862313,-10.45182189110411,-0.10098870555544123
1.6636626764589026,-2.08046399281684,5.064479179977388,2.4979886018067585,-10.463632985325306,0.19425644699257652
1.6428580365307341,-2.1851003226700927,5.089459065995456,2.499931166276684,-10.426964222237002,0.5996598133617763
1.6210070333040332,-2.2893699648924626,5.114458377658223,2.505927764410302,-10.348703787817756,1.1101526139945233
1.5981133336551085,-2.39285700277064,5.139517655302326,2.5170292905502474,-10.238419156589494,1.7173232013307735
1.5741847636274022,-2.495241194336535,5.1646879482078285,2.534202522563555,-10.107721683891086,2.41039067022008
1.549232351684037,-2.596318411175446,5.190029973433464,2.558306429265756,-9.969544421341777,3.1773467602357695
1.5232691675722825,-2.6960138553888635,5.215613037726121,2.5900798968681134,-9.837434134921558,4.006128990619158
1.4963090290183938,-2.7943881967380793,5.241513836694803,2.630141186774305,-9.724943123221982,4.885707647460958
1.468365147051013,-2.891637627970299,5.267815248562545,2.6789982632489147,-9.645180390691928,5.807005777113828
1.4394487707713102,-2.9880894318772184,5.2946052311950345,2.737068321020053,-9.61055278845823,6.763614250277929
1.409567876452538,-3.084194959761801,5.321975914405235,2.804704463522832,-9.63270138287714,7.7523041688704675
1.37872592685492,-3.1805219735905723,5.350022959040463,2.882227505211537,-9.722620529774998,8.7733706393245
1.3469207071190141,-3.2777481788883223,5.378845234092578,2.9699612116047818,-9.89093828513603,9.83086318486098
1.3141432253301308,-3.3766575617396826,5.408544846208626,3.0682698434533915,-10.148336268352734,10.932769756640289
1.280376649712734,-3.4781409244232098,5.43922754464316,3.1775975410197943,-10.506093260021455,12.09122617299274
1.245595240468502,-3.5832018570234245,5.471003520053357,3.298509802749722,-10.976747770834583,13.322824267794923
1.2097632218982677,-3.6929693347317705,5.503988618080855,3.431738045427671,-11.57488893186672,14.649093257800418
1.17283352855095,-3.8087182240504376,5.538305998535131,3.5782289780056753,-12.318101082889973,16.09723222735148
1.1347463463104455,-3.9318992348793373,5.574088288315188,3.73920130027919,-13.228104187724592,17.701178144854275
1.0954273539616521,-4.064180276756583,5.611480301317981,3.9162130817277325,-14.332147576108413,19.50310187194547
1.0547855511940862,-4.2075017525176674,5.650642432135258,4.111244100447188,-15.664723189986697,21.555427243144244
1.0127105336689095,-4.364148984417534,5.69175487313973,4.32679837287863,-17.26965276275773,23.923446276195097
0.9690690438247341,-4.536845512045112,5.735022856868516,4.5660328356405815,-19.20253685557813,26.688508856236616
0.9237005887042831,-4.728870880600893,5.780683185224922,4.832917924202947,-21.533348751165146,29.9514810558569
0.8764118798982742,-4.944204368112545,5.829012364466951,5.132432734761516,-24.3484113756451,33.835411663780576
0.8269698362171487,-5.187688481868996,5.880336691814566,5.470786851399322,-27.749628181406752,38.48444817544205
0.7750929513984588,-5.465184763683063,5.935044560328559,5.855631333153743,-31.84550324011678,44.05139965016524
0.7204411037616282,-5.783639796084231,5.993600873660096,6.296145329655395,-36.72052447615803,50.655233461411356
0.6626047058007859,-6.1508450408458115,6.05656232695665,6.802697664269508,-42.35114972114972,58.264149681980804
0.6010962553923278,-6.574356538057309,6.124589303599345,7.385339161089316,-48.397884592462724,66.40555519355057
0.5353526900117547,-7.058335383981936,6.198442695210238,8.049394713024823,-53.73946019942145,73.51498993377099
0.46476933617193533,-7.59572998597615,6.278936642340486,8.784544612362533,-55.6048351070871,75.72064999329571
0.3888120363121738,-8.151778337047022,6.366782088464111,9.54175111229549,-48.66024857614949,65.56156110685586
0.3072942529417036,-8.638380822808516,6.462199599587066,10.197366723364048,-26.534314742514567,34.11753467401922
0.22091044471361843,-8.903723970233662,6.564173266820707,10.53854207010424,9.802155579745072,-17.2619190008061
0.1318732050112818,-8.805702414436212,6.669558687521749,10.365922880096178,44.144028140839694,-65.9367688371401
0.043816180866919685,-8.364262133027815,6.773217916322711,9.706555191724778,60.0199114198599,-88.94756466544213
-0.03982644046335847,-7.764063018829216,6.8702834682399585,8.817079545070357,59.08722071244194,-88.64369387479931
-0.11746707065165063,-7.173190811704796,6.958454263690662,7.930642606322364,51.16317865695169,-78.68738428196514
-0.1891989787686986,-6.661559025135279,7.037760689753886,7.143768763502712,42.298275757286554,-67.46573664829738
-0.2558145690200514,-6.238576267562413,7.109198377388913,6.469111397019739,34.522561662364446,-57.780209984050224
-0.3182003316956755,-5.8933506509387685,7.173889491359111,5.8913092971792365,28.159470481297163,-50.07131300759164
-0.3771338382050632,-5.611755946125797,7.232802584330903,5.39059616710332,23.03485806000673,-44.09385551328063
-0.43325139766632115,-5.38140736552573,7.286708546001936,4.949657611970514,18.892277816182414,-39.489273171432146
-0.48706547132157846,-5.192484587363905,7.336205122121641,4.554764880256192,15.506592043368167,-35.94076514926987
-0.5389903171952175,-5.037418666930224,7.381752770924203,4.195357228763493,12.70356445678019,-33.19903380633598
-0.5893645038645198,-4.910383022362422,7.423706343211838,3.8633668907001333,10.35438465036212,-31.073784557038888
-0.638468334088144,-4.8068391758588005,7.4623400121188395,3.5526290451297444,8.365804140149907,-29.419408959012994
-0.686536725846732,-4.723181134457302,7.497866302570137,3.2584349555396144,6.671349174607414,-28.122347844814676
-0.733768537191305,-4.6564676427112275,7.530450652125533,2.9772114770914677,5.224552944562232,-27.09146384203661
-0.7803332136184172,-4.604222113265605,7.560222766896448,2.7062968386711015,3.993942273419882,-26.251139278363134
-0.8263754347510732,-4.564282690531406,7.587285735283159,2.44378544588747,2.959293956929601,-25.536544475661156
-0.8720182616563873,-4.53468975096211,7.611723589742034,2.1884200011308588,2.1087246151307175,-24.89059866871028
-0.9173651591660084,-4.513602504810803,7.633607789753343,1.939514014443756,1.436282556321357,-24.26227181838357
-0.9625011842141163,-4.499239679247589,7.653002929897781,1.6968912962599203,0.939815544650204,-23.60596714516275
-1.0074935810065921,-4.489841523801087,7.66997184286038,1.4608316248082929,0.6189852608940125,-22.881764865652602
-1.0523919962446031,-4.483651671192147,7.684580159108463,1.2320139761517668,0.4733880338802953,-22.056303015764076
-1.0972285129565247,-4.478917790853345,7.696900298869981,1.011450945994126,0.5008202678719038,-21.104037091889406
-1.142017690865058,-4.473909588174625,7.707014808329922,0.8004105750752321,0.6957889333136483,-20.008579025606952
-1.1867567867468043,-4.466951698841489,7.715018914080675,0.6003247848191625,1.0484019599259606,-18.763793734423405
-1.231426303735219,-4.456467679242229,7.721022161928866,0.41268684747492845,1.5437706272970677,-17.37435161810922
-1.2759909805276415,-4.441029972969258,7.725149030403616,0.23894333129383624,2.162012762509231,-15.855510728938963
-1.3204012802573342,-4.419409845344166,7.727538463716554,0.08038822400444662,2.8788690395432504,-14.232028403922374
-1.3645953787107759,-4.390621154948733,7.728342345956599,-0.06193206003477714,3.6668531186423374,-12.536255731410002
-1.4085015902602631,-4.35395262376231,7.727723025356251,-0.18729461734887715,4.496774026802108,-10.805613880917093
-1.4520411164978861,-4.308984883494289,7.725850079182763,-0.29535075615804807,5.3394181801445,-9.079753601092255
-1.495130965332829,-4.255590701692844,7.722896571621183,-0.3861482921689706,6.167170896162905,-7.397735466514269
-1.5376868723497574,-4.193918992731215,7.719035088699493,-0.4601256468341133,6.955391544910565,-5.795536317990339
-1.5796260622770695,-4.124365077282109,7.714433832231152,-0.5180810100140166,7.683419347961694,-4.304103424999187
-1.6208697130498906,-4.047530883802492,7.709253022131012,-0.5611220442640085,8.335159446491364,-2.9480696578049956
-1.6613450218879156,-3.964179289337578,7.703641801688372,-0.5906027408420584,8.899263928884231,-1.7451380843001119
-1.7009868147812914,-3.8751866500487355,7.697735774279951,-0.6080541216850596,9.368969036598868,-0.7060627045896521
-1.7397386812817788,-3.781496959682747,7.6916552330631,-0.6151147487309561,9.741674349670838,0.16489779138496155
-1.7775536508786063,-3.684080216186038,7.685504085575791,-0.6134657708171064,10.018355002191745,0.8691953692782272
-1.8143944530404668,-3.583896666164121,7.67936942786762,-0.6047738171243241,10.202889664186896,1.413014453248849
-1.850233419702108,-3.481867769522252,7.673321689696377,-0.5906436725918356,10.301371416414355,1.8062179869890256
-1.8850520973973306,-3.3788540553581083,7.667415252970459,-0.5725814927219454,10.32145082212504,2.0613093339982136
-1.9188406379509118,-3.275639547136858,7.66168943804324,-0.5519683993819632,10.271743754514105,2.19247460023272
-1.9515970334222803,-3.172922109591717,7.6561697540494205,-0.530043653379636,10.161322506231343,2.2147456856746217
-1.9833262545181976,-3.071308884529403,7.650869317515624,-0.5078961965228898,9.999297850260298,2.1433044111172235
-2.0140393433634918,-2.9713159060268004,7.645790355550395,-0.4864631524117175,9.794491841479434,1.9929327728724868
-2.04375250242376,-2.873370987612006,7.640925724026278,-0.46653382468299265,9.555195774815024,1.7776034263027576
-2.07248621229988,-2.777819029863856,7.636260385779448,-0.44875779041996505,9.289004335402238,1.5101972746490702
-2.1002644025985187,-2.6849289865098336,7.631772807875249,-0.43365581767347433,9.002715132459576,1.2023308538196094
-2.127113692463617,-2.594901835185238,7.627436249698515,-0.4216325091352782,8.702282126340284,0.8642743926455698
-2.1530627108154694,-2.507879013921835,7.623219924607162,-0.4129897652088225,8.392811632244026,0.5049413893213482
-2.1781415009546876,-2.423950897599395,7.619090026955074,-0.407940351315609,8.078590361702616,0.1319317490713611
-2.2023810099306815,-2.3431649939823687,7.6150106234419175,-0.4066210338248954,7.763136131623271,-0.24838747651088164
-2.2258126598705053,-2.265533632666136,7.6109444131036685,-0.4091049085900042,7.449263252460215,-0.6307772936466844
-2.2484679961971668,-2.1910410001415337,7.606853364017769,-0.41541268152647104,7.139156057828618,-1.011008917186961
-2.270378406198582,-2.1196494395632475,7.602699237202504,-0.42552277069834066,6.834445447450102,-1.3857414141575928
-2.2915749005942145,-2.0513049850887466,7.598444009495521,-0.4393801848399166,6.536284606784504,-1.7524011553056726
-2.312087950445102,-1.9859421390209016,7.594050207647121,-0.4569041963929733,6.245421193378351,-2.1090674650836405
-2.331947371835311,-1.9234879270871181,7.589481165683191,-0.4779948710438097,5.962264220682497,-2.454367272865591
-2.351182251106182,-1.8638652848802932,7.584701216972753,-0.5025385437724657,5.686944623407295,-2.787380313480842
-2.369820903954985,-1.8069958386462204,7.579675831535028,-0.5304123469072741,5.419369066693061,-3.107555475859222
-2.387890862341447,-1.7528021479792897,7.574371708065955,-0.5614879016658664,5.1592669851233035,-3.414638214192311
-2.4054188838212403,-1.7012094781280567,7.568756829049296,-0.5956342838077895,4.9062311314740805,-3.7086084708833895
-2.4224309786025207,-1.6521471668133159,7.562800486211218,-0.6327203685166234,4.659752104299808,-3.989628269447
-2.4389524502706537,-1.6055496457703178,7.556473282526052,-0.6726166512110934,4.4192474316913035,-4.257997977044608
-2.4550079467283568,-1.5613571714534047,7.549747116013941,-0.7151966309815394,4.184085836691556,-4.514120174799106
-2.470621518442891,-1.519516313086489,7.542595149704125,-0.7603378327295305,3.9536073154437497,-4.758470080017608
-2.485816681573756,-1.4799802399320516,7.53499177137683,-0.8079225335297066,3.7271396362739,-4.991571514723201
-2.5006164839730762,-1.4427088435693127,7.526912546041532,-0.8578382486769386,3.5040118274902237,-5.213977491753416
-2.515043572408769,-1.4076687252944105,7.518334163554763,-0.9099780235944728,3.2835651718436303,-5.426254580153194
-2.5291202596617133,-1.3748330735759742,7.509234383318818,-0.9642405693960047,3.065162172152151,-5.62897030655121
-2.542868590397473,-1.3441814518544526,7.499591977624858,-1.0205302724615168,2.848193899502135,-5.822682942562954
-2.5563104049160175,-1.3156995128594313,7.489386674900243,-1.0787571018871465,2.6320860852156684,-6.00793311621372
-2.5694674000446116,-1.2893786520072745,7.478599103881371,-1.1388364330492837,2.4163042718462324,-6.185236765814125
-2.5823611865646843,-1.2652156092888123,7.467210739550878,-1.200688800707425,2.2003582974665834,-6.3550790267564095
-2.5950133426575723,-1.2432120263141464,7.4552038515438035,-1.264239590974989,1.9838063515067883,-6.517908705278933
-2.607445462920714,-1.2233739627990785,7.442561455634054,-1.3294186780277784,1.7662588090491558,-6.674133048881607
-2.6196792025487046,-1.205711374708587,7.429267268853776,-1.3961600085165944,1.5473820231747841,-6.824112571650123
-2.6317363162957905,-1.190237554476839,7.41530566876861,-1.4644011342330956,1.3269022308748917,-6.968155735381179
-2.6436386918405588,-1.1769685321680903,7.400661657426279,-1.5340826915869075,1.1046097062423144,-7.106513325363661
-2.6554083771622397,-1.1659224351056672,7.38532083051041,-1.605147824840544,0.8803632740913274,-7.2393723943292
-2.6670676015132964,-1.1571188023647538,7.3692693522620045,-1.6775415487838359,0.6540952766782836,-7.366849680875075
-2.6786387895369437,-1.150577849597971,7.352493936774166,-1.7512100455925865,0.42581706459167373,-7.488984441074649
-2.6901445680329235,-1.1463196789520542,7.3349818363182395,-1.826099890003333,0.19562505885698397,-7.605730665562386
-2.701607764822444,-1.1443634283634845,7.316720837418206,-1.9021571966589568,-0.03629259649802413,-7.716948690686462
-2.713051399106079,-1.1447263543284647,7.297699265451617,-1.9793266835658214,-0.2696488051545174,-7.822396252956565
-2.7244986626493635,-1.14742284238001,7.277905998615958,-2.057550646095387,-0.5040497658131705,-7.9217190825518395
-2.7359728910731635,-1.1524633400381417,7.257330492155004,-2.1367678369209053,-0.7389867970016287,-8.01444118559595
-2.747497524473545,-1.159853208008158,7.235962813785795,-2.2169122487768647,-0.9738278970977113,-8.099955027578249
-2.7590960565536267,-1.169591486979135,7.213793691298027,-2.297911799052647,-1.207809264364647,-8.177511902722499
-2.770791971423418,-1.1816695796227816,7.190814573307501,-2.379686918079872,-1.4400270797109302,-8.246212856795934
-2.782608667219646,-1.196069850419891,7.167017704126702,-2.4621490466478315,-1.669429943568057,-8.305000623584352
-2.794569365723845,-1.2127641498555715,7.142396213660224,-2.545199052883675,-1.894812456702008,-8.352653136746984
-2.8066970072224007,-1.2317122744225915,7.116944223131387,-2.628725584251145,-2.114810540616429,-8.387779286294053
-2.8190141299666265,-1.2528603798287556,7.090656967288876,-2.7126033771140854,-2.3278992024514498,-8.408817697946624
-2.831542733764914,-1.27613937185327,7.063530933517735,-2.7966915540935515,-2.532393555806532,-8.414039417325238
-2.8443041274834466,-1.3014633074113353,7.0355640179767995,-2.880831948266804,-2.72645400410091,-8.401555469808967
-2.85731876055756,-1.3287278474523445,7.006755698494132,-2.9648475029648935,-2.908096565534052,-8.369330328639808
-2.8706060390320833,-1.357808813107685,6.977107223464483,-3.0485408062512915,-3.0752093541663306,-8.315202343113851
-2.8841841271631603,-1.3885609066493485,6.946621815401969,-3.13169282968243,-3.2255762132419146,-8.23691213759727
-2.8980697362296537,-1.4208166687817676,6.915304887105145,-3.2140619510584028,-3.3569084058764087,-8.132139870993807
-2.9122779029174715,-1.4543857528405317,6.883164267594561,-3.2953833497683407,-3.466885085364917,-7.998552025344491
-2.926821760445877,-1.489054603694181,6.850210434096877,-3.3753688700217856,-3.553202974956163,-7.83385805378479
-2.9417123064828186,-1.5245866334437426,6.81645674539666,-3.4537074505596337,-3.6136352718147617,-7.635876749778154
-2.956958172817256,-1.56072298616189,6.781919670891063,-3.5300662180574154,-3.646099247021725,-7.402611598278906
-2.9725654026788746,-1.5971839786321074,6.746619008710489,-3.6040923340402045,-3.6487313500265603,-7.1323336456834285
-2.9885372424651955,-1.633671292132373,6.710578085370087,-3.675415670497039,-3.619967865369513,-6.823669607200293
-3.004873955386519,-1.6698709707860682,6.673823928665117,-3.7436523665690418,-3.5586283545381794,-6.475692066464342
-3.02157266509438,-1.70545725433145,6.636387404999426,-3.808409287233685,-3.4639983100344045,-6.088007783455908
-3.0386272376376944,-1.740097237431794,6.598303312127089,-3.8692893650682443,-3.33590673479536,-5.660839403242634
-3.056028210012012,-1.7734563047797476,6.559610418476407,-3.9258977591006707,-3.174793834516657,-5.195095353118967
-3.07376277305981,-1.8052042431249142,6.5203514408854,-3.9778487126318605,-2.9817637737798095,-4.692422535091257
-3.091814815491059,-1.8350218808627123,6.480572953759081,-4.024772937982773,-2.7586175903221046,-4.155236657448842
-3.110165034299686,-1.8626080567659333,6.4403252243792535,-4.066325304557261,-2.5078619507587225,-3.5867257665172243
-3.1287911148673455,-1.8876866762735205,6.399661971333681,-4.102192562222434,-2.2326904890039496,-2.990823753739839
