th1 (rad),w1 (rad/s),th2 (rad),w2 (rad/s)
4.043952848130023,0.4423638611756292,2.3379824755650516,2.2050323024357885
4.0483764867417795,0.4910031633065619,2.3600327985894096,2.142979145466074
4.053286518374845,0.5418193852975949,2.3814625900440705,2.082302942779139
4.058704712227821,0.5947344764735366,2.402285619471862,2.023036911895218
4.064652056992557,0.6496714164056749,2.422515988590814,1.9652291028636468
4.071148771156614,0.7065540885218726,2.4421682796194504,1.908942008615454
4.078214312041833,0.7653072192486812,2.461257699705605,1.8542521437536512
4.08586738423432,0.825856381270615,2.479800221143141,1.8012495933924373
4.094125948047027,0.888128057687803,2.4978127170770654,1.7500375341542653
4.1030072286239045,0.9520497622126439,2.5153130924186082,1.700731730072212
4.112527726246031,1.0175502090469717,2.5323204097193304,1.6534600068300747
4.122703228336501,1.08455952471011,2.5488550097876312,1.6083617084231698
4.133548823583602,1.1530094928366506,2.564938626871863,1.565587140869578
4.1450789185119685,1.222833821825037,2.5805944982805586,1.5252970079853834
4.157307256730219,1.293968424189169,2.5958474683604127,1.4876618444080008
4.170246940972111,1.3663516955400206,2.6107240868044927,1.4528614509663498
4.183910457927511,1.439924780296552,2.6252527013141562,1.42108433711953
4.198309705730477,1.5146318104875363,2.6394635446853516,1.3925271744866574
4.213456023835352,1.590420103349583,2.653388816430218,1.3673942644448358
4.229360224868848,1.6672403028417482,2.6670627590746667,1.3458970213601125
4.246032627897265,1.7450464496729232,2.6805217292882677,1.3282534712232803
4.263483092393995,1.8237959639636583,2.6938042640005007,1.3146877632801686
4.281721052033631,1.9034495242284868,2.7069511416333025,1.305429689673383
4.300755547275916,1.9839708259589628,2.7200054385300363,1.3007142051568763
4.320595255535506,2.0653262027051706,2.733012580581605,1.300780935624529
4.3412485175625575,2.1474840921930967,2.74602038993785,1.3058736605403918
4.362723358484488,2.2304143296832417,2.759079126543254,1.3162397504183583
4.3850275017813205,2.3140872504894587,2.7722415240474376,1.3321295363384218
4.408168374286215,2.3984725833683616,2.785562819410822,1.3537955841930063
4.432153100119899,2.4835381164103656,2.799100775252752,1.3814918420437339
4.456988481284002,2.5692481171892587,2.8129156936731894,1.415472624780274
4.482680962455895,2.6555614893630874,2.827070419920992,1.4559913963875664
4.509236577349526,2.7424296488035944,2.8416303338848676,1.5032993067649285
4.536660873837562,2.829794103840284,2.856663326952517,1.5576434374648924
4.564958814875965,2.917583726553667,2.8722397613271657,1.6192647092454886
4.594134652141501,3.0057117054950173,2.8884324084196207,1.688395404324394
4.624191769196451,3.094072175038022,2.9053163624628646,1.7652562581075446
4.655132490946832,3.182536523101073,2.92296892504394,1.8500530794088506
4.686957856177842,3.2709493875548574,2.9414694558380288,1.942972865292473
4.719667350053391,3.359124362584553,2.9608991844909536,2.044179387189743
4.753258593679236,3.4468394499201422,2.981340978362851,2.153808239403268
4.787726988178438,3.5338323064357566,3.0028790607568836,2.2719613600093984
4.823065311242796,3.6197953593074708,3.0255986743569774,2.3987010579251846
4.85926326483587,3.704370882725682,3.049585684936229,2.5340436088019933
4.896306973663127,3.787146155909408,3.074926121024249,2.6779525165367417
4.934178435222221,3.8676488504475035,3.1017056461896164,2.8303315763892076
4.972854923726696,3.94534282507926,3.1300089619535085,2.9910179194794893
5.012308351977489,4.019624536855282,3.1599191411483036,3.1597752659616187
5.052504597346042,4.089820307716543,3.1915168938079197,3.3362876641598866
5.093402800423207,4.15518471297077,3.2248797704495185,3.520154043696191
5.134954647552915,4.214900380507668,3.2600813108864806,3.7108839599370866
5.177103651357991,4.268079503911877,3.2971901504858514,3.9078949522570205
5.21978444639711,4.313767375356367,3.3362691000084217,4.110511976431038
5.262922120150674,4.350948231136223,3.377374219772732,4.317969398152059
5.306431602462037,4.3785536691957585,3.4205539137542527,4.529416045826259
5.350217139153994,4.395473838798531,3.465848074212515,4.743923811435299
5.39417187754198,4.40057151217245,3.513287312326868,4.960500252845773
5.438177592663704,4.392699021425834,3.5628923148553255,5.178105583749129
5.482104582877962,4.3707178773385085,3.6146733706928167,5.395674333094697
5.525811761651347,4.333520678263582,3.6686301140237636,5.612141810620746
5.569146968433984,4.280054669826362,3.724751532129971,5.826475328265628
5.611947515132247,4.209346037660399,3.7830162854126272,6.037709903572394
5.654040975508851,4.120523721704005,3.843393384448351,6.244987923140409
5.695246212725891,4.012841255324831,3.9058432636797553,6.447601993993583
5.73537462527914,3.885694886852881,3.970319283619691,6.6450399914945795
5.774231574147668,3.7386360706418715,4.036769683534637,6.837031167023869
5.8116179348540875,3.5713763546018416,4.105139995204876,7.023592156079237
5.847331698400106,3.3837827687223583,4.1753759167656685,7.205071876207848
5.88116952608733,3.1758620469978234,4.247426635527747,7.3821946628988915
5.9129281465573085,2.9477323859826585,4.321248582156736,7.556101578062362
5.942405470417135,2.6995819304975717,4.396809597937359,7.7283906250703955
5.969401289722111,2.4316137468499095,4.474093504188064,7.901157554930138
5.99371742719061,2.143977683676857,4.553105079737365,8.077039919929888
6.015157204027378,1.8366902958033031,4.633875478936663,8.259267779977998
6.0335241069854115,1.5095451691629798,4.716468156736443,8.45172452904373
6.048619558677041,1.1620181822456555,4.800985402026881,8.659019757333226
6.060239740499497,0.7931769376601085,4.887575599600213,8.886570961595762
6.068171509876098,0.40161395976407127,4.97644130921617,9.140678116990808
6.072187649473739,-0.014554026629049976,5.067848090386079,9.428545722831196
6.072042109207449,-0.45752942942677416,5.162133547614391,9.758142025630791
6.067466814913181,-0.9293252737588427,5.259714967870699,10.13764605508077
6.058173562175592,-1.43050226901858,5.361091428421506,10.573947951040676
6.043868539485406,-1.9573668587468094,5.4668309079319135,11.069135109468245
6.024294870897938,-2.496304187159391,5.577522259026596,11.613118423687512
5.999331829026344,-3.0138128938602984,5.693653443263471,12.170312273620741
5.969193700087741,-3.443753184434722,5.815356565999678,12.66214168489245
5.9347561682433945,-3.6848599652958183,5.941977982848602,12.96276646905252
5.897907568590436,-3.637620657724821,6.071605647539127,12.947341065778057
5.861531362013188,-3.2825963949126624,6.201079058196908,12.595370702547626
5.828705398064061,-2.711131851665005,6.327032765222384,12.02868232266836
5.801594079547411,-2.049947772405886,6.4473195884490675,11.408482670166501
5.781094601823352,-1.38407761699288,6.561404415150733,10.835375092417186
5.767253825653424,-0.7492713527048914,6.669758166074905,10.343829244123175
5.759761112126375,-0.1539250046052797,6.773196458516137,9.933571091106709
5.7582218620803225,0.4040809602888702,6.8725321694272035,9.592091341100831
5.762262671683211,0.9295065215389838,6.968453082838212,9.304549700220328
5.771557736898601,1.4268105019312227,7.061498579840415,9.057126323785612
5.785825841917913,1.8992735142813015,7.152069843078271,8.837806100954994
5.804818577060726,2.3488857265205674,7.240447904087821,8.636322832450674
5.828307434325932,2.7764916016574612,7.3268111324123275,8.443904444596463
5.856072350342507,3.1820079516895867,7.411250176858292,8.253031494662391
5.887892429859403,3.5646537835745473,7.493780491804916,8.057264671148754
5.923538967695149,3.9231733637597266,7.574353138516403,7.851142883886951
5.962770701332746,4.2560470634284355,7.652864567355272,7.630136402390846
6.00533117196703,4.561687022551775,7.729165931379181,7.3906354404310814
6.050948042192548,4.838613939852995,7.803072285783491,7.129955218082202
6.099334181591078,5.0856102812867965,7.874371837964313,6.846341047287711
6.150190284403946,5.301844979066015,7.9428352484371905,6.538960431663293
6.2032087341946065,5.486965507580268,8.008224852753823,6.207873106251867
6.258078389270409,5.641154894816376,8.070303583816342,5.853974007632944
6.314489938218573,5.765153388868644,8.12884332389267,5.478908004783149
6.372141472107259,5.860246744449178,8.183632403940502,5.084958537492874
6.430743939551751,5.928225093001582,8.23448198931543,4.674914913855558
6.490026190481767,5.971317906563738,8.281231138453986,4.251924845265637
6.549739369547404,5.992111576432226,8.323750386906642,3.819339867212388
6.609660485311727,5.993456602107769,8.361943785578767,3.3805616607419227
6.669595051332804,5.97837135991133,8.395749402186185,2.938897001968777
6.7293787649319174,5.94994893881852,8.425138372205874,2.49742816803797
6.788878254320102,5.911272644710826,8.450112653886253,2.058904182218517
6.847990980767211,5.865344555271192,8.470701695708438,1.6256564111466612
6.9066444263199225,5.8150300616780015,8.486958259819906,1.1995399310641839
6.964794726936702,5.763019796541889,8.498953659130548,0.7819000130739382
7.022424924902121,5.711808865363851,8.506772659261287,0.37356131121377534
7.079543013555759,5.663691990104608,8.510508272373425,-0.025163890935165578
7.1361799334568055,5.620772094707085,8.510256633464072,-0.4144525365546224
7.192387654403876,5.58497897850863,8.506112108098526,-0.7949366102495625
7.2482374441889625,5.558093885954599,8.49816274199603,-1.1676605398127142
7.303818383048508,5.541774704485384,8.486486136597902,-1.5340304975012615
7.359236130093362,5.537574743708471,8.47114583162289,-1.8957521420068801
7.414611877530446,5.546944852744786,8.452188310202821,-2.2547473908410476
7.470081326057894,5.571202941722422,8.42964083629441,-2.6130314028500443
7.525793355475118,5.611445255294421,8.40351052226591,-2.9725161061203043
7.581907808028062,5.668358164255645,8.373785361204707,-3.334683874240905
7.638591389670619,5.7418667734527595,8.340438522462298,-3.700042995550148
7.696010057405147,5.830531096625311,8.303438092506797,-4.067240839307109
7.7543153683714,5.930591661870963,8.262765684113726,-4.431698942089175
7.81362128499011,6.034633743997537,8.218448694692833,-4.783730372196829
7.873967622430086,6.130112887326034,8.170611390970866,-5.106486003623436
7.935268751303346,6.19863040174159,8.119546530934631,-5.374985228655708
7.997255055320762,6.217749995919667,8.065796678648073,-5.558750685889691
8.059432555279958,6.167158504231138,8.010209171789176,-5.6305655108502
8.12110414032227,6.037992064156415,7.953903516680675,-5.579648020278465
8.181484060963834,5.8389682494999375,7.89810703647789,-5.420237571330169
8.239873743458833,5.592951333145207,7.843904660764588,-5.186611810091328
8.295803256790286,5.326362584742816,7.792038542663675,-4.917993872416396
8.349066882637715,5.060179533693203,7.742858603939511,-4.64574037757596
8.399668677974647,4.8070598642814595,7.696401200163751,-4.389230310315123
8.447739276617462,4.572762947518378,7.6525088970606,-4.157868668813403
8.493466906092646,4.358699471430143,7.610930210372466,-3.954712473598679
8.537053900806947,4.163995844069085,7.571383085636479,-3.779423926223616
8.578693859247638,3.986779528795081,7.533588846374243,-3.630124331919809
8.618561654535588,3.8248723179577326,7.497287603055044,-3.504407414657507
8.656810377715166,3.676125197105723,7.462243528908469,-3.399840427747808
8.693571629686224,3.538559401261596,7.428245124630991,-3.314185819907665
8.72895722369884,3.4104102041074693,7.3951032664319145,-3.2454807389207163
8.763061325739915,3.2901253183782604,7.362648459042707,-3.192048639581993
8.795962578923698,3.1763443537473273,7.330727972646887,-3.1524811866023286
8.82772602246117,3.067872239144627,7.299203160780864,-3.1256093082137157
8.858404744852617,2.9636525839646084,7.267947067698726,-3.110472258858562
8.888041270692263,2.8627435108435404,7.236842345110141,-3.1062885039564967
8.916668705800697,2.7642968471744322,7.205779460070576,-3.112429750283543
8.944311674272441,2.6675408265250153,7.17465516256774,-3.1283982505134458
8.970987082537691,2.5717661699490746,7.143371180062606,-3.1538069574549104
8.996704744237181,2.4763153609368342,7.111833110488057,-3.188361857927481
9.02146789784655,2.3805749818406583,7.079949491908782,-3.2318457075842226
9.045273647664956,2.2839710879078057,7.04763103483294,-3.2841023303465717
9.068113358544034,2.185967730354414,7.014790011529475,-3.3450205975300977
9.089973035847578,2.0860688882191103,6.981339805554174,-3.414517144313899
9.110833724729769,1.9838242201856706,6.947194634111034,-3.492516812063436
9.130671966931626,1.8788391903538006,6.9122694659904,-3.578929733501683
9.149460358835164,1.7707902371168676,6.876480168655384,-3.6736239265232116
9.167168261206333,1.6594457104888467,6.839743929390152,-3.7763922714195446
9.183762718311222,1.5446932509370364,6.801980006675956,-3.8869128780238222
9.199209650820592,1.4265740492049634,6.763110877895718,-4.004702194816497
9.213475391312642,1.3053239129923646,6.7230638559475535,-4.1290608935108235
9.226528630442566,1.1814201526754997,6.681773247012445,-4.259013727096962
9.238342831969321,1.0556318628851757,6.6391831097414755,-4.393246353931134
9.248899150598174,0.9290691417148449,6.595250646202164,-4.53004463616368
9.258189842015323,0.8032242013361619,6.549950199840527,-4.667245091863836
9.266222084028685,0.6799944727967039,6.503277748921889,-4.802208638288729
9.273022028756653,0.5616753591192616,6.455255662539002,-4.931832677028491
9.278638782347846,0.4509093614168823,6.405937335768717,-5.052617556844565
9.283147875962015,0.350580355304746,6.355411160200271,-5.160800713384958
9.286653679515062,0.2636482029147087,6.303803153066421,-5.2525636743694655
9.289290161544209,0.19293011493719253,6.251277516322727,-5.324303143397436
9.291219462693581,0.14084980399498556,6.198034484888752,-5.372939405332142
9.292627960733531,0.10918964844231724,6.144305090835431,-5.396218173728702
9.293719857217955,0.09888924821687835,6.090342909098144,-5.392952591497785
9.294708749700124,0.10993088810847854,6.036413383183167,-5.363156418843183
9.295808058581208,0.14133706127318998,5.982781818994734,-5.308038997540317
9.29722142919394,0.19128120041034996,5.929701429019331,-5.229862303410717
9.299134241198043,0.25728815643490416,5.8774028059852235,-5.131690256696727
9.301707122762393,0.33648417975610817,5.826085903418257,-5.017080245752594
9.305071964559954,0.4258519023498788,5.775915100960731,-4.889771122440087
9.309330483583452,0.5224533216228056,5.72701738973633,-4.753412068718074
9.31455501679968,0.6235981838510103,5.6794832690491495,-4.611358876031334
9.32079099863819,0.7269505514294063,5.633369680288836,-4.466545519015763
9.328060504152484,0.8305783859128524,5.588704225098678,-4.321424556409248
9.336366288011613,0.9329579349465777,5.545489979534586,-4.177961795961752
9.345695867361078,1.0329469534147522,5.503710361574968,-4.037668221261832
9.356025336895225,1.1297397740092956,5.46333367936235,-3.9016535731089554
9.367322734635318,1.222814572332052,5.42431714363126,-3.7706892690830687
9.379550880358638,1.3118800802448791,5.3866102509404294,-3.6452720722923377
9.392669681161086,1.396826219490567,5.350157530217506,-3.5256832367325956
9.406637943355992,1.4776809659893058,5.31490069785018,-3.4120404150145567
9.421414753015885,1.5545742534627418,5.280780293700034,-3.3043413823257306
9.436960495550512,1.6277087872188185,5.2477368798767765,-3.20249973062456
9.4532375834227,1.6973371247428737,5.215711882570531,-3.1063732890312
9.47021095467013,1.7637441543002874,5.1846481496802195,-3.0157862906003055
9.487848396213133,1.8272340572372536,5.154490286774217,-2.9305463602960895
9.506120736785505,1.8881208952647153,5.125184823171256,-2.850457336229018
9.525001945738152,1.9467220681902881,5.096680249808966,-2.7753288172131603
9.544469166420056,2.0033540078624754,5.068926961636834,-2.7049831920970604
9.564502706498681,2.058329592087707,5.041877129715864,-2.639260771375769
9.585086002419558,2.1119568687040426,5.015484522002106,-2.578023519928205
9.6062055711066,2.164538771162608,4.989704286802824,-2.5211577854541773
9.627850958818225,2.2163735823558843,4.964492708948282,-2.468576330697083
9.650014694641785,2.2677559641152953,4.939806945641311,-2.4202199072580313
9.672692254282937,2.3189784174909938,4.9156047465687305,-2.376058552244438
9.695882038457848,2.370333075405372,4.891844161046286,-2.336092743304805
9.7195853692119,2.422113756057952,4.868483233613238,-2.3003545098243507
9.74380650677248,2.474618223607122,4.845479688514995,-2.2689085651588474
9.768552689008551,2.5281506125992665,4.822790602863407,-2.241853493535435
9.793834195134544,2.5830239740133303,4.800372067928052,-2.219322991973634
9.819664434874676,2.639562892295014,4.778178838008316,-2.2014871277722023
9.846060063797626,2.698106101703518,4.756163966730593,-2.188553519881923
9.873041124814662,2.7590089922173697,4.734278431531774,-2.1807682798018284
9.900631214736835,2.822645833181998,4.712470748733756,-2.1784164432432065
9.928857673068656,2.8894114464128995,4.690686584301323,-2.1818214718139908
9.957751787532784,2.9597219144706046,4.668868369583183,-2.1913431820618055
9.98734900667749,3.0340136930074424,4.646954937762565,-2.207373136562669
10.017689143607566,3.1127401796823917,4.624881206396939,-2.230326067267616
10.048816545404389,3.1963643397191803,4.602577945724263,-2.2606252435833216
10.080780188801581,3.285345358926302,4.57997169328843,-2.2986787898482297
10.113633642390845,3.380116455405833,4.556984905389948,-2.3448427539336762
10.147434806944903,3.4810499350148847,4.533536477850611,-2.399365240729734
10.182245306295052,3.5884044296632003,4.509542825443314,-2.462304310942659
10.218129350591683,3.70224835000824,4.484919782333888,-2.533411100123038
10.255151834091766,3.8223537061642334,4.459585671332658,-2.6119698774392925
10.293375371153408,3.9480571584415625,4.433465972558265,-2.696590774202418
10.332855942737824,4.078093047334826,4.406500064816241,-2.784962378593448
10.373636873211172,4.2104195914195355,4.378650441030306,-2.873595129469643
10.415741069125367,4.3420867122747016,4.3499144897356095,-2.957625685160971
10.459161936248114,4.469228218595529,4.320338232884,-3.030801704553828
10.50385421843407,4.5872843905562295,4.290030215838462,-3.085800098586664
10.549727062339631,4.691537138696905,4.259172214852595,-3.1149980801818016
10.5966424337266,4.7779316549086355,4.228022234050777,-3.111661950978606
10.644421750275686,4.843978414508143,4.1969056145409915,-3.071260857149468
10.692861534420768,4.8893865713751286,4.166193005969497,-2.992406447944411
10.741755400134519,4.916127021519147,4.136268941490052,-2.876982592510363
10.790916670349711,4.9278888779319985,4.1074991155649485,-2.729404598644204
10.84019555912903,4.929192661058315,4.080205069578507,-2.5553753600197298
10.889487485739615,4.924530269716991,4.054651315978309,-2.3606634532782302
10.938732788436784,4.917781014890718,4.031044681445527,-2.1502623985195597
10.98791059858569,4.911954361594959,4.009542057460331,-1.92801055568423
11.03703014220164,4.909177774028673,3.990261951903489,-1.6965621771625115
11.086121919941927,4.910814930532479,3.973296330131864,-1.4575503899589686
11.135230069247251,4.917625034452221,3.958720826232274,-1.2118165898682276
11.184406319591774,4.929912814431281,3.9466026603335917,-0.9596344521194573
11.233705447736087,4.947648772485095,3.9370063158123974,-0.7008987090183256
11.283181935460938,4.970556301283529,3.929997328722214,-0.4352729642603416
11.332887498473774,4.99816981501696,3.9256445990796105,-0.16230156155999959
11.382869196623943,5.029870223874379,3.9240215834640106,0.11850631664349498
11.433167898862687,5.064903867127562,3.9252066466304454,0.40761249033658065
11.483816937533962,5.102390010444565,3.9292827715338112,0.7053993264438749
11.534840837638408,5.141320941094866,3.93633676479825,1.0121285485836882
11.586254047049357,5.180557824303302,3.946458050284087,1.3279064832133844
11.63805962529239,5.218824863171639,3.9597371151162206,1.6526542361903114
11.690247873924108,5.254703895396421,3.976263657478124,1.9860823448166618
11.742794912878072,5.286631297986856,3.9961244809262904,2.3276702707941617
