th1 (rad),w1 (rad/s),th2 (rad),w2 (rad/s)
6.17039551078137,3.0646222417717794,0.4360324806736788,-0.9525852831135492
6.201041733199088,3.1462992264979204,0.4265066278425433,-1.1126530822861094
6.232504725464067,3.226826965318962,0.4153800970196822,-1.271737105023538
6.264772995117257,3.3053052068557167,0.4026627259694468,-1.4281823015871176
6.297826047185814,3.3804926622110862,0.38838090295357564,-1.5798605649195376
6.331630973807925,3.450761471030544,0.37258229730438025,-1.7241128984374714
6.36613858851823,3.51408089067884,0.3553411683200055,-1.857734226454466
6.401279397425019,3.568054382255042,0.33676382605546085,-1.9770351193507691
6.4369599412475695,3.610036507666376,0.3169934748619532,-2.078017635137465
6.473060306324233,3.6373481627228386,0.29621329851057854,-2.156690955030262
6.509433787951461,3.6475850953403124,0.27464638896027593,-2.209518692615683
6.545909638904864,3.6389761043088966,0.2525512020341191,-2.2339347972859502
6.582299399947953,3.6107071684943994,0.23021185406125963,-2.22880796090331
6.6184064716328965,3.563111077469503,0.20792377445222654,-2.194710997726793
6.654037582407591,3.497650366966489,0.18597666447495861,-2.1338922217726695
6.689014086077256,3.4166903528706456,0.16463774225723193,-2.0499444205142874
6.723180989605963,3.3231336591366483,0.14413829805208905,-1.9472736118907823
6.756412326197329,3.220025986656852,0.12466556193318123,-1.8305247863568765
6.7886125860638975,3.1102293813913025,0.10636031406961247,-1.7041029623652473
6.819714879877811,2.9962125607140067,0.08931928444595999,-1.5718614657257535
6.849677005484951,2.8799595730295873,0.07360066978870246,-1.4369603422632946
6.8784766012152465,2.7629686520640093,0.059231066366069514,-1.3018554659462098
6.906106287735887,2.6463051042720083,0.046212511706607416,-1.1683669955012
6.932569338778607,2.5306775990263772,0.034528841751595415,-1.0377833501551592
6.957876114768871,2.416517451929834,0.02415100825004382,-0.9109712430595035
6.982041289288169,2.3040499195432766,0.015041295819448785,-0.7884756936611477
7.005081788483602,2.1933531610489294,0.007156538882837307,-0.67060343630319
7.027015320094091,2.084404396152757,0.00045050451980540706,-0.5574887400876616
7.047859364055618,1.9771146545739993,-0.005124382881071209,-0.44914339793624525
7.067630510601359,1.8713541597264718,-0.009615816860433661,-0.34549363816462025
7.086344052198624,1.7669704003787055,-0.013070753242079864,-0.24640678436837615
7.104013756202411,1.6638006800098772,-0.015534821085763626,-0.15171015345107086
7.12065176300251,1.561680590346671,-0.017051922620274336,-0.06120421940094793
7.136268568905977,1.4604495263566457,-0.017663964814283815,0.02532838196265985
7.150873064169543,1.3599540807963102,-0.017410680994657216,0.1081168203063455
7.164472604977506,1.2600499347267775,-0.01632951279159376,0.18739813432121244
7.177073104324774,1.1606026912228447,-0.014455531448381636,0.26341475500082506
7.188679131237002,1.061487973641414,-0.011821383898373386,0.336413031601791
7.199294010973416,0.9625910177860685,-0.008457253582355476,0.40664243541005324
7.208919921151277,0.8638059208217875,-0.004390829228254943,0.4743552126185889
7.217557980359495,0.7650346622014007,0.0003527228979309455,0.5398063269374549
7.225208326981509,0.6661859780661576,0.005750786167305495,0.603253582053575
7.23187018676217,0.5671741467954112,0.011783321987841246,0.6649578490040091
7.237541928230124,0.46791772686844024,0.018432900477881337,0.7251833477665725
7.242221105498809,0.3683382770327236,0.025684733955547063,0.7841979486459691
7.245904488269136,0.2683590816275769,0.03352671344200675,0.84227346923776
7.248588079085412,0.16790389993948274,0.04194944813438435,0.8996859481305277
7.250267118084807,0.06689575718579457,0.05094630761568963,0.9567158777845473
7.250936075656665,-0.034744204033942835,0.0605134663935351,1.0136483764936544
7.250588633616326,-0.13709778910583306,0.07064995015847164,1.0707732728892345
7.249217655725268,-0.24025070398161413,0.08135768288736399,1.1283850655765781
7.246815148685451,-0.34429335475660877,0.09264153354312978,1.1867827042633077
7.243372215137885,-0.4493214386602278,0.10450936058576285,1.2462691156959802
7.238879000751283,-0.5554362492535211,0.11697205174272265,1.3071503657939971
7.233324638258748,-0.6627445887416361,0.13004355540066262,1.3697343057312446
7.226697192371331,-0.7713581394951292,0.14374089845797505,1.4343284906245446
7.218983610976379,-0.8813920917329677,0.1580841833642205,1.501237080156823
7.2101696900590495,-0.9929627506866783,0.17309655416578873,1.5707563250245429
7.200240062552183,-1.1061837496665015,0.18880411741603415,1.64316810483212
7.189178225055518,-1.221160370462514,0.20523579846435536,1.718730805177269
7.176966621350894,-1.337981315909348,0.22242310651612804,1.7976665992463268
7.1635868081918,-1.4567070918083431,0.2403997725085913,1.8801439331700507
7.149019737273717,-1.577353946817816,0.2592012118402918,1.9662537190342915
7.133246197805539,-1.6998721185558436,0.2788637490306347,2.055977456167356
7.11624747661998,-1.8241170061482512,0.2994235235923083,2.1491453209990743
7.0980063065584975,-1.9498119569550607,0.320914976802299,2.2453823627852394
7.078508186988947,-2.0765018319501363,0.3433688004301514,2.344041619392616
7.057743168669446,-2.2034977349347007,0.36680921662407756,2.4441246981165956
7.035708191320099,-2.3298157132062625,0.3912504636052435,2.544193799836366
7.012410034188036,-2.4541163545524483,0.41669240160360715,2.642285000839525
6.987868870642512,-2.574658262476935,0.4431152516120024,2.735841197599332
6.962122288017742,-2.6892857865556254,0.4704736635879957,2.8216936249336704
6.9352294301521855,-2.79547776507572,0.4986905998373324,2.8961299654767516
6.907274652501428,-2.8904845494952327,0.5276518994920999,2.9550879302099298
6.878369807006476,-2.9715685319134795,0.5572027787941992,2.9944963395945736
6.848654121687341,-3.0363340451954226,0.587147742190145,3.0107444178220204
6.818290781235387,-3.083090059348739,0.6172551863683652,3.0012000579915994
6.787459880641899,-3.111152037424519,0.6472671869482812,2.964645179997997
6.756348360267654,-3.120984685543522,0.6769136387482612,2.9014891141963313
6.725138513412219,-3.114130602497003,0.7059285298902245,2.813681190227163
6.693997207387249,-3.092945324014655,0.734065341792496,2.704349624597355
6.663067754147103,-3.060225442382132,0.7611088380384696,2.577287151591593
6.632465499723281,-3.0188377050063937,0.7868817095543855,2.43643439518806
6.602277122673217,-2.9714304528072333,0.8112460535062661,2.2854754919521705
6.572562818145145,-2.920260197247516,0.8341008084257878,2.127592826565818
6.54336021617267,-2.867124443493196,0.855376736691446,1.9653693909199648
6.514688971737738,-2.8133706106698533,0.8750304306006457,1.8007973295857225
6.486555265631039,-2.759948048058745,0.8930384038965029,1.6353469773817022
6.458955785150452,-2.707477205435556,0.9093918736703199,1.470060332019235
6.431881013096096,-2.6563195218228364,0.9240924769905122,1.3056460294355712
6.405317817877868,-2.606639587105176,0.9371489372848679,1.142563960083183
6.379251422006816,-2.5584564789650686,0.9485745768856998,0.9810950916564983
6.353666857217165,-2.511684189816433,0.9583855278022648,0.8213962587588393
6.328550015319001,-2.4661624592295177,0.9665994903898533,0.6635416415568898
6.303888390726706,-2.4216797797235383,0.9732349068054221,0.5075533007710521
6.27967159292947,-2.377990312320699,0.9783104398131327,0.35342310909436225
6.255891689806264,-2.3348262125678994,0.9818446709040763,0.20112810721201516
6.232543427680585,-2.2919065771850624,0.9838559519761965,0.050640923396505305
6.209624361908734,-2.248943946107959,0.9843623612101615,-0.09806347340754204
6.187134922447655,-2.205649061028116,0.9833817264760861,-0.2450037289050821
6.165078431837373,-2.1617343946552308,0.9809316891870353,-0.3901900564290675
6.143461087890821,-2.116916820588064,0.9770297886227447,-0.5336236655278183
6.12229191968494,-2.070919684551534,0.9716935519674665,-0.6752972843298415
6.101582722839425,-2.0234744563343017,0.9649405791241681,-0.8151964960871683
6.081347978276082,-1.9743220815100715,0.9567886141632964,-0.9533016837726491
6.061604757460982,-1.9232141076970963,0.94725559732557,-1.0895904288273177
6.042372616384011,-1.8699136276755022,0.9363596930372968,-1.2240402469707943
6.023673480107256,-1.8141960581405907,0.9241192905675889,-1.356631569845777
6.00553151952585,-1.7558497560324848,0.9105529748691311,-1.4873508994890572
5.987973021965526,-1.6946764626742565,0.8956794658742405,-1.6161940756574202
5.971026257338783,-1.6304915582545247,0.8795175251176663,-1.7431696056702006
5.954721341756238,-1.5631241047242945,0.8620858290609643,-1.8683020139280107
5.939090100708995,-1.4924166534074286,0.8434028089216842,-1.9916351744870315
5.924165934174921,-1.4182247942060717,0.8234864571768139,-2.113235595527645
5.90998368623286,-1.3404164260330262,0.8023541012215375,-2.2331956294669992
5.89657952197253,-1.2588707329940318,0.7800221449268675,-2.351636586737221
5.88399081464259,-1.1734768580235497,0.7565057790594953,-2.468711734462209
5.872256046062354,-1.0841322755306,0.7318186617148732,-2.5846091625921592
5.861414723307048,-0.9907408778497087,0.7059725700889516,-2.699554498147428
5.8515073145285506,-0.8932108081147329,0.6789770251074774,-2.8138134410115643
5.842575206447403,-0.7914520964999885,0.6508388906973617,-2.927694079099716
5.834660685482404,-0.6853741905961186,0.6215619499063645,-3.041548912124117
5.827806943576443,-0.5748835185905138,0.5911464607851233,-3.155776464804991
5.822058108390538,-0.45988129283165835,0.5595886961370734,-3.270822292232226
5.817459295462221,-0.34026186162816885,0.5268804732147512,-3.3871790574394365
5.814056676845939,-0.21591206406279792,0.4930086826403568,-3.5053851725029754
5.811897556205311,-0.08671225846194847,0.45795483091532707,-3.626021208221462
5.811030433620692,0.04745998826984471,0.42169461883311243,-3.7497028487548105
5.811505033503391,0.18672210202943262,0.38419759034556433,-3.8770685340421704
5.813372254523685,0.33117248172776026,0.3454269050051426,-4.008759011636761
5.816683979340962,0.4808672123938994,0.30533931488877497,-4.1453847108283215
5.821492651464902,0.6357831965297167,0.26388546778049177,-4.287475057737595
5.827850483430199,0.7957617696973421,0.22101071720311583,-4.435401533173561
5.8358081011271725,0.9604250328497559,0.17665670187138022,-4.589263601182361
5.84541235145567,1.1290555975318517,0.1307640658595566,-4.748724279866258
5.856702907430989,1.3004305048536315,0.08327682306089401,-4.912781851616823
5.8697072124795255,1.4726045088944475,0.03414900454472578,-5.079469807000466
5.88443325756847,1.642651679740081,-0.01664569352527888,-5.245495465396176
5.900859774365871,1.8064044808297541,-0.06910064817924064,-5.405868745452396
5.918923819174168,1.958281942674438,-0.1231593356337646,-5.553644632393977
5.938506638600912,2.0913668372123415,-0.17869578195770439,-5.679997605523642
5.959420306973035,2.1979368524110927,-0.23549575801294081,-5.774910329917942
5.981399675497146,2.270591806595246,-0.29324486131212024,-5.828675251959266
6.004105593563098,2.3038606101991794,-0.3515316138317129,-5.834055275578702
6.02714419966509,2.2957684873137834,-0.4098721665874999,-5.788397219158995
6.050101884538227,2.2486029650858796,-0.4677561387790899,-5.6946606269197115
6.072587914189086,2.1683953723773266,-0.5247027450482871,-5.56070784598823
6.094271867912859,2.0633505654227786,-0.5803098235081694,-5.397181505286276
6.114905373567087,1.9420111527974582,-0.6342816385610321,-5.2150451992432
6.1343254850950615,1.811888014694079,-0.6864320905534641,-5.023776526416812
6.152444365242002,1.6788232437743469,-0.7366698558176322,-4.830559030213322
6.169232597679746,1.546944785371792,-0.7849754461197654,-4.640267809303682
6.184702045533464,1.4189356660472332,-0.8313781242128022,-4.45586606675626
6.1988914021939365,1.2963945031780073,-0.8759367848803649,-4.278910139477957
6.2118553472257165,1.1801668161667636,-0.9187258862751444,-4.110003610799998
6.223657015387384,1.0706045354341027,-0.9598259223831443,-3.9491471864891445
6.234363060741725,0.9677519489286232,-0.9993173942480358,-3.795985420322826
6.244040580231011,0.8714716267443904,-1.037277248451264,-3.649970887039614
6.252755296498455,0.7815263483003483,-1.0737769573216602,-3.5104687763832843
6.260570559981458,0.6976306695877696,-1.108881645085493,-3.3768209890248575
6.2675468666773355,0.6194823153993594,-1.1426498549757416,-3.248383749523185
6.273741689831329,0.5467805070924933,-1.1751336924709734,-3.124548380509342
6.279209494902254,0.4792360009325435,-1.206379176276067,-3.004751621863001
6.28400185491158,0.4165759678170489,-1.236426692494697,-2.8884796155003665
6.28816761458975,0.35854573490920544,-1.2653114886497006,-2.7752681678524076
6.291753071938842,0.30490867803328625,-1.2930641703282246,-2.664700920956365
6.294802158719175,0.2554450785413706,-1.3197111795377883,-2.556406435014429
6.297356609504589,0.20995045262877454,-1.3452752438879325,-2.450054787778716
6.2994561140308765,0.16823366556032948,-1.3697757917657196,-2.3453540469444043
6.30113845068648,0.13011501883836563,-1.3932293322351637,-2.242046817054119
6.302439600874863,0.09542441952750544,-1.4156498004057048,-2.1399069675479705
6.303393845070138,0.0639996913221432,-1.4370488700811845,-2.0387365913713404
6.30403384198336,0.035685055953062095,-1.457436235994898,-1.9383632098871173
6.30439069254289,0.010329794426293663,-1.4768198680937692,-1.8386372208016522
6.3044939904871535,-0.012212913949577926,-1.4952062403017856,-1.7394295757586993
6.304371861347658,-0.03208698352301345,-1.5126005360593726,-1.6406296696225904
6.304050991512428,-0.0494342577115289,-1.5290068327555986,-1.5421434220236814
6.303556648935313,-0.06439520210663326,-1.5444282669758354,-1.4438915320785444
6.302912696914246,-0.07710947009048104,-1.5588671822966207,-1.3458078884605644
6.302141602213341,-0.08771635562246123,-1.5723252611812264,-1.2478381186581655
6.301264438657117,-0.09635514724624897,-1.584803642367808,-1.1499382630069146
6.300300887184654,-0.10316539649900187,-1.5963030249978771,-1.0520735607427658
6.299269233219664,-0.10828711289337593,-1.6068237606053049,-0.9542173368060727
6.29818636209073,-0.11186089656657638,-1.6163659339733656,-0.8563499793915825
6.297067753125065,-0.11402801859892242,-1.6249294337672815,-0.7584579992820016
6.295927472939075,-0.11493045793096554,-1.6325140137601015,-0.6605331628338402
6.294778168359765,-0.11471090277623533,-1.6391193453884398,-0.5625716911259391
6.293631059332003,-0.11351272345282341,-1.6447450622996993,-0.46457351825958837
6.2924959320974745,-0.11147992265364971,-1.6493907974822952,-0.36654160214175824
6.291381132870938,-0.10875706835194068,-1.6530562135037128,-0.26848128131587146
6.2902935621874185,-0.1054892138027118,-1.6557410263168715,-0.17039967155167912
6.289238670049391,-0.10182180845884126,-1.6574450230323883,-0.07230509598809742
6.288220451964802,-0.09790060307630319,-1.6581680739922693,0.025793457341988194
6.28724144593404,-0.09387155184080948,-1.6579101394188493,0.12388685677359493
6.286302730415632,-0.08988071400994346,-1.6566712708511133,0.22196633324620718
6.285403923275533,-0.08607415733233911,-1.6544516075186513,0.3200239777361913
6.28454318170221,-0.0825978653790973,-1.6512513677412894,0.41805323614812806
6.283717203048419,-0.07959765090207162,-1.6470708353798083,0.516049407976575
6.282921226539399,-0.07721907741763318,-1.6419103413000424,0.6140101551051024
6.282149035765222,-0.07560739140086732,-1.6357702397489915,0.7119360271744508
6.281392961851213,-0.07490746776073887,-1.628650879477247,0.8098310100313773
6.280643887173606,-0.07526377164741369,-1.6205525693769331,0.9077031038713151
6.279891249457132,-0.07682034011325686,-1.61147553833822,1.0055649378203682
6.279123046056,-0.07972078770217858,-1.6014198889600164,1.1034344278758808
6.278325838178978,-0.08410834066922744,-1.5903855446812576,1.2013354853514244
6.277484754772286,-0.09012590522238234,-1.5783721898277434,1.2992987832632288
6.276583495720062,-0.09791617591665858,-1.5653792019951112,1.3973625884615923
6.275604333960895,-0.10762179109730949,-1.5514055761104952,1.4955736677603435
6.274528116049922,-0.11938554305736389,-1.5364498394328918,1.5939882768517863
6.2733342606193485,-0.1333506513078833,-1.520509956664374,1.6926732414051024
6.27200075410627,-0.1496611080046309,-1.503583224250323,1.7917071404070013
6.270504143026224,-0.1684621050568359,-1.4856661528462531,1.8911816024611927
6.268819521975655,-0.18990055265260578,-1.4667543368216411,1.9912027263219332
6.2669205164491295,-0.2141256987100477,-1.4468423095584217,2.0918926372347
6.264779259462029,-0.2412898578649541,-1.4259233831860747,2.1933911904320853
6.262366360883379,-0.27154925668089924,-1.4039894712817538,2.2958578319714373
6.25965086831657,-0.3050649982879575,-1.3810308929620394,2.3994736243589427
6.25660021833369,-0.34200414383321165,-1.35703615671845,2.5044434390915535
6.253180176895358,-0.3825408987788836,-1.3319917223275344,2.6109983088472344
6.24935476790757,-0.42685787744200177,-1.305881739239062,2.719397916255546
6.24508618913315,-0.47514739657676447,-1.2786877600765065,2.8299331704752158
6.240334715167382,-0.5276127142700409,-1.2503884283717543,2.9429287818714696
6.235058588024682,-0.5844690779691493,-1.2209591405530396,3.058745680868863
6.22921389724499,-0.6459443661259751,-1.190371683744351,3.177783027393528
6.22275445358373,-0.7122789883383498,-1.1585938534704157,3.300479403919638
6.215631663700346,-0.7837245291340817,-1.1255890594312192,3.4273125506582307
6.207794418409006,-0.8605403515016972,-1.091315933924637,3.5587966454325133
6.199189014893989,-0.9429869758276782,-1.055727967470312,3.6954755944719158
6.189759145135712,-1.0313144590806618,-1.0187732115255927,3.837910000628162
6.179446000544905,-1.1257431394519204,-0.9803941115193111,3.9866543005666037
6.168188569150386,-1.22643288878616,-0.940527568513645,4.142218875229016
6.155924240262524,-1.3334353394706961,-0.8991053797613549,4.305009602631121
6.1425898868678175,-1.4466214026552735,-0.8560552837350437,4.47523428898252
6.128123672841265,-1.565573973776258,-0.8113029408452185,4.652761931050321
6.112467933103503,-1.6894337954115886,-0.7647753215347153,4.83691783992621
6.095573595149387,-1.8166869928119604,-0.7164061431354531,5.026197962467058
6.077406725221267,-1.9448900299819167,-0.6661441635107825,5.217895036046547
6.057957824921448,-2.070349285533114,-0.613965213150317,5.407657895408165
6.037254332066117,-2.1878184125470175,-0.5598886341962354,5.58906765493547
6.015376147940646,-2.2903535104982393,-0.5039979576468807,5.753419787309819
5.992472612835664,-2.369556618883328,-0.4464637597737825,5.890026058630725
5.968777046646831,-2.416469351102508,-0.38756349918747524,5.987395025965394
5.944612353135805,-2.4232165174381497,-0.3276895489278213,6.035429615526969
5.920380187961424,-2.3850580039145153,-0.26733525277255166,6.028176228648385
5.896529607922279,-2.301984958506872,-0.2070534904860678,5.965946825461685
5.87350975833721,-2.1789282991567362,-0.14739402223145096,5.855549842298913
5.851720475345643,-2.0243595031654733,-0.08883852380846183,5.708349390336733
5.831476880313988,-1.848040840323556,-0.031755029905094496,5.537206051954724
5.812996471910752,-1.6590245881181978,0.02361703061445275,5.353800675057731
5.79640622602957,-1.4645362941031768,0.07715503736503007,5.167186944042123
5.781760863088539,-1.2697225492863824,0.1288269068054513,4.983520057680406
5.769063637595675,-1.0779159328807892,0.17866210738225535,4.8064718607151935
5.758284478266867,-0.8910810744868091,0.2267268259894073,4.6378710982530045
5.749373667521999,-0.7102451464563865,0.27310553697193735,4.478305081518478
5.742271216057435,-0.5358377314935723,0.31788858778712215,4.327586804444566
5.736912838742499,-0.36793195703997783,0.3611644558315678,4.185081781242382
5.733233519172099,-0.20640450812957814,0.40301527364399164,4.049922159878925
5.7311694740908035,-0.05103677411179988,0.4435144952427809,3.921140480536725
5.730659106349686,0.09842392271416345,0.4827259000481482,3.797749914138923
5.731643345576828,0.24222907678612746,0.5207033991895375,3.678790378356098
