th1 (rad),w1 (rad/s),th2 (rad),w2 (rad/s),a1 (rad/s^2),a2 (rad/s^2)
2.325493736843545,2.781575990380597,6.025132418455428,0.34324199787437515,-6.828750347029954,0.8052324303028685
2.353309496747351,2.713288486910298,6.028564838434171,0.35129432217740386,-6.842111147735689,0.32263573656925565
2.380442381616454,2.644867375432941,6.032077781655945,0.3545206795430964,-6.843656656032364,-0.12232859167479826
2.4068910553707834,2.576430808872617,6.035622988451377,0.35329739362634843,-6.832596154169893,-0.5291484838814584
2.4326553634595096,2.508104847330918,6.03915596238764,0.34800590878753385,-6.8083930938187445,-0.8976207326256141
2.4577364119328187,2.4400209163927307,6.0426360214755155,0.3390297014612777,-6.770736953061864,-1.2278348332652438
2.482136621096746,2.372313546862112,6.046026318490128,0.32675135312862524,-6.7195153341855764,-1.5201513725162688
2.5058597565653673,2.3051183935202566,6.049293832021414,0.31154983940346254,-6.65478703590787,-1.7751768614894217
2.52891094050057,2.238570523161178,6.052409330415449,0.29379807078856834,-6.576756680301776,-1.9937366317480971
2.5512966457321817,2.1728029563581606,6.0553473111233345,0.27386070447108735,-6.4857513122000325,-2.1768471168274917
2.5730246752957635,2.10794544323616,6.058085918168046,0.25209223330281244,-6.3821992312908495,-2.3256885478258686
2.5941041297281253,2.0441234509232515,6.060606840501074,0.22883534782455375,-6.266611174391909,-2.4415788165172208
2.6145453642373577,1.9814573391793324,6.06289519397932,0.20441955965938155,-6.139563843792399,-2.5259490142076784
2.634359937629151,1.9200617007414085,6.064939389575914,0.17916006951730476,-6.001685680233439,-2.580320945866355
2.6535605546365653,1.860044843939074,6.066730990271087,0.15335686005864121,-5.853644706748901,-2.606286749585002
2.672161003075956,1.801508396871585,6.0682645588716735,0.1272939925627912,-5.696138221105675,-2.6054906207842077
2.6901760870446716,1.7445470146605282,6.069537498797302,0.10123908635494912,-5.529884087650342,-2.579612546209088
2.7076215571912767,1.6892481737840248,6.070549889660851,0.07544296089285824,-5.355613370955522,-2.530353890627959
2.724514038929117,1.6356920400744697,6.07130431926978,0.05013942198657864,-5.174064060397254,-2.4594246444436796
2.7408709593298615,1.583951399470497,6.0718057134896455,0.025545175542141845,-4.98597565326312,-2.3685321280201554
2.7567104733245666,1.5340916429378657,6.072061165245067,0.00185985426194029,-4.792084390905731,-2.25937095334141
2.7720513897539454,1.4861707990288084,6.072079763787687,-0.02073385527147381,-4.593118974799156,-2.133614060892101
2.7869130977442333,1.440239609280817,6.0718724252349725,-0.04206999588039482,-4.3897966244446245,-1.9929046750799855
2.8013154938370417,1.3963416430363706,6.071451725276169,-0.06199904263119467,-4.182819374604844,-1.8388490513837632
2.8152789102674056,1.3545134492903221,6.070831734849857,-0.0803875331450323,-3.97287054341586,-1.6730099195873132
2.828824044760309,1.3147847438561635,6.070027859518406,-0.09711763234090544,-3.760611334022099,-1.4969005574595486
2.8419718921988704,1.2771786305159425,6.069056683194997,-0.11208663791550093,-3.546677559382969,-1.3119794561731533
2.85474367850403,1.241711854922113,6.067935816815842,-0.12520643247723245,-3.331676502058345,-1.1196455613143335
2.867160797053251,1.2083950899015294,6.06668375249107,-0.1364028880903758,-3.116183937692481,-0.9212340907356564
2.8792447479522663,1.1772332505246046,6.065319723610166,-0.14561522899773235,-2.9007413624941867,-0.7180129424289011
2.8910170804575124,1.1482258368996627,6.063863571320189,-0.15279535842202135,-2.685853471444041,-0.5111797121276992
2.902499338826509,1.1213673021852224,6.062335617735969,-0.15790715554329834,-2.4719859356669454,-0.30185934189811847
2.913713011848361,1.0966474428285529,6.060756546180536,-0.16092574896227954,-2.25956352499144,-0.09110241819423559
2.9246794862766463,1.0740518075786385,6.059147288690913,-0.1618367731442219,-2.0489686159051583,0.1201158684313665
2.9354200043524328,1.053562121419587,6.057528920959471,-0.16063561445990823,-1.8405401167107642,0.330896098650183
2.945955625566629,1.0351567202524794,6.055922564814872,-0.1573266534734064,-1.6345728315157317,0.5404143419283595
2.9563071927691538,1.018810991937322,6.054349298280138,-0.1519225100541228,-1.4313172735532882,0.7479212348338394
2.966495302688527,1.0044978192017893,6.052830073179597,-0.1444432977057844,-1.230979926970668,0.9527404497677793
2.9765402808805446,0.9921880199320826,6.051385640202539,-0.1349158932081066,-1.0337239452785174,1.1542665942357393
2.9864621610798654,0.9818507804792974,6.050036481270458,-0.1233732272657492,-0.8396702646624439,1.3519625898736332
2.9962806688846584,0.973454077832673,6.0488027489978,-0.10985360136701287,-0.648899101716399,1.5453565878157283
3.0060152096629853,0.9669650868155091,6.04770421298413,-0.09440003548885559,-0.46145179814299353,1.7340384823870385
3.0156848605311404,0.9623505688340791,6.046760212629242,-0.0770596506649852,-0.2773329697278843,1.9176560884168223
3.0253083662194813,0.9595772391368003,6.045989616122593,-0.05788308978081698,-0.09651291347358856,2.095911048722718
3.0349041386108495,0.9586121100020644,6.045410785224784,-0.0369239792935898,0.08106977488349178,2.268554537630769
3.0444902597108703,0.9594228077508993,6.0450415454318485,-0.01423843391728211,0.2555054207824181,2.4353828239775686
3.0540844877883795,0.9619778619587235,6.044899161092675,0.010115394322493577,0.42691037457580877,2.5962327531441725
3.063704266407967,0.9662469657044815,6.0450003150359,0.036077721853935305,0.5954240428751812,2.750977202585044
3.0733667360650117,0.9722012061332334,6.045361092254439,0.06358749387978574,0.7612058876842094,2.899520559338087
3.083088748126344,0.9798132650100755,6.045996967193237,0.09258269947316661,0.9244324291726415,3.0417942614233695
3.0928868807764447,0.9890575893018019,6.046922794187969,0.1230006420874003,1.085294283121686,3.17775243813113
3.102777456669463,0.9999105321330187,6.048152800608843,0.15477816646871162,1.2439932589695628,3.307367677201924
3.112776561990793,1.0123504647227144,6.04970058227353,0.18785184324073087,1.4007395391935413,3.430626940019422
3.12290006663802,1.02635786011465,6.051579100705938,0.22215811264092508,1.5557489556406496,3.5475276393332824
3.1331636452391667,1.0419153496710565,6.053800681832348,0.2576333890342579,1.7092403734905082,3.6580738878318826
3.1435827987358773,1.0590077534059616,6.05637701572269,0.29421412791257673,1.8614331888975322,3.7622729201818323
3.154172876269937,1.077622085294937,6.059319157001816,0.33183685711439503,2.0125449420828745,3.860131685998218
3.164949097122886,1.0977475347157657,6.06263752557296,0.3704381739743772,2.1627890437713844,3.951653606633896
3.175926572470044,1.1193754251534795,6.066341907312704,0.4099547100407162,2.312372609414783,4.036835484680528
3.187120326721579,1.1424991512476275,6.0704414544131104,0.4503230648875215,2.4614943926118023,4.11566455164543
3.1985453182340553,1.1671140951737455,6.074944685061985,0.4914797104039758,2.610342806517392,4.188115636378612
3.210216459185793,1.1932175232389195,6.079859482166025,0.533360866767762,2.759094019806156,4.254148434441646
3.2221486344181822,1.2208084634369811,6.085193090833703,0.5759023511121784,2.9079101118942714,4.313704856698281
3.234356719052552,1.2498875645559238,6.090952114344824,0.6190393996791612,3.0569372706030418,4.36670643393449
3.2468555946981112,1.280456937261954,6.097142508341616,0.6627064640185061,3.2063040142422206,4.413051753259333
3.259660164070731,1.3125199774043763,6.1037695729818005,0.7068369815510994,3.356119419184826,4.4526139013851695
3.2727853638447746,1.3460811715962246,6.110837942797311,0.7513631205649511,3.5064713333894373,4.485237889641414
3.286246175560737,1.381145884930119,6.118351574002961,0.7962154994613653,3.657424556006965,4.510738035766334
3.300057634410038,1.4177201304901887,6.126313728997575,0.8413228798190286,3.8090189632071274,4.528895278195347
3.31423483571494,1.45581032012226,6.134726957795765,0.8866118326009821,3.961267560718443,4.5394543998034855
3.3287929389161626,1.4954229957294445,6.143593076121775,0.932006376599017,4.114154444358852,4.542121139977282
3.343747168873457,1.536564540173033,6.152913139887765,0.9774275879987898,4.267632651135363,4.5365591766400994
3.3591128142751874,1.5792408666843867,6.162687415767753,1.0227931797651908,4.421621885435544,4.5223869636323695
3.374905222942031,1.623457085538742,6.172915347565405,1.0680170494015144,4.576006107581209,4.499174413898319
3.3911397937974184,1.669217146614554,6.18359551805942,1.1130087935404975,4.730630975768105,4.466439425553032
3.407831965263564,1.7165234563722351,6.194725605994825,1.1576731877960278,4.88530113742009,4.423644256451395
3.4249971998272866,1.765376467746436,6.206302337872786,1.2019096303605417,5.039777372539221,4.370191763768613
3.4426509645047507,1.8157742414718283,6.218321434176391,1.2456115479982277,5.193773600081137,4.305421538800784
3.460808706919469,1.8677119774726396,6.2307775496563735,1.2886657633862355,5.346953769129878,4.228605984229908
3.4794858266941953,1.9211815151639384,6.2436642072902355,1.3309518232285347,5.498928670140591,4.138946402039358
3.4986976418458346,1.9761708018653443,6.256973725522521,1.3723412872489282,5.649252718261978,4.035569185707953
3.518459349864488,2.0326633290479643,6.27069713839501,1.4126969791060078,5.797420781276173,3.9175222408439505
3.5387859831549675,2.090637536860726,6.28482410818607,1.4518722015144472,5.942865149549867,3.7837717945858405
3.559692358523575,2.1500661883562247,6.299342830201215,1.4897099194603056,6.084952775106125,3.6331997963235496
3.581193020407137,2.210915716107286,6.314239929395818,1.5260419174235411,6.222982941965099,3.4646021608068964
3.60330217756821,2.273145545526937,6.329500348570053,1.5606879390316102,6.3561855705934605,3.2766881594095376
3.6260336330234795,2.3367074012328715,6.345107227960369,1.5934548206257055,6.483720405750756,3.068081325626238
3.649400707035808,2.401544605290379,6.361041776166626,1.624135633881968,6.604677388982006,2.837322305536626
3.673416153088712,2.4675913791801993,6.377283132505446,1.652508856937334,6.718078573730047,2.582874150776721
3.698092066880514,2.5347721649175,6.39380822107482,1.6783375984451012,6.822882001081768,2.303130617106921
3.723439788529689,2.6030009849283178,6.410591597059271,1.7013689046161704,6.9179880151454585,1.9964280909850058
3.749469798378972,2.6721808650797723,6.4276052861054325,1.7213331855260205,7.002248555422771,1.6610618127768353
3.77619160702977,2.742203350634,6.444818617960693,1.7379438036537889,7.074480014274994,1.2953070892614988
3.80361364053611,2.8129481507767498,6.462198055997231,1.7508968745464037,7.133480283966599,0.897446178306183
3.831743122043877,2.884282953616416,6.479707024742694,1.7598713363294656,7.178050631182183,0.46580147078447737
3.8605859515800414,2.9560634599282376,6.497305738105989,1.7645293510373103,7.207023016791907,-0.0012245276728268058
3.890146586179324,3.0281336900961566,6.514951031616362,1.7645171057605822,7.219293412657031,-0.5051021182056858
3.920427923080285,3.1003266242227268,6.532596202673968,1.7594660845785253,7.213861541867479,-1.04712024478109
3.9514311893225127,3.1724652396414017,6.550190863519753,1.7489948821307144,7.189877270240065,-1.6283256845589054
3.9831558417189266,3.2443640123438025,6.56768081234106,1.7327116252851253,7.146693592909623,-2.2494565950521457
4.015599481842364,3.3158309482728985,6.585007928593912,1.710217059334604,7.083925782036841,-2.9108721231130668
4.048757791325093,3.386670206093267,6.602110099187258,1.6811083381034733,7.001515788735739,-3.6124806158430816
4.082624493386025,3.4566853639806245,6.618921182568293,1.6449835319450425,6.899800433904619,-4.353669915310841
4.117191347025831,3.5256833683196707,6.635371017887744,1.6014468327919342,6.779581303397077,-5.1332442178041156
4.152448180709028,3.5934791813536413,6.651385486215664,1.550114390613893,6.6421936264204575,-5.949372956593368
4.1883829725225645,3.6599011176178458,6.666886630121803,1.4906206610479593,6.489570827074773,-6.7995580179813935
4.224981983698743,3.7247968258885935,6.681792836732282,1.4226250808681453,6.3243009837039565,-7.6806261912365175
4.262229951957629,3.788039835725633,6.6960190875409635,1.34581881895578,6.149671212668496,-8.588753935991111
4.300110350314885,3.8495365478523182,6.709477275730522,1.259931279595869,5.969696123931888,-9.519531181012228
4.338605715793408,3.9092335090916372,6.72207658852648,1.1647359677857467,5.7891270807789645,-10.468069830649156
4.377698050884324,3.967124779899427,6.733723948204338,1.060055269479255,5.613440114656187,-11.429160896550787
4.417369298683318,4.023259181045988,6.74432450089913,0.9457636605137473,5.448802030921107,-12.397481735142431
4.457601890493778,4.0777472013552,6.753782137504268,0.8217888431623229,5.302016457977503,-13.367851922213102
4.49837936250733,4.130767365934974,6.762000025935891,0.6881103239401919,5.18045422855251,-14.335533137560422
4.539687036166679,4.182571908220499,6.768881129175293,0.5447549925645877,5.0919753498270754,-15.296565493629076
4.581512755248884,4.2334916617187694,6.774328679100939,0.39178933762829693,5.044852676001454,-16.248130538415626
4.623847671866072,4.283940188478784,6.778246572477221,0.22930803224414067,5.047709984885464,-17.18893023285639
4.666687073750859,4.334417288327638,6.780539652799662,0.05741872991557678,5.109489260928026,-18.119572025444555
4.710031246634135,4.385512180936919,6.7811138400988185,-0.12377699033886877,5.239463481152999,-19.042953060480087
4.753886368443505,4.437906815748449,6.77987607019543,-0.31420652094366963,5.447312117130773,-19.96464169864566
4.798265436600989,4.492379936919757,6.776734004985993,-0.5138529379301262,5.7432771098103075,-20.893261812007466
4.843189235970186,4.54981270801786,6.771595475606692,-0.7227855560502009,6.138417612217386,-21.840894443277943
4.888687363050365,4.611196884140034,6.76436762004619,-0.9411945004829804,6.644982795127204,-22.82352192119776
4.934799331891766,4.677646712091306,6.75495567504136,-1.169429719694958,7.276923907406632,-23.861550759599112
4.9815757990126786,4.7504159511653725,6.743261377844411,-1.408045227290949,8.050569731190503,-24.98046068809449
5.029079958524332,4.830921648477277,6.729180925571502,-1.657849834171894,8.985492978362947,-26.21163622515489
5.077389175009105,4.920776578260907,6.712602427229783,-1.919966196423443,10.105596734291677,-27.593440526763214
5.126596940791714,5.021832545603823,6.693402765265549,-2.195900601691075,11.44044368262988,-29.172580106972784
5.176815266247752,5.136236982430122,6.671443759248638,-2.487626402760803,13.026822096850317,-31.00576327207742
5.228177636072053,5.2665052033986255,6.6465674952210305,-2.797684035481577,14.910458395276693,-33.16152860834767
5.2808426881060395,5.415609787351393,6.618590654866215,-3.1292993215650537,17.14757162555678,-35.72180793693616
5.334998785979553,5.587085503606961,6.587297661650564,-3.4865174009344155,19.805451954934686,-38.78205441443839
5.390869641015623,5.785140023156307,6.55243248764122,-3.8743379450787994,22.960054513745636,-42.447079924792135
5.448721041247186,6.014740568293764,6.513689108190432,-4.29880874432672,26.68589274956296,-46.8159299527858
5.508868446930124,6.2815994957893935,6.470701020747165,-4.766968043854578,31.02750023175773,-51.94066726716794
5.571684441888018,6.591874498106971,6.423031340308619,-5.286374716526257,35.928946312190355,-57.72599061296263
5.637603186869088,6.9511639612288745,6.370167593143357,-5.8636346226558835,41.0735008816393,-63.702420347706095
5.7071148264813765,7.361898970045267,6.311531246916799,-6.500658826132945,45.552145824573074,-68.55909660150932
5.780733816181829,7.817420428290998,6.246524658655469,-7.186249792148038,47.29495641613199,-69.34450454026357
5.85890802046474,8.290369992452318,6.174662160733988,-7.879694837550674,42.527432077185594,-60.70657470939092
5.941811720389262,8.715644313224173,6.095865212358482,-8.486760584644584,26.699557184980872,-36.21438894335953
6.028968163521504,8.982639885073981,6.010997606512036,-8.848904474078179,-0.5616247740969948,4.646085646135755
6.118794562372243,8.97702363733301,5.922508561771254,-8.802443617616822,-29.585478196365745,48.19257440408488
6.208564798745574,8.681168855369354,5.834484125595086,-8.320517873575973,-47.13464459345879,75.66500034757762
6.295376487299267,8.209822409434766,5.751278946859326,-7.5638678701001965,-50.44240631921418,83.01856140434394
6.3774747113936145,7.7053983462426245,5.6756402681583245,-6.733682256056757,-45.64041296543052,78.78056409367986
6.454528694856041,7.248994216588319,5.608303445597757,-5.945876615119959,-38.41425935511764,70.93163989561029
6.527018637021924,6.8648516230371435,5.548844679446558,-5.236560216163856,-31.38487625160727,63.18678510440978
6.595667153252296,6.551002860521071,5.496479077284919,-4.6046923651197575,-25.33211566540261,56.6784957779006
6.661177181857506,6.2976817038670445,5.450432153633721,-4.037907407340752,-20.323586955740804,51.5280556591581
6.724153998896177,6.094445834309637,5.4100530795603134,-3.522626850749171,-16.220540351868,47.55361794160795
6.785098457239273,5.932240430790957,5.374826811052822,-3.047090671333091,-12.85555047782104,44.52107422531042
6.844420861547182,5.803684926012746,5.344355904339491,-2.601879929079987,-10.084147372386585,42.21850662615957
6.90245771080731,5.702843452288881,5.31833710504869,-2.1796948628183914,-7.794048782450556,40.470921732047906
6.959486145330199,5.6249029644643755,5.296540156420506,-1.7749856454979125,-5.901856667800756,39.137178115192235
7.015735174974842,5.565884397786368,5.278790299965527,-1.38361386434599,-4.3470886721455475,38.10312133733355
7.071394018952706,5.522413511064912,5.264954161322067,-1.0025826509726545,-3.0864920947332264,37.27521716686761
7.126618154063355,5.4915485901175805,5.254928334812341,-0.6298304793039784,-2.089306448377873,36.57571729589627
7.18153363996453,5.470655525633802,5.248630030019301,-0.2640733063450157,-1.3334565582139508,35.93936244523409
7.236240195220868,5.457320960051662,5.245989296955851,0.09532031810732522,-0.8025077786046289,35.311342483471435
7.290813404821385,5.449295882265616,5.246942500136924,0.4484337429420396,-0.48323015431921995,34.64618231849587
7.345306363644042,5.444463580722424,5.251426837566344,0.7948955661269983,-0.3636723514042741,33.90723728683611
7.399750999451266,5.440826857208381,5.259375793227614,1.1339679389953594,-0.4316955037323759,33.06651343829307
7.45415926802335,5.436509902171057,5.270715472617567,1.4646330733782902,-0.6739475535030758,32.104567688032496
7.5085243670450605,5.4297704266360265,5.28536180335135,1.785678750258615,-1.07526722438008,31.010292439464713
7.5628220713114205,5.419017754392225,5.303218590853936,2.0957816746532623,-1.6184961070601762,29.780450638562424
7.6170122488553424,5.402832793321624,5.3241764076004685,2.3935861810388865,-2.2846538220540094,28.41889738453585
7.671040576788559,5.379986255101083,5.348112269410858,2.677775154884245,-3.0534034404204924,26.935495456528237
7.7248404393395695,5.349452220696878,5.3748900209597,2.9471301094495272,-3.90371115370446,25.344794055200737
7.7783349615465385,5.310415109159833,5.4043613220541955,3.2005780500015346,-4.814592562472453,23.664583047275464
7.831439112638137,5.262269183535109,5.436367102554211,3.4372238804742894,-5.765841301896886,21.9144532011178
7.884061804473488,5.2046107705161395,5.470739341358954,3.6563684124854676,-6.738653307327865,20.114485977741214
7.936107912178649,5.137224237442861,5.507303025483808,3.8575132722628798,-7.716087675739672,18.284169325801404
7.987480154553078,5.060063360685464,5.545878158206437,4.040354965520894,-8.683336821007396,16.44159696446915
8.038080788159933,4.97322999247539,5.586281707861646,4.204770935165586,-9.627808514588944,14.60296700370528
8.087813088084687,4.8769519073295005,5.628329417213302,4.350800605202639,-10.539045995464088,12.782359160932186
8.136582607157981,4.77156144737486,5.671837423265329,4.4786241968119604,-11.408527334992185,10.991743172218142
8.18429822163173,4.657476174024938,5.716623665233448,4.588541628534142,-12.229391451427002,9.241156057607924
