th1 (rad),w1 (rad/s),th2 (rad),w2 (rad/s)
5.7320326118175355,2.28796422284915,1.5296147019929085,1.7991268059869017
5.754912254046027,2.3224697523981543,1.5476059700527776,1.672366841144649
5.7781369515700085,2.35249470295712,1.564329638464224,1.5417180812126228
5.80166189859958,2.378241961926169,1.5797468192763502,1.4074269315262784
5.825444318218842,2.399941733070068,1.5938210885916129,1.2697599698536153
5.849443735549542,2.4178499010679046,1.606518688290149,1.1289996806801947
5.873622234560221,2.4322461262552015,1.6178086850969509,0.9854399229264549
5.8979446958227735,2.443431703198354,1.6276630843262154,0.8393811707485195
5.922379012854757,2.4517272254759472,1.6360568960337005,0.6911255775243912
5.946896285109516,2.457470108198141,1.6429681518089445,0.5409719227652932
5.971470986191497,2.4610120285785113,1.6483778710365975,0.3892105093012759
5.996081106477282,2.4627163524773725,1.6522699761296102,0.2361180825464886
6.020708270002056,2.4629556205453964,1.6546311569550751,0.0819528440547764
6.04533782620751,2.462109170870156,1.6554506853956228,-0.0730503726336742
6.069958917916212,2.4605609755624935,1.654720181669286,-0.2286847048443101
6.094564527671837,2.4586977664781937,1.6524333346208429,-0.38477559682918916
6.119151505336619,2.4569075204779653,1.648585578652551,-0.5411848409641081
6.143720580541399,2.455578367727708,1.64317373024291,-0.6978143163728914
6.168276364218676,2.455097978117227,1.636195587079181,-0.8546094394084554
6.1928273439998485,2.455853471557433,1.6276494926850964,-1.0115623630291504
6.217385878715422,2.4582318882534957,1.617533869054805,-1.1687149838176385
6.2419681975979575,2.462621245375229,1.6058467192166286,-1.3261618347750523
6.2665944100517095,2.469412196800147,1.592585100868878,-1.4840529575385066
6.291288532019711,2.4790003021331506,1.577744571293493,-1.6425968574503362
6.316078535041043,2.4917888984544927,1.5613186027189896,-1.8020636463972304
6.340996424025588,2.5081925503090545,1.5432979662550173,-1.962788467653556
6.366078349528678,2.5286410253533727,1.5236700815784816,-2.1251752678519216
6.391364759782212,2.5535836966238024,1.5024183288999624,-2.2897009233580254
6.41690059674845,2.583494194258638,1.4795213196663821,-2.456919624673503
6.4427355386910365,2.6188749981623785,1.4549521234196472,-2.6274672448205827
6.46892428867266,2.660261443776321,1.4286774509714413,-2.8020651195930317
6.495526903110424,2.708224249791926,1.400656799775511,-2.9815221732890302
6.522609145608343,2.7633690794297503,1.3708415780426209,-3.166733510199787
6.55024283640264,2.826330673015272,1.339174242940623,-3.3586722629740002
6.578506143132793,2.8977575164595306,1.305587520310883,-3.5583693354014683
6.607483718297388,2.978280503191909,1.2700038269568683,-3.766872232227685
6.637266523329307,3.0684551361787458,1.2323351046345914,-3.98516877221048
6.667951074691095,3.16866093406928,1.1924834169124865,-4.2140533261753355
6.699637684031788,3.2789334264556658,1.1503428836507332,-4.4539016827069196
6.732427018296344,3.3986939633574274,1.105803866823664,-4.704306370318042
6.7664139579299185,3.52633408426889,1.0587608031204836,-4.963512098511333
6.801677298772607,3.658615648182087,1.0091256821353702,-5.227596425903092
6.838263455254428,3.7898922341579238,0.9568497178763393,-5.489401123617981
6.876162377596008,3.9112906657692377,0.9019557066401596,-5.737403412219782
6.9152752842537,4.010266553422331,0.8445816725179618,-5.9550969269508975
6.955377949787923,4.071318415590945,0.7850307032484528,-6.12196642027006
6.996091133943833,4.078750407258354,0.7238110390457522,-6.217286103034171
7.036878638016416,4.021491930256787,0.6616381780154105,-6.226745221874322
7.077093557318984,3.8979183372370927,0.5993707257966673,-6.149040539696337
7.116072740691355,3.7172339968605073,0.5378803203997039,-5.997676972324343
7.153245080659961,3.4959362327548904,0.47790355067646045,-5.795971424156469
7.18820444298751,3.2518695212181252,0.41994383643489575,-5.5687959182042
7.220723138199691,2.999684516110075,0.36425587725285374,-5.336351542354505
7.250719983360792,2.749240060111796,0.3108923618293087,-5.112054662340437
7.27821238396191,2.506108886711124,0.2597718152059043,-4.903321911854497
7.303273472829021,2.272825349069975,0.21073859608735934,-4.713348564137564
7.326001726319721,2.0500593864673395,0.1636051104459837,-4.542755144828627
7.346502320184394,1.8374606579674369,0.11817755899769741,-4.390759252103608
7.364876926764068,1.6341891374216075,0.07426996647666133,-4.255904589943056
7.381218818138284,1.4392218494112115,0.03171092057723077,-4.1364769882103625
7.395611036632396,1.2515188373414317,-0.009653849304872862,-4.030725205936052
7.408126225005811,1.0701066460736346,-0.04996110136423338,-3.936968350955089
7.418827291466547,0.8941157011773617,-0.08933078487378426,-3.8536406503327476
7.427768448478321,0.7227929515854195,-0.12786719137711175,-3.7793031953221887
7.434996377994175,0.5555018634507873,-0.16566022333033364,-3.7126393343797
7.440551396628682,0.3917164101619621,-0.20278661667413064,-3.6524428423209354
7.444468560730302,0.2310126029088288,-0.23931104509734,-3.5976037248669566
7.44677868675939,0.07305937327357759,-0.27528708234600957,-3.547094149485856
7.447509280492126,-0.08239033359051198,-0.31075802384086815,-3.4999557009596907
7.4466853771562205,-0.23550791042608515,-0.34575758085046504,-3.4552884675183564
7.44433029805196,-0.3863968077558332,-0.3803104655256486,-3.4122421012394426
7.440466329974401,-0.5350996783279697,-0.41443288653804305,-3.3700088138150073
7.4351153331911215,-0.681605059520174,-0.4481329746761931,-3.3278181818259225
7.42829928259592,-0.8258537232776069,-0.4814111564944523,-3.2849335980383567
7.420040745363144,-0.9677448172221838,-0.5142604924748359,-3.240650191699217
7.410363297190922,-1.107141903083233,-0.546666994391828,-3.194294037901008
7.399291878160089,-1.2438789754989834,-0.578609934770838,-3.145222476949978
7.3868530884051,-1.3777665189232668,-0.6100621595403378,-3.0928253661161254
7.373075423215867,-1.5085976348665442,-0.6409904132014991,-3.0365270869960472
7.357989446867202,-1.636154247283864,-0.6713556840714595,-2.9757891318689285
7.341627904394363,-1.760213371458212,-0.7011135753901488,-2.91011309226962
7.324025770679781,-1.880553411826461,-0.730214706312845,-2.839043873122568
7.305220236561516,-1.996960437288572,-0.7586051450440707,-2.762172956757383
7.285250632188631,-2.1092343689153203,-0.7862268746116445,-2.679141543447464
7.264158288499478,-2.21719500478808,-0.8130182900461191,-2.589643399137291
7.241986338451597,-2.320687800029425,-0.838914724037492,-2.49342724699788
7.218779460451303,-2.4195893169137412,-0.8638489965074708,-2.3902985475451493
7.194583567282166,-2.5138122602576956,-0.8877519819829223,-2.2801205224199945
7.169445444679589,-2.6033100170746417,-0.9105531872071222,-2.162814289726335
7.143412344508842,-2.6880806267778814,-0.9321813301043855,-2.0383579942531385
7.116531538241063,-2.768170119136938,-0.9525649100469169,-1.9067848341797864
7.088849837049694,-2.8436751718690987,-0.9716327583887148,-1.7681799071396287
7.060413085331003,-2.914745058311734,-0.9893145574601111,-1.6226758227951201
7.031265634747886,-2.9815828781022793,-1.0055413156880624,-1.470447056075247
7.001449805966863,-3.044446090038187,-1.0202457862488148,-1.3117030442479483
6.971005345066481,-3.103646395868952,-1.0333628166912943,-1.1466800608547936
6.9399688811077915,-3.1595490559170774,-1.0448296172998421,-0.9756319285135107
6.908373390548621,-3.2125717510037117,-1.0545859365849772,-0.7988196585495665
6.876247673038584,-3.263183138701594,-1.062574133170473,-0.6165001259595749
6.843615841651569,-3.3119012837177144,-1.0687391344300687,-0.4289139010109293
6.810496828814392,-3.3592921702927683,-1.073028273440178,-0.23627236200450225
6.776903907111464,-3.4059685268050264,-1.075390997060223,-0.03874420654636901
6.742844221843414,-3.452589206937896,-1.0757784391256866,0.16355853806470647
6.708318329774035,-3.4998593748689846,-1.0741428537450395,0.37059492765664603
6.673319736025345,-3.5485317296494903,-1.070436904468473,0.5824098815296317
6.63783441872885,-3.5994089691042914,-1.0646128056531767,0.7991492828699953
6.601840329037807,-3.6533476235445868,-1.0566213128244768,1.021075324316822
6.565306852802361,-3.711263261619159,-1.0464105595813087,1.2485819237813627
6.528194220186169,-3.7741368440421486,-1.033924740343495,1.482209800944747
6.490452851745747,-3.843021603516237,-1.0191026423340475,1.7226603297597218
6.452022635710585,-3.919049134012,-1.0018760390364503,1.9708063856694542
6.412832144370465,-4.003432158732126,-0.9821679751797557,2.22769677724197
6.372797822783143,-4.097459333425521,-0.959891007407336,2.4945479590616966
6.331823229448888,-4.202473787908097,-0.934945527816719,2.77271167036272
6.289798491569807,-4.319820863291433,-0.9072184111130919,3.0635984681858313
6.246600282936893,-4.450740053534019,-0.8765824264312335,3.3685225780293
6.202092882401553,-4.5961593577203725,-0.8428972006509405,3.688410072590606
6.15613128882435,-4.756325245119406,-0.8060130999250344,4.023277538862913
6.108568036373155,-4.9301701543781835,-0.7657803245364053,4.37134482714863
6.059266334829373,-5.11429800764288,-0.722066876264919,4.727615811517003
6.008123354752945,-5.301511496588653,-0.674790718149749,5.081822307270489
5.955108239787058,-5.479045586261715,-0.6239724950770441,5.415964495745574
5.90031778392444,-5.627317847227819,-0.5698128501195884,5.702587987380383
5.844044605452162,-5.721074437203983,-0.5127869702457846,5.906434720329398
5.786833861080122,-5.7353017763260095,-0.45372262304249056,5.992786194526175
5.729480843316862,-5.6557128426650385,-0.3937947610972288,5.942206444874892
5.672923714890212,-5.487527996246074,-0.33437269664847985,5.762836774054484
5.6180484349277515,-5.254079635317039,-0.276744328907935,5.488349528181088
5.565507638574581,-4.985576289679462,-0.2218608336261241,5.162078865223138
5.515651875677786,-4.707745052353954,-0.17024004497389272,4.821016036492533
5.468574425154247,-4.437178823147315,-0.1220298846089674,4.489253072450872
5.424202636922774,-4.182271275133786,-0.07713735388445868,4.179288875782795
5.3823799241714365,-3.9459985480777924,-0.035344465126630725,3.8959356555500895
5.342919938690659,-3.7283585730277125,0.0036148914288701706,3.6397490803467276
5.305636352960382,-3.5279488514104234,0.04001238223233745,3.409251285234954
5.270356864446278,-3.3428439510118704,0.07410489508468698,3.2021713562185403
5.236928424936159,-3.1710365278479604,0.10612660864687239,3.0160724268956693
5.205218059657679,-3.0106373941283224,0.1362873329158291,2.8486392737296864
5.175111685716396,-2.8599518315099854,0.16477372565312595,2.6977907854246976
5.146512167401296,-2.717496057072776,0.19175163350737293,2.561707106210417
5.1193372068305685,-2.5819869105943183,0.2173687045694771,2.4388180589469455
5.0935173377246254,-2.452321229415257,0.24175688515894656,2.327776170131005
5.068994125430473,-2.327552772657394,0.26503464686025663,2.2274255277116333
5.045718597703899,-2.2068702075194833,0.287308902137373,2.13677157273696
5.023649895628704,-2.089577524661878,0.3086766178647426,2.054953886922411
5.002754120382086,-1.975077226407782,0.3292261567339667,1.9812225772122718
4.983003348118008,-1.8628561721364898,0.34903838250608943,1.9149181925966483
4.964374786396643,-1.7524737841226652,0.3681875644320559,1.8554548367810966
4.946850048555417,-1.6435522691039963,0.38674211279986687,1.802306058638641
4.930414525864377,-1.5357685230427995,0.4047651733862533,1.7549931076439766
4.915056840633949,-1.4288474227360983,0.42231510446269305,1.7130751824105988
4.900768366406588,-1.3225562507364514,0.43944585628679905,1.676141352174411
4.8875428038992235,-1.216700041567145,0.45620726980854315,1.6438038821574608
4.875375803483552,-1.1111176742646667,0.4726453086301178,1.6156927394840883
4.864264626740905,-1.005678567955149,0.48880223602495865,1.5914510952659782
4.854207841061354,-0.9002798636096285,0.5047167469776185,1.5707316706987904
4.845205042425257,-0.7948439968889996,0.5204240636846064,1.5531938012321451
4.8372566024563675,-0.689316584768887,0.5359560016969278,1.538501113997676
4.830363436608678,-0.583664563095919,0.5513410128369046,1.526319730614804
4.824526790977719,-0.477874523964563,0.5666042101430526,1.5163169210607812
4.8197480457380735,-0.37195121132097514,0.5817673793536604,1.5081601451948095
4.816028533624864,-0.26591614091019383,0.5968489808056086,1.5015164273543502
4.813369372215762,-0.1598063169171549,0.6118641450791521,1.4960520166793059
4.81177130904659,-0.053673022672252435,0.6268246652459452,1.4914322918608147
4.811234578819867,0.052419333197745,0.6417389881645533,1.4873218741744259
4.811758772151845,0.15839433063588682,0.6566122069062976,1.48338491719688
4.813342715458203,0.2641646250771854,0.6714460560782665,1.479285545721243
4.815984361708975,0.369633018681669,0.6862389115354789,1.4746884202275705
4.819680691895791,0.474693525913598,0.7009857957377545,1.469259406941465
4.824427627154927,0.579232442780349,0.7156783898071692,1.462666337083148
4.83021995158273,0.6831294287558097,0.7303050531780008,1.4545798423941005
4.837051245870288,0.7862586104869025,0.7448508516019418,1.444674257402321
4.844913831975157,0.8884897167354284,0.759297594175965,1.432628582082102
4.853798729142511,0.9896892545414051,0.7736238799967861,1.4181275014678505
4.863695621687925,1.0897217371892927,0.7878051550114645,1.4008624612406964
4.874592839059818,1.1884509750753496,0.8018137796238715,1.3805328001322679
4.886477348810572,1.285741440854753,0.8156191076251942,1.3568469409651223
4.8993347632191195,1.3814597201197845,0.8291875770348454,1.3295236420415188
4.913149360420317,1.4754760581495414,0.8424828134552605,1.2982933091701594
4.927904121001813,1.5676660118094354,0.8554657465469622,1.2628993656747962
4.943580781119907,1.6579122133212745,0.8680947402037101,1.223099673096677
4.96015990325312,1.7461062492711414,0.8803257369346769,1.1786679888967186
4.977620965745832,1.8321506538362267,0.8921124168236441,1.1293954392988768
4.995942472284194,1.9159610098434303,0.9034063712166328,1.0750919756405672
5.0151020823826284,1.99746814507944,0.9141572909730384,1.0155877715104247
5.035076763833423,2.0766204045354257,0.9243131686881427,0.9507345060269622
5.055842967878777,2.153385972403816,0.9338205137484124,0.8804064664793596
5.077376827602816,2.227755211195389,0.9426245784132059,0.8045013919962591
5.09965437971477,2.2997429799732596,0.9506695923331685,0.7229409698167908
5.122651809514503,2.369390890151028,0.9578990020313364,0.6356708880329189
5.146345718416013,2.4367694563553806,0.9642557109116656,0.5426603442200683
5.170713412979567,2.5019801022609935,0.9696823143538663,0.44390090887203837
5.1957332140021775,2.565156987719871,0.9741213234425867,0.3394046464142161
5.221384783879376,2.626468634406891,0.9775153699067289,0.2292014047846875
5.247649470223445,2.686119342829705,0.9798073839545758,0.11333519663715144
5.274510663651742,2.7443504138661217,0.9809407359209473,-0.008140389944599813
5.301954167790403,2.8014412126687045,0.9808593320215013,-0.1351677973762536
5.32996857991709,2.8577101412296266,0.9795076540477388,-0.26769215240161204
5.358545681329387,2.913515617358749,0.9768307325237227,-0.4056689878001588
5.387680837502974,2.969257191446942,0.9727740426457211,-0.5490730470935279
5.4173734094174435,3.0253769673646786,0.9672833121747858,-0.6979081917066828
5.44762717909109,3.0823615295424087,0.9603042302577189,-0.8522184460790448
5.478450794386514,3.14074461426851,0.9517820457969285,-1.0121002458981303
5.5098582405292,3.2011107992437595,0.9416610433379472,-1.1777159989315278
5.5418693485216375,3.2641005210235927,0.9298838833486319,-1.3493091263611676
5.574510353731873,3.330416763904334,0.9163907920850203,-1.5272208221590509
5.6078145213709165,3.4008337925995415,0.9011185838634298,-1.7119088418161506
5.641822859296912,3.476208316401808,0.8839994954452683,-1.9039686950781896
5.676584942460931,3.5574934563649454,0.8649598084944865,-2.1041576417208714
5.71215987702458,3.645755802315643,0.8439182320772778,-2.3134218198836187
5.748617435047736,3.7421956198183635,0.8207840138784416,-2.5329265679591573
5.78603939124592,3.848169756048821,0.79545474819885,-2.7640893328056704
5.824521088806408,3.965215724115853,0.7678138548707932,-3.008613106391556
5.864173246047566,4.095073295358923,0.7377277238068777,-3.2685153714268176
5.905123979001155,4.239695708392117,0.7050425700926095,-3.5461416834544557
5.947520936085077,4.401234455968966,0.669581153258065,-3.844141682074292
5.9915332806447665,4.581966134421812,0.6311397364373221,-4.165363755267421
6.037352941988985,4.784101094669182,0.5894860988846479,-4.512584468014367
6.085193952935676,5.009362315930013,0.5443602542045042,-4.88791717673803
6.135287576094977,5.2581383658003205,0.49548108243712385,-5.291626000729178
6.18786895975298,5.527899104588557,0.4425648224298321,-5.719910031360508
6.243147950798866,5.810488288130765,0.385365722116227,-6.16111815138254
6.301252833680174,6.088163372996073,0.3237545406024016,-6.5902135292919155
6.362134467410135,6.329571295807666,0.25785240530948245,-6.963155188992406
6.4254301803682115,6.49005832991544,0.18822085341955838,-7.217364330079643
6.490330763667366,6.523797349013575,0.11604721011876196,-7.288763275900491
6.555568737157501,6.408850726148959,0.04315957735975705,-7.146922658700917
6.619657244418991,6.165837777675146,-0.028309649227252126,-6.821166891148115
6.681315622195743,5.846488421079677,-0.09652131813873328,-6.38443037632084
6.7397805064065395,5.503226661624016,-0.1603656219019417,-5.910601770890293
6.794812773022779,5.170413486908324,-0.21947163961084462,-5.4482777937429425
6.846516907891862,4.864067323022283,-0.27395441754827404,-5.020390908272407
6.895157581122085,4.588709098664519,-0.32415832663099814,-4.633783744237906
6.94104467210873,4.343300451921082,-0.3704961640733772,-4.287505160030806
6.984477676627941,4.124669236852821,-0.4133712156736853,-3.9775947983540734
7.025724368996469,3.9291437812548793,-0.453147163657226,-3.6993679189343256
7.065015806809018,3.7532310029831066,-0.4901408428465693,-3.448366620486474
7.1025481168388485,3.593846680771004,-0.524624509051434,-3.2206861469293053
7.138486583646558,3.4483537545298226,-0.5568313705207271,-3.013032730706525
7.172970121191856,3.3145268059606776,-0.5869616978277923,-2.8226775141304628
7.206115389251463,3.190494289501216,-0.615188472969097,-2.6473783975633434
7.2380203321464744,3.074679631450052,-0.6416622569447303,-2.4852992918014163
7.268767128460975,2.9657488685139186,-0.6665152498627445,-2.3349375460303574
7.298424617146114,2.8625667843273725,-0.689864625323048,-2.1950623744814663
7.3270502849893875,2.7641612334633234,-0.7118152490678628,-2.0646639469019488
7.35469189732402,2.6696945712635576,-0.7324618885368822,-1.942911735023543
7.381388843036656,2.5784409620515176,-0.7518910058871177,-1.8291205065305893
7.407173252657171,2.4897684320287845,-0.7701822109524236,-1.7227224925818867
7.432070936977459,2.4031246999681732,-0.7874094358782424,-1.6232444924255562
7.456102183977141,2.318025990659146,-0.803641880802498,-1.5302889233113928
7.479282443883732,2.2340481883607604,-0.818944770035612,-1.4435180403600445
7.5016229257673395,2.150819814278175,-0.8333799504392124,-1.3626407297966727
7.5231311239101215,2.0680164146841027,-0.8470063577371791,-1.2874014209334979
7.543811288056962,1.9853560285694396,-0.8598803719465141,-1.2175707720625726
7.563664848342657,1.9025954697703384,-0.8720560796671398,-1.1529378683515514
7.58269080304036,1.8195272120437855,-0.8835854583506554,-1.0933037309686093
7.600886075160798,1.7359767094899887,-0.8945184956603415,-1.0384759804122297
7.618245842255697,1.6518000212676922,-0.9049032554644638,-0.9882645271463193
7.634763842468374,1.5668816403150696,-0.914785900735927,-0.9424781823222902
7.650432658871525,1.4811324518735367,-0.92421068255915,-0.9009220933015634
7.66524398339026,1.3944877697413436,-0.9332199034921655,-0.863395915154086
7.679188861087674,1.3069054168247316,-0.9418538626437064,-0.8296926322147639
7.692257915255921,1.2183638320083643,-0.950150788965854,-0.7995979447078774
7.704441553576005,1.1288601978460306,-0.9581467684129328,-0.7728901356596003
