th1 (rad),w1 (rad/s),th2 (rad),w2 (rad/s),a1 (rad/s^2),a2 (rad/s^2)
0.23161007131334227,-2.8108973159219097,0.7427439202984577,0.08690135395587377,3.75729835288286,-13.769908785538327
0.20350109815412318,-2.773324332393081,0.7436129338380164,-0.05079773389950949,4.050872096540094,-14.063486563053026
0.17576785483019236,-2.73281561142768,0.7431049564990213,-0.19143259953003977,4.3208612965351785,-14.287760120066016
0.14843969871591556,-2.6896069984623283,0.7411906305037209,-0.33431020073069995,4.575466342100232,-14.452785741585643
0.12154362873129228,-2.643852335041326,0.7378475284964139,-0.4788380581465564,4.821719854041433,-14.56740586904288
0.09510510538087902,-2.5956351365009116,0.7330591479149483,-0.6245121168369852,5.065481966207992,-14.639247277224358
0.0691487540158699,-2.544980316838832,0.7268140267465785,-0.7709045896092288,5.311501509704702,-14.674814543896497
0.04369895084748157,-2.4918653017417847,0.7191049808504861,-0.9176527350481938,5.563512449749383,-14.679634663192875
0.018780297830063724,-2.436230177244291,0.7099284535000042,-1.0644490816801224,5.824344689890037,-14.65842201035711
-0.005582003942379187,-2.3779867303453908,0.699283962683203,-1.2110333017836936,6.096036094837733,-14.61524360286692
-0.029361871245833095,-2.3170263693970132,0.6871736296653661,-1.3571857378123628,6.379938172540146,-14.553672489548536
-0.05253213493980323,-2.253226987671612,0.6736017722872425,-1.5027224627078482,6.676811580320546,-14.476922482873514
-0.07506440481651935,-2.1864588718684064,0.658574547660164,-1.6474916875365833,6.98690988511953,-14.38796086675138
-0.09692899353520341,-2.116589773017211,0.6420996307847981,-1.791371296204097,7.31005120341379,-14.28959768579219
-0.11809489126537552,-2.043489260983073,0.6241859178227572,-1.934267273062019,7.645677787903737,-14.184551177824071
-0.13852978387520626,-1.9670324831040356,0.604843245092137,-2.0761127848402596,7.99290354567994,-14.07548915765393
-0.15820010870624662,-1.8871034476472361,0.5840821172437345,-2.2168676764167987,8.350549019031757,-13.965045896653379
-0.177071143182719,-1.8035979574569185,0.5619134404795665,-2.3565181353833324,8.717162625335662,-13.855813380564365
-0.19510712275728817,-1.716426331203562,0.5383482591257331,-2.495076269188976,9.091025978789657,-13.750304808797114
-0.21227138606932378,-1.6255160714156653,0.5133974964338434,-2.632579317276947,9.470139912353867,-13.650886814019888
-0.22852654678348044,-1.5308146722921268,0.4870717032610739,-2.769088185417146,9.852186370905883,-13.559675090894409
-0.24383469350640172,-1.432292808583068,0.45938082140690245,-2.90468493632609,10.234459640535515,-13.47838587835225
-0.2581576215922324,-1.3299482121777129,0.43033397204364154,-3.0394687951096127,10.613758420678755,-13.408133017798153
-0.2714571037140095,-1.2238106279709253,0.3999392840925454,-3.173550125287594,10.986228108953055,-13.349157173069528
-0.2836952099937188,-1.1139483468813949,0.3682037828396695,-3.3070416970182896,11.347140571541255,-13.300470501643616
-0.2948346934625327,-1.0004769411659824,0.3351333658694866,-3.4400464020347257,11.690597111477947,-13.25939723930802
-0.30483946287419256,-0.8835709700512029,0.30073290184913937,-3.572640374427806,12.009140316406414,-13.220989606369985
-0.31367517257470456,-0.7634795668871387,0.2650064981048613,-3.7048502704915056,12.293263790753132,-13.17730160870678
-0.32130996824357594,-0.6405469289796074,0.22795799539994627,-3.836623286578573,12.530818574832955,-13.116514936504672
-0.327715437533372,-0.5152387432312778,0.18959176253416055,-3.96778843594362,12.706336272530628,-13.021938071513807
-0.3328678249656848,-0.38817538050597156,0.14991387817472435,-4.098007816658758,12.800328661937247,-12.870951820159348
-0.3367495787707445,-0.2601720938865991,0.10893380000813677,-4.226717334860352,12.788690575256433,-12.634064181893509
-0.33935129970961053,-0.13228518813403478,0.06666662665953324,-4.3530579766792865,12.642434548963811,-12.274375774786058
-0.3406741515909509,-0.00586084264439668,0.023136046892740375,-4.475801734427147,12.328120652785445,-11.747943273475713
-0.34073276001739483,0.11742036388345778,-0.0216219704515311,-4.593281167161904,11.809487359355966,-11.005729199589952
-0.33955855637856025,0.23551523747701744,-0.06755478212315014,-4.703338459157804,11.050867035290727,-9.997944863568504
-0.33720340400379006,0.3460239078299247,-0.11458816671472818,-4.803317907793489,10.022844946640994,-8.6814416520615
-0.33374316492549083,0.44625235729633467,-0.16262134579266307,-4.890132324314104,8.71010841891447,-7.030128895090722
-0.3292806413525275,0.5333534414854794,-0.2115226690358041,-4.960433613265011,7.120408846012416,-5.047018514326231
-0.3239471069376727,0.6045575299456035,-0.2611270051684542,-5.010903798408274,5.292186563612856,-2.7746313092596795
-0.31790153163821666,0.6574793955817321,-0.31123604315253695,-5.03865011150087,3.2973644019221013,-0.2990643044535457
-0.3113267376823993,0.6904530396009531,-0.36162254426754564,-5.041640754545406,1.23618007765399,2.2565149048383275
-0.3044222072863898,0.702814840377493,-0.4120389518129997,-5.019075605497022,-0.7765860032800638,4.749836924404127
-0.2973940588826149,0.6950489803446923,-0.4622297078679699,-4.971577236252981,-2.630752345281624,7.044624612783042
-0.29044356907916796,0.668741456891876,-0.5119454802304997,-4.90113099012515,-4.239047289343643,9.034499789614987
-0.2837561545102492,0.6263509839984396,-0.5609567901317511,-4.810785992229,-5.548567046847058,10.657681531313562
-0.2774926446702648,0.570865313529969,-0.6090646500540412,-4.704209176915865,-6.542700446779007,11.8990025917474
-0.27178399153496513,0.505438309062179,-0.6561067418231998,-4.585219150998391,-7.235014673042443,12.781380233546948
-0.26672960844434335,0.43308816233175457,-0.7019589333331837,-4.457405348662921,-7.659061579832454,13.352118448609632
-0.2623987268210258,0.35649754653343,-0.746532986819813,-4.323884164176825,-7.85804935364398,13.66930108377048
-0.2588337513556915,0.2779170529969902,-0.7897718284615812,-4.1871911533391195,-7.876789423810521,13.791408072773363
-0.2560545808257216,0.199149158758885,-0.8316437399949724,-4.049277072611386,-7.756630983883997,13.770995924139164
-0.25406308923813276,0.12158284892004503,-0.8721365107210863,-3.9115671133699945,-7.5330005135631595,13.651841586283837
-0.2528472607489323,0.04625284378441344,-0.9112521818547863,-3.775048697507156,-7.234752348582133,13.468437296366242
-0.2523847323110882,-0.0260946797014079,-0.9490026688298578,-3.6403643245434933,-6.884562674956162,13.246793421491242
-0.2526456791081023,-0.09494030645096951,-0.9854063120752927,-3.5078963903285807,-6.499800698067081,13.005797332939048
-0.253595082172612,-0.15993831343164033,-1.0204852759785785,-3.3778384169991904,-6.093526428533719,12.758674741809
-0.2551944653069284,-0.22087357771697752,-1.0542636601485704,-3.2502516695811003,-5.675430210637571,12.514323572036938
-0.2574032010840982,-0.27762787982335324,-1.0867661768443815,-3.125108433860731,-5.252635701059262,12.27843103142984
-0.26017947988233175,-0.33015423683394585,-1.1180172611829888,-3.0023241235464324,-4.830347901193525,12.054361272695903
-0.2634810222506712,-0.3784577158458811,-1.1480405024184532,-2.8817805108194734,-4.412357045281158,11.84383669875803
-0.26726559940913003,-0.4225812862986927,-1.1768583075266479,-2.7633421438318932,-4.001420504622416,11.647448334889631
-0.2714914122721169,-0.46259549134491684,-1.2044917289649668,-2.646867660482997,-3.599546939844936,11.465031338857317
-0.2761173671855661,-0.4985909607433662,-1.2309604055697967,-2.532217347094424,-3.208204785818713,11.295937358399643
-0.2811032767929998,-0.5306730086015533,-1.256282579040741,-2.419257973510428,-2.828473521366219,11.139229596778776
-0.2864100068790153,-0.5589577438152155,-1.2804751587758454,-2.3078656775426403,-2.461152395574762,10.993820766210357
-0.29199958431716744,-0.5835692677709631,-1.3035538155512718,-2.1979274698805367,-2.1068379214773687,10.858569242801325
-0.29783527699487705,-0.6046376469857367,-1.3255330902500773,-2.0893417774525234,-1.7659786807400029,10.732344834268458
-0.3038816534647344,-0.6222974337931367,-1.3464265080246025,-1.9820183291098388,-1.4389138025980688,10.614072563010268
-0.31010462780266573,-0.6366865718191175,-1.366246691315701,-1.875877603479736,-1.1258998079497098,10.502760604969977
-0.3164714935208569,-0.6479455698986146,-1.3850054673504983,-1.7708499974300362,-0.8271292487598468,10.39751685192896
-0.3229509492198431,-0.6562168623862131,-1.4027139673247988,-1.6668748289107467,-0.5427436330461689,10.297557341516486
-0.3295131178437052,-0.6616442987166749,-1.4193827156139063,-1.5638992554955817,-0.27284243019298593,10.202208911023023
-0.3361295608308719,-0.6643727230186047,-1.435021708168862,-1.4618771663853516,-0.01748943921824876,10.110907789061478
-0.34277328806105795,-0.6645476174107872,-1.4496404798327156,-1.3607680884947368,0.2232825730528623,10.023195375963665
-0.3494187642351658,-0.6623147916802585,-1.463248160717663,-1.2605361347351003,0.44946833161596794,9.938712129672476
-0.3560419121519684,-0.6578201083640989,-1.475853522065014,-1.1611490134383755,0.6610871784897714,9.857190232344065
-0.3626201132356094,-0.6512092365792012,-1.4874650121993978,-1.062577111114935,0.8581805762798403,9.77844553752183
-0.3691322056014014,-0.6426274308164027,-1.498090783310547,-0.9647926557397166,1.0408098072751748,9.702369169623772
-0.3755584799095654,-0.6322193327436509,-1.5077387098679442,-0.8677689640434789,1.2090537596352626,9.628919053050833
-0.3818806732370019,-0.6201287951472984,-1.516416399508379,-0.7714797735129706,1.3630067444696976,9.558111577845473
-0.38808196118847493,-0.6064987277026014,-1.5241311972435088,-0.6758986577345159,1.50277632353908,9.490013555685588
-0.39414694846550097,-0.5914709644672106,-1.530890183820854,-0.58099852217766,1.6284811512536752,9.42473457927106
-0.4000616581101731,-0.5751861529546738,-1.5367001690426305,-0.4867511763849494,1.7402488498647957,9.362419866450256
-0.40581351963971984,-0.5577836644560258,-1.54156768080648,-0.39312697772044686,1.838213945682114,9.303243645340002
-0.4113913562842801,-0.5394015249992047,-1.5454989505836845,-0.3000945412670468,1.9225158986641848,9.247403116508524
-0.41678537153427214,-0.5201763660125628,-1.548499895996355,-0.2076205101019616,1.9932972592358098,9.195113011787011
-0.4219871351943978,-0.5002433934202047,-1.5505761010973746,-0.11566937998409146,2.0507019857728612,9.146600755545043
-0.4269895691285998,-0.4797363735624761,-1.5517327948972155,-0.02420337242864104,2.0948739547071735,9.102102222612011
-0.4317869328642246,-0.4587876340154044,-1.5519748286215018,0.06681764979747908,2.1259556933051322,9.061858076887185
-0.43637480920437866,-0.4375280770823531,-1.551306652123527,0.15743623056635092,2.144087363397679,9.02611066556444
-0.4407500899752022,-0.4160872034483763,-1.5497322898178636,0.24769733722199533,2.149406023131326,8.995101435344488
-0.444910962009686,-0.394593143217063,-1.5472553164456437,0.3376483515754402,2.142045193559354,8.969068828554866
-0.44885689344185664,-0.37317269128146946,-1.5438788329298894,0.42733903986098887,2.1221347579662138,8.948246608251605
-0.45258862035467134,-0.3519513437018073,-1.5396054425312795,0.516821505943505,2.08980122458838,8.932862551583911
-0.4561081337916894,-0.3310533314559235,-1.5344372274718445,0.606150131459344,2.0451683882688827,8.92313743932611
-0.4594186671062486,-0.3106016475732347,-1.528375726157251,0.6953815058526052,1.9883584340336737,8.919284255765373
-0.46252468358198096,-0.290718063232898,-1.521421911098725,0.7845743484102589,1.9194935361780618,8.921507496172119
-0.46543186421430993,-0.2715231278711174,-1.5135761676146224,0.8737894233719801,1.8386980209101873,8.930002457770188
-0.4681470954930211,-0.25313614766201553,-1.5048382733809027,0.963089447949682,1.746101179803831,8.94495436311318
-0.4706784569696412,-0.23567513586397723,-1.495207378901406,1.0525389915808139,1.641840846381269,8.966537130396677
-0.473035208328281,-0.21925672740016455,-1.4846819889855978,1.1422043628847807,1.5260678804763437,8.99491156143811
-0.47522777560228263,-0.2039960485954011,-1.4732599453567499,1.2321534784991617,1.3989517463587777,9.030222662304482
-0.47726773608823664,-0.19000653113181332,-1.4609384105717582,1.3224557051222066,1.2606874230760212,9.07259574075781
-0.4791678013995548,-0.1773996569010531,-1.447713853520536,1.4131816625297846,1.1115039516908483,9.122130835045317
-0.4809417979685653,-0.16628461738414463,-1.433582036895238,1.5044029708802378,0.9516750071588661,9.178894915564753
-0.4826046441424067,-0.15676786731255596,-1.4185380071864357,1.5961919200358854,0.7815319860837897,9.242911159286662
-0.4841723228155323,-0.14895254745171807,-1.402576087986077,1.688621031628752,0.6014802294829844,9.314144420513292
-0.4856618482900495,-0.14293774515688823,-1.3856898776697895,1.7817624758338848,0.41201915609455897,9.392481804168092
-0.4870912257416184,-0.13881755359594264,-1.3678722529114506,1.8756872938755658,0.21376727035323526,9.4777069831118
-0.48847940127757783,-0.1366798808924103,-1.349115379972695,1.9704643637066837,0.007493232226967921,9.569466584186559
-0.4898462000865019,-0.1366049485701406,-1.329410736335628,2.0661590295485492,-0.20584556728816286,9.66722659770694
-0.49121224957220333,-0.13866340424302223,-1.3087491460401426,2.162831295525619,-0.4250551981901543,9.770216348417925
-0.49259888361463355,-0.14291395622492378,-1.2871208330848865,2.260533459009798,-0.6486461329097187,9.877357122946044
-0.49402802317688277,-0.14940041755402098,-1.2645154984947884,2.3593070302392585,-0.8747606564161982,9.987172124035512
-0.49552202735242296,-0.15814802411818296,-1.2409224281923958,2.4591787514796137,-1.1010842974456485,10.097674099749728
-0.4971035075936048,-0.16915886709263944,-1.2163306406775998,2.560155492477111,-1.324738876986091,10.20622692369337
-0.49879509626453117,-0.18240625586250037,-1.1907290857528288,2.662217761714045,-1.542155210065924,10.309377823169143
-0.5006191588231562,-0.1978278079631596,-1.1641069081356883,2.765311539945736,-1.7489246206109264,10.402658247399241
-0.5025974369027878,-0.21531705416926886,-1.1364537927362308,2.8693381224197285,-1.9396306610787286,10.48035410697029
-0.5047506074444805,-0.23471336078005614,-1.1077604115120336,2.9741416634894313,-2.1076663601405525,10.5352511007717
-0.5070977410522811,-0.25579002438146164,-1.0780189948771393,3.0794941744971482,-2.2450487144186795,10.5583691233484
-0.5096556412960958,-0.27824051152564844,-1.0472240531321677,3.1850778657306322,-2.3422518578339657,10.538712518590023
-0.5124380464113523,-0.3016630301039881,-1.0153732744748614,3.2904649909165324,-2.3880941333263093,10.463081295544551
-0.5154546767123922,-0.32554397143725117,-0.9824686245656961,3.395095803871978,-2.369732309501313,10.316012662572657
-0.5187101164267647,-0.34924129453226427,-0.9485176665269763,3.4982559304977046,-2.2728371070608273,10.079950726260611
-0.5222025293720873,-0.37196966560287253,-0.9135351072219993,3.5990554377603106,-2.082043884227901,9.735769512140477
-0.525922226028116,-0.39279010444515156,-0.8775445528443961,3.696413132881715,-1.7817821976702695,9.26378915241218
-0.5298501270725675,-0.41060792642185423,-0.840580421515579,3.789051024405837,-1.3575739041713626,8.645408161329536
-0.5339562063367861,-0.42418366546356784,-0.8026899112715207,3.8755051060191326,-0.7978330923832223,7.865401218568958
-0.5381980429914218,-0.43216199638740005,-0.7639348602113294,3.954159118204822,-0.09608591020695734,6.91477920533444
-0.5425196629552959,-0.4331228554894696,-0.7243932690292811,4.0233069102581664,0.7466470858783358,5.79387417146275
-0.5468508915101905,-0.4256563846306862,-0.6841601999266995,4.081245651972794,1.7197670029375023,4.515039539919193
-0.5511074553564974,-0.4084587146013112,-0.6433477434069715,4.126396047371986,2.80192575220283,3.104150536416053
-0.5551920425025105,-0.38043945707928295,-0.6020837829332517,4.1574375527361465,3.9613758828182317,1.6001013285916934
-0.5589964370733034,-0.34082569825110065,-0.5605094074058903,4.173438566022063,5.158191267396641,0.0518441108853394
-0.5624046940558144,-0.28924378557713426,-0.5187750217456697,4.173957007130916,6.348212849468019,-1.4868170135453842
-0.5652971319115857,-0.22576165708245408,-0.4770354516743605,4.159088836995462,7.488001564035048,-2.963700386918864
-0.5675547484824103,-0.1508816414421036,-0.4354445633044059,4.129451833126273,8.53969383467718,-4.334506367620784
-0.5690635648968313,-0.06548470309533178,-0.39415004497314315,4.0861067694500655,9.4746629592944,-5.567410206125203
-0.5697184119277846,0.029261926497612237,-0.3532889772786425,4.030432667388814,10.275301456393091,-6.645108845043215
-0.5694257926628085,0.13201494106154316,-0.31298465060475433,3.9639815789383817,10.934849502817782,-7.56427025388084
-0.568105643252193,0.241363436089721,-0.27334483481537053,3.8883388763995734,11.455720295504534,-8.33303295221828
-0.5656920088912958,0.35592063904476634,-0.2344614460513748,3.8050085468773904,11.847027915300531,-8.967526393504567
-0.5621328025008481,0.4743909181977717,-0.1964113605826009,3.715333282942345,12.121992468016039,-9.488319190370818
-0.5573888933188703,0.5956108428779321,-0.15925802775317743,3.6204500910386366,12.295690637292136,-9.917407504008596
-0.551432784890091,0.7185677492508534,-0.12305352684279107,3.521276015998551,12.383372729828983,-10.276016065214645
-0.5442471073975824,0.8424014765491432,-0.08784076668280556,3.418515855346404,12.399370996189448,-10.583220895000627
-0.5358230926320909,0.9663951865110377,-0.053655608129341524,3.312683646396398,12.356509541039822,-10.855254315334554
-0.5261591407669806,1.089960281921436,-0.020528771665377546,3.2041311032430526,12.265883343191456,-11.105302250702335
-0.5152595379477662,1.2126191153533505,0.01151253936705298,3.093078080736029,12.136877004993481,-11.343614196488602
-0.5031333467942327,1.3339878854032854,0.04244332017441327,2.979641938771143,11.97731847429838,-11.577783825882465
-0.48979346794019984,1.453761070146269,0.0722397395621247,2.8638641005123184,11.793692724542236,-11.813100877182082
-0.47525585723873714,1.5716979973916914,0.10087838056724789,2.7457330917404974,11.591366776853338,-12.052911678542158
-0.45953887726482023,1.6876116651602246,0.12833571148465286,2.6252039749550757,11.374797524740693,-12.298952884329768
-0.44266276061321796,1.8013596404076315,0.15458775123420362,2.502214446111778,11.147707561137047,-12.551641102112805
-0.42464916420914167,1.912836716019002,0.1796098956953214,2.37669803509065,10.913222799182066,-12.810311981019737
-0.40552079704895166,2.0219689440108226,0.2033768760462279,2.248594915280453,10.673970547631228,-13.073408123653858
-0.38530110760884345,2.128708649487135,0.22586282519903242,2.1178608340439142,10.432139086804527,-13.338617657196876
-0.3640140211139721,2.23303004035518,0.24704143353947156,1.9844746574719454,10.189500623136828,-13.60296577428295
-0.3416837207104203,2.334925046586548,0.266886180114191,1.848444999729116,9.947399428019576,-13.862860939111918
-0.3183344702445548,2.4343990408667437,0.28537063011148217,1.7098163903379968,9.706706427801063,-14.114096358922481
-0.2939904798358874,2.5314661051447542,0.30246879401486215,1.568675426748772,9.467740816003902,-14.351806175370545
-0.26867581878443986,2.6261435133047932,0.3181555482823499,1.4251573649950664,9.23015866358053,-14.570374993339206
-0.24241438365139192,2.7184450999405985,0.33240712193230054,1.2794536150616744,8.99280828509275,-14.763299222900603
-0.21522993265198595,2.808373182791526,0.3452016580829173,1.1318206228326684,8.753552643165643,-14.92299977364697
-0.18714620082407069,2.8959087092231823,0.356519864311244,0.9825906250961987,8.509060863400416,-15.040588638151045
-0.15818711373183886,2.9809993178571865,0.36634577056220596,0.8321847387146882,8.254574732483595,-15.105597867138979
-0.128377120553267,3.0635450651820224,0.3746676179493528,0.6811287600432985,7.98366286897183,-15.10568975959516
-0.09774166990144678,3.1433816938717407,0.3814789055497858,0.5300718624473468,7.687986313688599,-15.026383437290573
