th1 (rad),w1 (rad/s),th2 (rad),w2 (rad/s),a1 (rad/s^2),a2 (rad/s^2)
3.5704533831911394,-2.624756004765854,3.1581556907264425,2.6027868191050234,2.3761358882761296,0.7459558555557164
3.5442058231434808,-2.600994645883093,3.1841835589174927,2.6102463776605807,2.3648658579157105,0.5873499462230304
3.5181958766846497,-2.5773459873039357,3.2102860226940986,2.616119877122811,2.3578475008581465,0.438899798230483
3.4924224168116105,-2.5537675122953543,3.2364472214653266,2.620508875105116,2.35131101339995,0.3047131356541138
3.466884741688657,-2.5302544021613547,3.2626523102163776,2.623556006461657,2.341214241658146,0.18939575187414484
3.4415821976670435,-2.506842259744773,3.2888878702809943,2.6254499639803988,2.3235412614710387,0.09761871034493032
3.4165137750695957,-2.4836068471300625,3.3151423699207982,2.626426151083848,2.294668440226681,0.03359307637447445
3.391677706598295,-2.4606601627277955,3.341406631431637,2.626762081847593,2.2517422486942604,0.0005307137947635181
3.367071104971017,-2.438142740240853,3.367674252250113,2.6267673889855407,2.192998605152798,0.00018992158529276864
3.3426896775686084,-2.416212754189325,3.393941926139968,2.6267692882013938,2.117957477960355,0.03259890892397963
3.3185275500267153,-2.3950331794097215,3.420209619021982,2.6270952772906337,2.0274505469698894,0.09601597351007586
3.294577218232618,-2.3747586739400224,3.446480571794888,2.6280554370257345,1.923477266807078,0.18713221473012495
3.2708296314932177,-2.3555239012719515,3.4727611261651457,2.6299267591730358,1.8089230746914566,0.301468504511986
3.2472743924804983,-2.337434670525037,3.499060393756876,2.632941444218156,1.687200031293329,0.433881176963234
3.223900045775248,-2.3205626702121034,3.5253898081990576,2.637280255987788,1.5618778160928308,0.5790803922145908
3.200694419073127,-2.304943892051175,3.5517626107589355,2.643071059909934,1.4363626077541534,0.7320800572721224
3.177644980152615,-2.290580265973633,3.578193321358035,2.6503918604826553,1.3136598824474837,0.8885287266990577
3.154739177492879,-2.2774436671491585,3.6046972399628614,2.6592771477496457,1.1962333038447317,1.0449046864694314
3.1319647408213873,-2.265481334110711,3.631290011440358,2.66972619461434,1.085952477639254,1.1985858207886382
3.1093099274802802,-2.2546218093343184,3.6579872733865013,2.6817120528222262,0.9841106014417008,1.3478213796390583
3.086763709386937,-2.2447807033199014,3.6848043939147237,2.6951902666186167,0.891488869846014,1.4916385597344166
3.064315902353738,-2.2358658146214414,3.71175629658091,2.710106652215961,0.80844588944747,1.6297147418234252
3.0419572442075236,-2.227781355726967,3.7388573631030697,2.726403799634195,0.7350148054856043,1.7622398612015886
3.0196794306502537,-2.2204312076721107,3.7661214010994115,2.7440261982462113,0.6709962276946807,1.8897857178407573
2.9974751185735324,-2.213721245395164,3.793561663081874,2.762924055424619,0.6160400044383043,2.0131919837437398
2.975337906119581,-2.207560845350781,3.82119090363612,2.7830559752620565,0.5697127813800291,2.133473151668682
2.953262297666073,-2.2018637175369804,3.8490214633887403,2.8043907067787432,0.5315509523208329,2.2517468848083086
2.9312436604907033,-2.196548208013772,3.8770653704565277,2.8269081756268264,0.5011002083883912,2.3691819627722053
2.9092781784105655,-2.191537205929888,3.905334452212796,2.8505999952545484,0.4779436727771496,2.4869629084984948
2.8873628063512666,-2.1867577692021167,3.9338404521653416,2.8754696243395332,0.4617208339550485,2.606268047414463
2.8654952286592454,-2.182140560862566,3.962595148408737,2.901532304813678,0.45213937925465447,2.7282578800840627
2.84367382305062,-2.1776191670700196,3.991610471456874,2.9288148836145185,0.4489817428739635,2.854071011224847
2.82189763137992,-2.17312934964128,4.0208986202930195,2.957355593726767,0.4521078222900867,2.9848253166063166
2.800166337883507,-2.1686082714183788,4.050472176230287,2.98720384689283,0.4614549458202782,3.121622450365765
2.778480255169323,-2.163993721960176,4.080344214699216,3.0184200713964877,0.47703582078943907,3.2655541460004325
2.756840317949721,-2.159223363752282,4.110528415413181,3.051075612856492,0.49893486444443286,3.4177090181032006
2.7352480843121985,-2.154234015107838,4.141039171541745,3.0852527030375243,0.5273030126627157,3.579178716111231
2.71370574416112,-2.1489609849812106,4.171891698572121,3.1210444901986367,0.5623508001175855,3.7510623084238133
2.6922161343113076,-2.143337476980035,4.203102143474107,3.158555113282875,0.6043391892910112,3.9344676768160434
2.670782759541507,-2.1372940850871247,4.234687694606936,3.1978997900510353,0.6535672689877616,4.130508463602403
2.6494098186906356,-2.130758412397247,4.266666692507446,3.239204874687059,0.7103555152260205,4.340294715792573
2.628102234566663,-2.123654857244987,4.299058741254316,3.282607821844985,0.775022772379978,4.5649147794477525
2.6068656859942134,-2.115904629521187,4.331884819472766,3.3282569696394626,0.8478544277950667,4.805405169744967
2.5857066396990014,-2.1074260852432367,4.3651673891691605,3.376311021336912,0.9290583702084171,5.062704022344457
2.564632378846569,-2.0981355015411527,4.39893049938253,3.4269380615603566,1.0187041886521895,5.337582255225163
2.543651023831157,-2.0879484596546307,4.433199879998133,3.4803138841126082,1.1166396341801637,5.630544672836807
2.522771539234611,-2.076782063312829,4.468003018839259,3.5366193308409763,1.2223765993825206,5.941690881448416
2.5020037186014825,-2.0645582973190035,4.503369212147669,3.5960362396554606,1.3349367854687335,6.2705230703491805
2.4813581356282923,-2.051208929464316,4.539329574544224,3.6587414703589523,1.4526449424752468,6.61568459566181
2.460846046333649,-2.0366824800395635,4.575916989247814,3.7248983163155702,1.572855405615565,6.974610293578269
2.4404792215332534,-2.0209539259834077,4.613165972410969,3.794644419251353,1.691596296453296,7.343067442545029
2.4202696822734193,-2.0040379630188747,4.651112416603483,3.8680750936768034,1.8031165199766614,7.714567011842527
2.4002293026432304,-1.986006797819108,4.689793167540251,3.945220763795229,1.8993258662744283,8.07963132620887
2.3803692346650394,-1.9670135391563637,4.729245375178203,4.026017077057317,1.9691318657412344,8.424921547475746
2.3606990992734755,-1.9473222204989513,4.769505545948776,4.110266292532075,1.9977041613113977,8.73226397055648
2.341225877068486,-1.9273451788858373,4.810608208874096,4.19758893223764,1.9657455083563695,8.977678165184274
2.3219524252796275,-1.9076877238022736,4.8525840981964725,4.287365713889482,1.8489260799557266,9.130613452753016
2.3028755480416048,-1.8891984630027163,4.895457755335367,4.378671848417012,1.6177488752752105,9.153749423393322
2.2839835634115775,-1.8730209742499642,4.939244473819537,4.4702093426509455,1.2382501658091032,9.003900543050229
2.265253353669078,-1.8606384725918732,4.983946567246046,4.560248348081448,0.6740629191667321,8.634735570490067
2.246646968943159,-1.8538978434002058,5.02954905072686,4.646595703786349,-0.1096020474786031,8.002066240784316
2.228107990509157,-1.8549938638749919,5.076015007764724,4.726616366194192,-1.1397140882204717,7.072186792743205
2.209558051870407,-1.8663910047571965,5.123281171426666,4.797338234121624,-2.427189242434941,5.832936392827236
2.190894141822835,-1.890662897181546,5.1712545537678825,4.855667598049896,-3.9580114912474884,4.3057194979139375
2.1719875128510195,-1.9302430120940208,5.219811229748381,4.898724793029036,-5.68635893174651,2.5549656674390215
2.152685082730079,-1.987106601411486,5.268798477678671,4.924274449703426,-7.533222598017405,0.6903635348687628
2.1328140167159644,-2.06243882739166,5.318041222175705,4.931178085052114,-9.393404651879314,-1.1420329485230782
2.1121896284420476,-2.156372873910453,5.367353003026227,4.919757755566883,-11.15119820231376,-2.7803122430468004
2.090625899702943,-2.2678848559335907,5.416550580581895,4.891954633136415,-12.701241396326353,-4.074238043014696
2.067947051143607,-2.394897269896854,5.465470126913259,4.851212252706269,-13.968120872400487,-4.911293991182337
2.0439980784446385,-2.5345784786208587,5.513982249440322,4.802099312794446,-14.918364475827715,-5.232742902766061
2.01865229365843,-2.683762123379136,5.562003242568267,4.749771883766785,-15.561725805525274,-5.035470176574292
1.9918146724246386,-2.8393793814343886,5.609500961405934,4.699417182001042,-15.943104875900119,-4.361246443543335
1.9634208786102947,-2.99881043019339,5.6564951332259445,4.6558047175656085,-16.129481248596512,-3.2790857811052114
1.9334327743083608,-3.160105242679355,5.703053180401601,4.623013859754557,-16.196666075808135,-1.8669982727321053
1.9018317218815672,-3.322071903437436,5.749283318999146,4.604343877027236,-16.21914064962069,-0.19744694816701744
1.868611002847193,-3.484263309933643,5.795326757769419,4.602369407545566,-16.26416728535578,1.6719194073706927
1.8337683697478566,-3.646904982787201,5.841350451844875,4.619088601619272,-16.38980516269418,3.7027647483484665
1.7972993199199847,-3.810803034414143,5.887541337861068,4.656116249102757,-16.645762918427046,5.877285628788549
1.7591912895758433,-3.9772606635984133,5.934102500352095,4.714889105390642,-17.07598214658787,8.197768059459484
1.7194186829398592,-4.148020485064292,5.981251391406001,4.796866785985237,-17.72213994361583,10.685796579549674
1.6779384780892164,-4.32524188450045,6.029220059265854,4.903724751780734,-18.62762932827228,13.382039812704853
1.6346860592442118,-4.511518177783173,6.078257306783661,5.037545149907783,-19.84189387323461,16.347224004617193
1.5895708774663801,-4.709937116515519,6.128632758282739,5.201017389953955,-21.425213519752763,19.66470778681363
1.5424715063012249,-4.924189251713047,6.180642932182279,5.397664467822091,-23.454143591380493,23.444932978494954
1.4932296137840944,-5.158730687626852,6.234619576860499,5.63211379760704,-26.02773521846569,27.83179295319416
1.441642306907826,-5.419008039811509,6.2909407148365695,5.910431727138982,-29.274191525229885,33.010261549901315
1.387452226509711,-5.711749955063808,6.35004503210796,6.240534342637995,-33.356095745873276,39.21251806634498
1.3303347269590728,-6.045310912522541,6.412450375534339,6.632659523301444,-38.46802485168387,46.713799982512285
1.2698816178338475,-6.429991161039379,6.4787769707673535,7.099797523126567,-44.80855397048155,55.79274528637105
1.2055817062234537,-6.878076700744195,6.549774945998619,7.657724975990277,-52.4774034083203,66.58726792096466
1.1368009392160117,-7.402850734827398,6.626352195758522,8.323597655199924,-61.17065809518717,78.66790929927063
1.0627724318677376,-8.01455731577927,6.7095881723105215,9.11027674819263,-69.38443208395566,89.92219315003533
0.9826268587099449,-8.708401636618825,6.800690939792448,10.009498679692983,-72.68934456502686,94.13407998535753
0.8955428423437567,-9.435295082269095,6.900785926589378,10.95083947954656,-61.59690045752761,77.9843426323425
0.8011898915210658,-10.051264086844371,7.010294321384843,11.730682905869983,-25.084442262088892,25.9788517215518
0.7006772506526221,-10.30210850946526,7.127601150443543,11.990471423085502,29.64626102356281,-51.869840267728414
0.5976561655579695,-10.005645899229632,7.247505864674398,11.471773020408218,68.3837406076905,-107.78129520231897
0.4975997065656732,-9.321808493152727,7.36222359487848,10.393960068385027,74.58394329958932,-118.69222312910159
0.4043816216341459,-8.575969060156833,7.466163195562331,9.207037837094012,63.65472497345289,-106.03883533475305
0.3186219310325776,-7.939421810422304,7.558233573933271,8.146649483746481,49.88089854792169,-89.63580484796854
0.23922771292835454,-7.440612824943087,7.639700068770736,7.250291435266796,37.945859509305585,-75.96720014472182
0.16482158467892366,-7.061154229850031,7.7122029831234045,6.490619433819577,28.405097357570412,-65.80956419553594
0.09421004238042335,-6.7771032562743265,7.7771091774616,5.832523791864218,20.825140685912896,-58.57513218482717
0.02643900981768009,-6.568851849415197,7.835434415380242,5.246772470015946,14.695758440240624,-53.565357765195294
-0.03924950867647188,-6.421894265012791,7.887902140080402,4.711118892363993,9.616450236445061,-50.221731327845035
-0.10346845132659979,-6.325729762648341,7.935013329004041,4.208901579085543,5.304390560995492,-48.1304534227599
-0.1667257489530832,-6.272685857038386,7.977102344794897,3.7275970448579443,1.570140795272744,-46.982415784614105
-0.22945260752346708,-6.2569844490856585,8.014378315243476,3.2577728870118032,-1.7053926129790629,-46.53463790149215
-0.29202245201432364,-6.274038375215449,8.046956044113594,2.7924265079968817,-4.587617464019873,-46.580877570995675
-0.35476283576647816,-6.319914549855648,8.074880309193563,2.326617732286925,-7.099811765606823,-46.93100623687335
-0.41796198126503464,-6.390912667511716,8.098146486516432,1.8573076699181916,-9.231907812533393,-47.39798811408896
-0.4818711079401518,-6.48323174563705,8.116719563215614,1.3833277887773021,-10.94866865737444,-47.791999495615975
-0.5467034253965223,-6.592718432210794,8.130552841103388,0.9054077938211423,-12.198923625660168,-47.92176850145806
-0.6126306097186303,-6.714707668467396,8.139606919041599,0.4261901088065617,-12.926764751814826,-47.60308254093076
-0.6797776864033043,-6.843975315985544,8.143868820129665,-0.04984071660274586,-13.084525069571479,-46.67344045081049
-0.7482174395631597,-6.974820566681259,8.143370412963638,-0.5165751211108507,-12.646083970445869,-45.010205514417876
-0.8179656452299723,-7.101281406385717,8.138204661752528,-0.9666771762550295,-11.617970322279092,-42.547968886842206
-0.8889784592938295,-7.217461109608508,8.128537889989978,-1.3921568651234515,-10.045423775555067,-39.29009749067159
-0.9611530703899145,-7.317915347364059,8.114616321338744,-1.7850578400301673,-8.011426734488381,-35.310397213942366
-1.034332223863555,-7.398029614708943,8.096765742938443,-2.138161812169591,-5.628593650998057,-30.743494429537247
-1.1083125200106445,-7.454315551218923,8.075384124816747,-2.445596756464963,-3.025940638337842,-25.76595225774487
-1.1828556755228337,-7.484574957602302,8.050928157252097,-2.703256279042412,-0.3339649640752979,-20.5727877492861
-1.2577014250988567,-7.487914607243055,8.023895594461672,-2.908984156535273,2.3284652846582983,-15.354825947658528
-1.3325805711712873,-7.464629954396472,7.99480575289632,-3.0625324160118583,4.863043293292486,-10.281143649268714
-1.407226870715252,-7.415999521463546,7.964180428736201,-3.1653438525045456,7.196051143881376,-5.48858644169563
-1.4813868659298874,-7.344039010024733,7.932526990211156,-3.220229716921502,9.278155213622108,-1.0781209041996853
-1.5548272560301348,-7.251257457888512,7.900324693041941,-3.2310109259634987,11.08138390507566,2.883635375034624
-1.6273398306090199,-7.140443618837756,7.868014583782306,-3.2021745722131523,12.594788925021778,6.359819233420314
-1.6987442667973975,-7.014495729587538,7.835992838060174,-3.138576379878949,13.819965212277843,9.33752639592608
-1.768889224093273,-6.87629607746476,7.8046070742613844,-3.0452011159196886,14.767140705466195,11.8221044154034
-1.8376521848679206,-6.728624670410098,7.774155063102188,-2.9269800717656547,15.452132125308054,13.832226063731317
-1.9049384315720215,-6.574103349157017,7.744885262384531,-2.7886578111283415,15.894175429311792,15.395972146399538
-1.9706794650635917,-6.415161594863899,7.716998684273247,-2.6346980896643464,16.114483197511714,16.547865198988234
-2.0348310810122308,-6.2540167628887815,7.690651703376604,-2.469219437674464,16.13532537581911,17.326659989007226
-2.0973712486411187,-6.09266350913059,7.665959508999859,-2.295952837784392,15.979437543136731,17.773667386266983
-2.1582978837324247,-5.9328691336992225,7.642999980622015,-2.118216163921722,15.669601377038308,17.931420179527013
-2.217626575069417,-5.776173119928839,7.621817818982798,-1.9389019621264518,15.228293633401028,17.842547863153904
-2.2753883062687055,-5.623890183594829,7.602428799361533,-1.7604764834949127,14.677349110643208,17.548788511439735
-2.3316272081046536,-5.477116692488397,7.584824034526584,-1.5849885983805154,14.037622151879617,17.090115535486532
-2.3863983750295374,-5.336740470969601,7.568974148542779,-1.41408744302565,13.328657064100353,16.503989049563714
-2.4397657797392336,-5.203453900328597,7.554833274112522,-1.2490475525300129,12.568390434537505,15.82475522402066
-2.4918003187425195,-5.077769995983222,7.542342798587223,-1.0908000002898062,11.772909945029735,15.08321571062064
-2.542578018702352,-4.960040896532925,7.531434798584325,-0.9399678431835998,10.956288391650984,14.306378322950316
-2.5921784276676814,-4.850478012616414,7.522035120152489,-0.7969040599540966,10.130501945837873,13.517385263390032
-2.6406832077938454,-4.7491729931580355,7.514066079552948,-0.6617302073201963,9.305431478145808,12.735600965329386
-2.688174937725426,-4.656118678376577,7.507448777479746,-0.5343741976669024,8.488937268031641,11.976831079188896
-2.7347361245091917,-4.571229305696261,7.502105035503076,-0.41460588687501343,7.686991803755547,11.253638549378847
-2.7804484175661544,-4.494359387658705,7.497958976634326,-0.30206950138122496,6.903852843022171,10.57572196944037
-2.8253920114427413,-4.425320859228484,7.494938281620514,-0.19631228168682124,6.142259010633407,9.950324439286858
-2.869645220035026,-4.36389826912215,7.492975158803645,-0.09680903729395267,5.403632181824399,9.382646595612833
-2.9132842027262473,-4.309861947303906,7.492007068430706,-0.0029825713378243413,4.688273911437204,8.876243999895703
-2.9563828221992865,-4.262979208189534,7.4919772427173275,0.08577986866113269,3.995546510744287,8.43339558103647
-2.999012614281182,-4.2230237430820905,7.492835041403938,0.17011382447149737,3.3240325345516437,8.055435636564795
-3.0412428517120027,-4.1897834177365745,7.494536179648653,0.2506681808371453,2.6716691160457096,7.743046634179324
-3.0831406858893686,-4.163066726576117,7.497042861457025,0.32809864717893855,2.0358556429666796,7.496513627558426
-3.12477135315513,-4.1427081701464505,7.500323847928815,0.4030637834545228,1.4135346963283377,7.3159435862686735
-3.1661984348565944,-4.128572823183167,7.50435448576336,0.47622321931720957,0.8012470368746428,7.201454512740515
-3.207484163088426,-4.120560352814421,7.509116717956532,0.5482377644446147,0.19516182568449097,7.153340084520047
-3.24868976661657,-4.118608734557576,7.514599095600978,0.6197711652898151,-0.40891668484489796,7.172215911046658
-3.2898758539621458,-4.122697901406025,7.520796807253876,0.6914933244002817,-1.0155649465144883,7.2591534873133545
-3.331102832976206,-4.13285355087117,7.527711740497879,0.7640848592734152,-1.629777687128325,7.415807664138558
-3.3724313684849174,-4.149151327742453,7.535352589090613,0.8382429359148008,-2.2570269159568404,7.644542970168647
-3.413922881762342,-4.171721596902022,7.543735018449762,0.9146883656164873,-2.9033422974409944,7.948563358965238
-3.4556400977313624,-4.200755019876432,7.552881902105926,0.9941739992061396,-3.5754128373796665,8.332048734401775
-3.4976476479301266,-4.236509148250229,7.562823642097988,1.0774944865501572,-4.2807092835150025,8.800299552722539
-3.540012739412629,-4.279316241085379,7.57359858696349,1.1654974820773827,-5.02762506193604,9.359887212140974
-3.5828059018234826,-4.329592491704739,7.585253561784263,1.2590963541987925,-5.825630100325168,10.018801574907865
-3.62610182674053,-4.387848792707991,7.597844525326251,1.3592843699478712,-6.685425025290073,10.786575627013006
-3.66998031466761,-4.454703042960891,7.6114373690257295,1.4671501262180011,-7.6190703078973145,11.674347116939796
-3.7145273450972187,-4.530893746039864,7.62610887028791,1.583893597387399,-8.640041289683765,12.694781296457366
-3.7598362825576173,-4.617294158936702,7.641947806261784,1.7108414103519727,-9.763117457573252,13.861715911104422
-3.806009224146984,-4.714925333512435,7.659056220365303,1.849458569463017,-11.00393867684427,15.189279239494418
-3.8531584774821086,-4.824964720280877,7.677550806059934,2.001351361857961,-12.377928375372724,16.690040453168592
-3.9014081246849175,-4.948744004034604,7.697564319678513,2.168251766389647,-13.898055144230684,18.37142453572357
-3.9508955647252635,-5.087724555476911,7.71924683734241,2.3519660117468826,-15.57052264496588,20.22908193948937
