th1 (rad),w1 (rad/s),th2 (rad),w2 (rad/s)
0.23741355993580873,2.1732367857545283,6.169447398103919,2.196528898933979
0.259145927793354,2.0941974067998594,6.191412687093258,2.298113371933851
0.2800879018613526,2.0128393272811493,6.214393820812597,2.398570549191258
0.3002162951341641,1.9293953487606232,6.238379526304509,2.4975737326942697
0.3195102486217703,1.844111776741512,6.2633552636314525,2.594811238849405
0.33795136638918544,1.7572529961677512,6.289303376019946,2.6899799711106347
0.35552389635086296,1.6691059791581193,6.316203175731053,2.7827784970400296
0.37221495614244415,1.5799846492326641,6.344030960701453,2.8728997359693205
0.3880148026347708,1.4902339883650977,6.372759958061146,2.9600234191600916
0.40291714251842176,1.4002337138830114,6.402360192252747,3.0438085694360804
0.41691947965725185,1.3104012715028424,6.432798277947108,3.123886362160925
0.43002349237228027,1.2211937913975939,6.464037141568717,3.199853871070566
0.4422354302862562,1.1331085437159647,6.496035680279423,3.2712693614766817
0.4535665157234159,1.0466813231195056,6.52874837389419,3.337649950805868
0.46403332895461097,0.9624821127161944,6.562124873402248,3.398472580709216
0.4736581500817729,0.8811073604631539,6.59610959920934,3.4531792902872978
0.48246922368640444,0.8031682879552766,6.630641392112213,3.501187688881026
0.4905009065659572,0.7292748856976345,6.665653269001023,3.541907239510216
0.4977936554229335,0.660015661050335,6.7010723413961255,3.5747614361286697
0.5043938120334369,0.5959337937866698,6.736819955757412,3.599215186713142
0.5103531499713037,0.5375010663605123,6.772812107624544,3.614805766434602
0.5157281606349088,0.48509165451370895,6.80896016528889,3.621174733516338
0.5205790771800459,0.438958416694095,6.845171912624053,3.6180974331943787
0.5249686613469868,0.39921451845397665,6.881352886955997,3.6055064066975744
0.5289608065315266,0.3658229268511032,6.917407951022973,3.5835053680684736
0.5326190358000376,0.3385954796646184,6.9532430047036575,3.552371457774288
0.5360049905966837,0.3172019976221574,6.988766719281401,3.5125450706032093
0.5391770105729052,0.3011885231363191,7.023892169987433,3.464608346986886
0.5421888958042684,0.2900025533922425,7.058538253457302,3.409254993144889
0.5450889213381909,0.2830223582563285,7.092630803388751,3.3472551010457354
0.5479191449207541,0.2795872679524444,7.126103354399208,3.279418899029527
0.5507150176002785,0.2790261497194793,7.158897543389504,3.206562922382537
0.5535052790974733,0.2806820039391799,7.190963172613329,3.129481166591995
0.5563120991368651,0.2839314793698429,7.222257984279249,3.0489226633303383
0.5591514139305636,0.28819893415526115,7.252747210912553,2.9655758616212555
0.5620334032721161,0.29296532121144636,7.282402969528765,2.8800593750795795
0.5649630564842306,0.2977725993680192,7.311203563279561,2.792918136843898
0.5679407824779108,0.3022245750446308,7.3391327446479995,2.704623769583917
0.5709630282283571,0.3059851103129311,7.366178982343839,2.615577963913263
0.5740228793314864,0.3087745510705604,7.392334761982972,2.5261177855803907
0.577110624842192,0.31036508785632166,7.417595939838776,2.436522028899183
0.5802142757207552,0.31057560247075905,7.441961160127768,2.3470179483104854
0.5833200317454629,0.30926640223271373,7.4654313396108725,2.2577878988206015
0.58641269576779,0.3063341141325875,7.488009218599078,2.1689755828712514
0.5894760369091159,0.3017069081682151,7.509698974427791,2.080691730995961
0.5924931059907981,0.2953401421351289,7.530505891737751,1.9930191383314082
0.5954465074121493,0.2872124656614103,7.550436083121065,1.9060170439561364
0.5983186320687635,0.27732238489831834,7.569496253560627,1.8197248814403806
0.6010918559177466,0.2656852666180654,7.58769350237503,1.7341654529492123
0.6037487085839273,0.2523307477082237,7.605035156904522,1.6493475908934794
0.6062720160610096,0.23730051010840655,7.621528632813457,1.5652683745403868
0.6086450211620936,0.22064637976251644,7.637181316558861,1.4819149672254934
0.6108514849597187,0.20242870944972616,7.652000466231116,1.3992661350291553
0.6128757720542161,0.18271500821282183,7.665993127581408,1.31729350148597
0.6147029221363443,0.16157878371773318,7.679166062596267,1.2359625860643424
0.6163187099735216,0.13909856773294063,7.6915256884569105,1.1552336673937127
0.617709695650851,0.11535709869371646,7.703078025130847,1.0750625058813326
0.6188632666377881,0.09044063883348386,7.713828650189661,0.9954009546287661
0.619767673026123,0.06443840653375546,7.7237826597359485,0.916197482499546
0.6204120570914605,0.037442107333898605,7.732944634560944,0.837397628804278
0.6207864781647995,0.009545549456182315,7.741318610848987,0.7589444053191784
0.6208819336593613,-0.019155668236286807,7.748908054902179,0.6807786581793762
0.6206903769769985,-0.048564406187819514,7.755715841483973,0.6028393995219075
0.6202047329151202,-0.07858218088256334,7.761744235479192,0.5250641165269513
0.6194189111062947,-0.10910931602387461,7.766994876644461,0.4473890636547694
0.618327817946056,-0.1400450548203203,7.771468767281009,0.36974954234099133
0.6169273673978527,-0.1712876392165534,7.775166262704419,0.2920801711420338
0.6152144910056871,-0.20273436124094577,7.778087064415839,0.214315148270155
0.6131871473932777,-0.23428159110772642,7.78023021589854,0.13638850758522708
0.6108443314822005,-0.26582478629008227,7.7815941009743925,0.05823436838531351
0.6081860836192997,-0.2972584854559871,7.782176444658246,-0.02021282126611801
0.6052134987647398,-0.32847629091692954,7.781974316445585,-0.09901804844348097
0.6019287358555705,-0.359370843070103,7.78098413596115,-0.1782455076822782
0.5983350274248694,-0.38983379020800524,7.779201680884327,-0.2579583832634421
0.5944366895227894,-0.41975575701867185,7.776622097051693,-0.3382186432892325
0.5902391319526027,-0.44902631509962393,7.7732399106188,-0.4190868476115999
0.5857488688016065,-0.4775339588555293,7.769049042142684,-0.5006219718453896
0.5809735292130512,-0.5051660902419408,7.76404282242423,-0.5828812498066638
0.5759218683106319,-0.5318090159558722,7.758214009926164,-0.6659200367516148
0.5706037781510731,-0.5573479608616003,7.751554809558647,-0.7497916957398091
0.5650302985424571,-0.5816671016834218,7.744056892601249,-0.8345475092868144
0.5592136275256229,-0.6046496253067646,7.735711417508381,-0.9202366181788249
0.5531671312725552,-0.6261778164210117,7.726509051326593,-1.006905988860824
0.5469053531083451,-0.6461331797344126,7.716439991437984,-1.094600410135471
0.540444021311001,-0.6643966026251032,7.70549398733663,-1.1833625189655914
0.5338000552847499,-0.6808485649053214,7.693660362146974,-1.2732328538874305
0.5269915696356967,-0.6953694034254921,7.6809280336081,-1.3642499328246513
0.5200378756014418,-0.7078396406061339,7.667285534279854,-1.4564503498313182
0.5129594791953804,-0.7181403877564457,7.6527210307815405,-1.5498688823435876
0.5057780753178159,-0.7261538363451714,7.637222341958105,-1.6445385967060777
0.4985165369543642,-0.7317638533930203,7.620776955991044,-1.7404909348361646
0.491198898420434,-0.7348567010599989,7.603372046642682,-1.8377557586182336
0.483850331409834,-0.7353219055594307,7.584994489056499,-1.9363613206327053
0.4764971123542397,-0.7330533070556695,7.5656308758501725,-2.0363341196931173
0.469166579283683,-0.7279503305720135,7.545267534653242,-2.137698586867364
0.46188707597796286,-0.7199195285938069,7.523890548784568,-2.2404765315739503
0.4546878806920248,-0.7088764595042706,7.501485783468828,-2.3446862572492786
0.4475991160969821,-0.6947479827785586,7.478038920896336,-2.4503412311793538
0.4406516362691965,-0.6774750725074047,7.453535508584542,-2.5574481625648557
0.43387688554412246,-0.6570162757213148,7.427961026958894,-2.6660043060407226
0.4273067227869093,-0.6333519712138862,7.401300983898486,-2.7759937643528625
0.42097320307477043,-0.6064896175378925,7.3735410462549575,-2.8873825141378493
0.4149083068993915,-0.57647021378865,7.344667221113579,-3.000111824680785
0.409143604761505,-0.543376229853681,7.314666102866771,-3.1140896856979814
0.4037098424629682,-0.5073412867984192,7.2835252060097915,-3.229179815534067
0.398636429594984,-0.4685618705736289,7.251233407854451,-3.3451878015021967
0.3939508108892477,-0.4273113232194067,7.217781529839429,-3.461843955541219
0.3896776976570536,-0.3839562446364794,7.183163090284016,-3.57878259136363
0.3858381352106888,-0.33897521114466805,7.14737526437038,-3.6955177024202244
0.3824483830992422,-0.29297931716546266,7.110420087346178,-3.8114155213328105
0.3795185899275875,-0.2467334074713174,7.07230593213285,-3.925665262483445
0.37705125585287436,-0.20117593111297846,7.033049279508016,-4.037250574234249
0.37503949654174457,-0.15743409904144412,6.992676773765673,-4.1449258851779875
0.37346515555133014,-0.11682955550239552,6.951227514913893,-4.247203811039103
0.3722968599963062,-0.08086836074953127,6.908755476803502,-4.342361729791111
0.3714881763888109,-0.051208289637032084,6.8653318595055906,-4.428476791682929
0.37097609349244054,-0.02959712863603682,6.8210470915887615,-4.503497869948336
0.37068012220608015,-0.017778768981828025,6.776012112889278,-4.565358974215854
0.37050233451626186,-0.0173700492683417,6.730358523147119,-4.61213061626579
0.37032863402357846,-0.029719997748852197,6.684237216984461,-4.642194186384523
0.37003143404608996,-0.055772131917749594,6.637815275120616,-4.654412544116476
0.3694737127269125,-0.095956006451921,6.591271149679451,-4.648262807805108
0.3685141526623933,-0.15013245938616646,6.5447885216014,-4.623899801130075
0.36701282806853164,-0.21760664514181993,6.498549523590099,-4.582132505892882
0.3648367616171134,-0.2972067912887162,6.45272819853117,-4.524317284548949
0.36186469370422625,-0.38741084484309163,6.407485025685681,-4.452192253579477
0.35799058525579536,-0.48649395483832303,6.362963103149886,-4.367688819674956
0.3531256457074121,-0.5926697608448638,6.319286214953136,-4.272755637215696
0.34719894809896346,-0.7042059238692944,6.27655865858098,-4.16921974818671
0.3401568888602705,-0.8195048189183417,6.234866461099113,-4.058695486087702
0.3319618406710871,-0.9371495920042282,6.194279506238236,-3.9425394861296894
0.3225903447510448,-1.0559216317709093,6.154854111376939,-3.8218427063102154
0.3120311284333357,-1.1747977533832776,6.116635684313837,-3.6974477897744165
0.3002831508995029,-1.2929350649838174,6.079661206416093,-3.5699809019068285
0.2873538002496647,-1.4096498559351966,6.043961397397025,-3.439889605159001
0.27325730169031276,-1.5243948886073955,6.009562501345435,-3.3074810844420175
0.2580133528042388,-1.6367377405538277,5.976487690501015,-3.1729573996250164
0.24164597539870053,-1.74634153734895,5.944758116504765,-3.036446177988395
0.22418256002521103,-1.8529485420199723,5.914393654724881,-2.8980262918822803
0.2056530746050113,-1.9563665416618552,5.8854133918060585,-2.7577487263881015
0.18608940918839276,-2.0564576938735453,5.857835904542178,-2.6156531757028607
0.1655248322496573,-2.1531293767434776,5.831679372785149,-2.471781038545268
0.14399353848222252,-2.2463265605119895,5.806961562399696,-2.326185501175662
0.12153027287710262,-2.336025242457736,5.78369970738794,-2.1789393597711926
0.09817002045252526,-2.42222653138484,5.761910313790228,-2.030141176665283
0.07394775513867687,-2.5049510184014587,5.741608902023575,-1.879920306102841
0.04889824495466227,-2.5842331182534095,5.722809698962547,-1.7284412731406884
0.023055913772128178,-2.6601151070491658,5.705525286231141,-1.5759079461469971
-0.0035452372983634795,-2.7326406178521316,5.68976620676967,-1.4225679068569292
-0.030871643476884796,-2.801847387928791,5.675540527701101,-1.2687173868506836
-0.05889011735617271,-2.8677590854137036,5.6628533538325945,-1.1147070974524462
-0.08756770821030975,-2.930376086436375,5.65170628285807,-0.9609492199007872
-0.1168714690746735,-2.989665137210482,5.642096790659062,-0.8079257286310567
-0.1467681204467783,-3.0455479338218403,5.634017533372751,-0.6561980722457631
-0.17722359978499672,-3.097888803927206,5.627455552650294,-0.5064180089457846
-0.20820248782426878,-3.1464819005051,5.622391372560836,-0.35933905732612037
-0.23966730682931978,-3.191038638648325,5.618797981987575,-0.2158275528160677
-0.27157769321580305,-3.231176534290396,5.616639706459414,-0.0768716806834806
-0.303889458558707,-3.2664111290309643,5.615870989652579,0.05641389368021038
-0.3365535698490167,-3.2961532560900406,5.616435128589381,0.18279097914919348
-0.3695151024099171,-3.3197144002623418,5.6182630383808725,0.3009122616090676
-0.4027122464125405,-3.3363231239862667,5.621272160996964,0.4093512836647252
-0.4360754776524032,-3.3451551835134583,5.625365673833611,0.5066515669591238
-0.4695270294875378,-3.3453787278718825,5.6304321895032015,0.5913966078731603
-0.5029808167662566,-3.336213649956554,5.636346155581933,0.6622990861391164
-0.5363429532658222,-3.3170008459053837,5.642969146443324,0.7183028445837871
-0.569512961724876,-3.2872734461161053,5.650152174889162,0.7586859212583928
-0.602385696186037,-3.2468191585120088,5.657739034101746,0.7831488035592812
-0.634853887771157,-3.195722101574582,5.6655705221373385,0.7918711192190424
-0.6668111087869029,-3.1343748889640692,5.673489233329529,0.7855235808924442
-0.6981548576765435,-3.0634571456527038,5.681344469138454,0.7652299674130592
-0.7287894291330705,-2.9838836129966078,5.688996768812584,0.7324841072188657
-0.7586282652630366,-2.896731220875292,5.696321609884772,0.6890358756075077
-0.7875955774717895,-2.803157908336061,5.703211968640847,0.6367651513370065
-0.8156271565551502,-2.7043257434197496,5.7095796201542175,0.577562321408677
-0.8426704139893477,-2.6013376987954273,5.715355243368304,0.5132292462544681
-0.868683790977302,-2.495192874394298,5.7204875358308485,0.4454079063738697
-0.893635719721245,-2.3867606469716804,5.724941614894587,0.3755376070009573
-0.9175033261909618,-2.2767711905531636,5.728696990964597,0.3048371130162961
-0.9402710380964934,-2.165818318494784,5.73174536209476,0.23430582616882298
-0.9619292212814412,-2.0543703774923676,5.734088420356448,0.16473772254897587
-0.9824729250563649,-1.9427854919979664,5.735735797581938,0.09674254411628058
-1.0019007799763444,-1.8313283592713832,5.736703223023101,0.03077002363437152
-1.0202140635690582,-1.720186716072417,5.737010923259445,-0.03286574387435509
-1.0374159307297823,-1.609486372723001,5.7366822658207015,-0.09396353429330238
-1.0535107944570123,-1.4993042848515377,5.735742630477769,-0.15241473041678708
-1.0685038373055278,-1.3896795175677503,5.734218483173601,-0.20818587931461707
-1.0824006324812052,-1.2806221886494196,5.732136624380455,-0.2613040318027813
-1.0952068543676994,-1.1721205994219877,5.729523584062426,-0.31184462846186123
-1.1069280603619192,-1.0641468118634527,5.726405137777808,-0.3599216081141544
-1.1175695284805536,-0.9566609366822753,5.722805921696666,-0.40567939244833656
-1.1271361378473763,-0.8496143796405033,5.718749127772182,-0.44928641533334995
-1.1356322816437814,-0.7429522651617981,5.714256263618848,-0.4909298980933384
-1.1430618042953993,-0.6366152251106296,5.709346964637915,-0.5308116108049796
-1.1494279565465055,-0.5305407109536215,5.704038848529866,-0.5691443977421226
-1.1547333636560417,-0.4246639615401221,5.698347404552444,-0.6061492788716213
-1.158980003271443,-0.3189187373967888,5.692285911763728,-0.6420529671894615
-1.1621691906454108,-0.21323791593900232,5.6858653820918335,-0.6770856631671622
-1.164301569804801,-0.10755403023052479,5.679094525460162,-0.7114790027052985
-1.1653771101071062,-0.00179982660729891,5.6719797354331085,-0.745464044054027
-1.1653951083731793,0.10409108666461091,5.664525094992568,-0.7792691825153504
-1.1643541975065332,0.2101834267653142,5.656732403167414,-0.8131178797354337
-1.1622523632388801,0.3165391823730702,5.64860122437006,-0.8472260873661321
-1.1590869714151495,0.42321623321148893,5.640128963496398,-0.8817992332188112
-1.1548548090830346,0.5302665470887731,5.6313109711642095,-0.9170286223395938
-1.149552143612147,0.6377338452758163,5.622140684940813,-0.9530870867093403
-1.1431748051593889,0.7456506127816204,5.6126098140737195,-0.9901236972769012
-1.1357182990315726,0.8540343167040109,5.602708577100951,-1.0282573337832492
-1.1271779558645325,0.9628826867385116,5.592426003763118,-1.067568896271813
-1.1175491289971473,1.0721679124465766,5.5817503148004,-1.1080919450738347
-1.1068274498726816,1.1818296300350488,5.570669395349662,-1.149801585058173
-1.095009153572331,1.2917666186429255,5.55917137949908,-1.192601481654306
-1.0820914873859018,1.4018272178661384,5.547245364682537,-1.23630903287024
-1.0680732152072403,1.5117986335067815,5.534882274353834,-1.2806389507323621
-1.0529552288721724,1.6213955379564018,5.522075884846511,-1.325185857093967
-1.0367412734926085,1.73024871238191,5.508824026275571,-1.3694069974310084
-1.0194387863687893,1.8378949238776967,5.495129956301261,-1.4126068278846218
-1.0010598371300123,1.9437697569483436,5.481003888022414,-1.4539259997561556
-0.9816221395605289,2.0472056504633183,5.466464628024853,-1.4923380450917287
-0.9611500830558958,2.147437784221453,5.451541247573935,-1.5266576499152125
-0.9396757052136813,2.243620492917821,5.436274671074783,-1.555564471212942
-0.9172395002845031,2.334856291115734,5.420719026362654,-1.5776456229089404
-0.8938909373733457,2.420238139387686,5.404942570133565,-1.5914578883302122
-0.8696885559794688,2.498903220594762,5.389027991250264,-1.5956073340496708
-0.8446995237735212,2.5700935257924318,5.373071917909767,-1.5888397197206534
-0.8189985885155969,2.6332157018393567,5.357183520712561,-1.5701309547520694
-0.7926664314972034,2.6878909222138216,5.34148221116504,-1.5387643217946312
-0.7657875222750652,2.7339859584971027,5.326094567947094,-1.4943816377944512
-0.7384476626900942,2.7716194949659685,5.31115075156915,-1.436999473923024
-0.7107314677404345,2.801142434464179,5.29678075682992,-1.3669881767881662
-0.6827200433957927,2.823096062309293,5.283110875062038,-1.2850187209640398
-0.6544890827726998,2.838155835718011,5.270260687852398,-1.1919880620905023
-0.6261075244155196,2.847070166858184,5.258340807231493,-1.0889360889124888
-0.5976368227469377,2.8506027563222336,5.247451446342368,-0.9769662917854112
-0.5691307951837155,2.849484548425056,5.237681783424514,-0.8571788811997019
-0.5406359496994649,2.844378312997856,5.229109994612517,-0.7306208278974555
-0.5121921665694864,2.835856145569036,5.221803786333543,-0.5982534776291034
-0.48383360511379603,2.8243883246619226,5.2158212515572515,-0.46093574637533863
-0.4555897218671768,2.810341049489499,5.211211894093498,-0.319419554907882
-0.42748631137228177,2.7939804122382483,5.2080176985444195,-0.1743538616417082
-0.39954650724989926,2.7754802530767693,5.206274159928002,-0.026294011624587776
-0.3717917047191316,2.75493204771001,5.2060112198117565,0.1242862169399237
-0.34424238424203146,2.7323555096600467,5.207254081981156,0.27698176705729816
-0.316918829145431,2.70770905535602,5.210023899651729,0.43144391760713735
-0.2898417385918708,2.680899642170513,5.2143383388278,0.5873691145549494
-0.26303274217016565,2.6517917463596774,5.22021202997335,0.744489411753281
-0.23651482470656887,2.6202154152610655,5.227656924090883,0.9025646707689299
-0.21031267055395822,2.585973427119174,5.236682570798572,1.0613765170492875
-0.1844529362827665,2.548847642527219,5.2472963359690645,1.2207239621326467
-0.1589644598574943,2.508604650075855,5.259503575590391,1.3804205563820253
-0.13387841335673575,2.4650008077074097,5.2733077811542115,1.5402929173413291
-0.10922840527966166,2.417786769251306,5.288710710327625,1.700180473724914
-0.08505053758714859,2.366711568679379,5.305712515064874,1.8599362666183097
-0.0613834219003548,2.3115263168436506,5.324311877731057,2.019428652868317
-0.038268158731918286,2.251987549652361,5.344506164259741,2.1785437579298343
-0.015748283235394674,2.1878602548694395,5.366291601839039,2.3371885247898554
0.006130319313299722,2.118920598710411,5.3896634870869375,2.4952942007041092
0.027319525300403835,2.0449583748415656,5.414616429093979,2.652820093087249
0.047769109048819494,1.9657792091881006,5.441144630024851,2.8097574083095154
0.0674269011407005,1.8812065765359092,5.469242204107947,2.9661329598264574
0.08623896690605959,1.791083722484251,5.498903533706211,3.122012491092047
