th1 (rad),w1 (rad/s),th2 (rad),w2 (rad/s),a1 (rad/s^2),a2 (rad/s^2)
3.95222286126549,1.3331636380784424,3.295187171139328,-1.2640603501574443,8.143893845766087,-3.8635297775569
3.9655544976462744,1.4146025765361032,3.2825465676377537,-1.3026956479330134,8.055862029770074,-3.609022207876647
3.9797005234116356,1.4951611968338039,3.2695196111584237,-1.3387858700117798,7.963510927708537,-3.3305307577279804
3.9946521353799738,1.5747963061108892,3.2561317524583058,-1.3720911775890596,7.868515406064352,-3.0289535135545194
4.010400098441083,1.6534814601715326,3.2424108406824153,-1.4023807127246048,7.772777179587355,-2.70539905485742
4.026934913042798,1.7312092319674062,3.228387033555169,-1.4294347032731791,7.678371960825862,-2.361105657225165
4.044247005362472,1.8079929515756648,3.214092686522437,-1.4530457598454307,7.58749284591565,-1.9973539501842605
4.062326934878229,1.8838678800348212,3.1995622289239827,-1.4730192993472733,7.502393830565026,-1.6153784488252192
4.081165613678577,1.9588918183404715,3.18483203593051,-1.4891730838355255,7.425337015317362,-1.2162829677685523
4.100754531861981,2.0331451884936453,3.1699403050921546,-1.501335913513211,7.358546399814764,-0.8009640702312262
4.121085983746918,2.106730652491793,3.1549269459570226,-1.5093455542155232,7.30417029472456,-0.37004556193862437
4.142153290271835,2.1797723554390385,3.1398334904148673,-1.5130460098349094,7.2642534238966645,0.07617421178090189
4.1639510138262255,2.252414889678005,3.124703030316518,-1.5122842677171004,7.240718865386724,0.5377617002243112
4.1864751627230055,2.3248220783318723,3.109580187639347,-1.5069066507148574,7.235359178515836,1.015174550805118
4.209723383506324,2.3971756701170306,3.0945111211321983,-1.4967549052068063,7.249835439633201,1.5092762515474467
4.2336951402074945,2.4696740245133624,3.07954357208013,-1.481662142691332,7.285682479847383,2.0213406097118987
4.258391880452628,2.542530849311836,3.064726950653217,-1.4614487365942128,7.3443183713688365,2.5530477952950275
4.283817188945746,2.6159740330255246,3.0501124632872747,-1.4359182586412624,7.427056111890184,3.106473551137148
4.309976929276002,2.6902445941444264,3.0357532807008623,-1.4048535231298909,7.535115464405585,3.6840728376036034
4.336879375217446,2.765595748788482,3.021704745469563,-1.3680127947538547,7.669632976941789,4.2886586939943125
4.364535332705331,2.8422920785579002,3.0080246175220244,-1.3251262078139117,7.831668291530609,4.923376510322832
4.39295825349091,2.9206087614732064,2.9947733554438853,-1.2758924427106832,8.022204922068557,5.591673251617849
4.422164341105642,3.000830810693892,2.9820144310167787,-1.2199757101945048,8.242143715282062,6.297260491994855
4.452172649212581,3.083252247846713,2.9698146739148337,-1.1570031052745562,8.492287198592788,7.04406941918068
4.4830051716910475,3.168175119832641,2.958244642862088,-1.0865624110827494,8.77331296621834,7.836195280427781
4.514686922889374,3.255908249494824,2.9473790187512607,-1.0082004582784716,9.085734175890748,8.677828079075896
4.547246005384323,3.3467655912537317,2.937297014168476,-0.9214221774877126,9.429845152137526,9.57316572854045
4.58071366129686,3.441064042775107,2.928082792393599,-0.8256905202023082,9.805650062190871,10.526305376106718
4.615124301724611,3.5391205433970154,2.919825887191576,-0.720427466441241,10.212772708403135,11.541108297377185
4.650515507158581,3.641248270481047,2.912621612527164,-0.6050163834674691,10.65034574673536,12.62103374200005
4.686927989863392,3.7477517279484007,2.906571448692489,-0.4788060460474686,11.116878194429543,13.768937530383404
4.724405507142876,3.858920509892696,2.901783388232014,-0.3411166707436346,11.610101048914098,14.986832248608511
4.762994712241803,3.975021520381837,2.898372221524578,-0.1912483482575495,12.126792331705207,16.27560778853855
4.802744927445621,4.096289443698889,2.8964597380420023,-0.02849227037216398,12.662585016382318,17.63471397101752
4.84370782188261,4.222915293862712,2.8961748153382807,0.1478548693380112,13.211764184391521,19.061811286624046
4.885936974821237,4.355032935706627,2.897653364031661,0.3384729822042517,13.767063383743345,20.552401515967983
4.929487304178304,4.4927035695440605,2.9010380938537033,0.5439969973639316,14.319474413893687,22.099457091944224
4.974414339873745,4.635898313682997,2.9064780638273424,0.7649915682833739,14.858089289884301,23.693076178913852
5.020773323010575,4.78447920658184,2.914127979510176,1.0019223300725124,15.369997344227196,25.320198776888727
5.068618115076394,4.938179180024112,2.9241472028109015,1.2551243178413998,15.840263393336791,26.96442638873931
5.117999906876634,5.09658181395748,2.9366984459893155,1.5247685817287928,16.252013436620043,28.60599204186091
5.168965725016209,5.25910194832368,2.9519461318066034,1.810828502147402,16.58665114133269,30.221926448965906
5.221556744499446,5.424968459737007,2.9700544168280776,2.1130477666370613,16.824220205810732,31.786457497421296
5.275806429096816,5.593210661795115,2.9911848944944484,2.430912341611274,16.943913958981252,33.271662320548685
5.331738535714767,5.762649801384927,3.015494017910561,2.763628964816761,16.924714674807422,34.64836356676225
5.389365033728617,5.9318969481330015,3.0431303075587284,3.1101126004843835,16.746122976136554,35.8872259952766
5.448684003209947,6.099358177894367,3.0742314335635723,3.4689848604371494,16.38891593835094,36.959970766240495
5.509677584988891,6.2632473372778765,3.1089212821679437,3.8385845680995545,15.835855958065213,37.84058989455324
5.57231005836167,6.421605896858528,3.147307127848939,4.216990467045087,15.072266396844098,38.50642090254273
5.636526117330256,6.5723285608269695,3.18947703251939,4.602054676070514,14.086398715248516,38.93893982807086
5.702249402938525,6.713192547979455,3.235497579280095,4.9914440743512225,12.869541068269317,39.12415460471912
5.76938132841832,6.841887958662148,3.285412020023607,5.382685620398414,11.415858429342729,39.05253069702116
5.837800208004942,6.956046542955575,3.3392388762275913,5.773210927368625,9.722003960557009,38.718451320483
5.907360673434497,7.053266582561146,3.3969709855012775,6.160395440573455,7.78659269253374,38.11929538406981
5.977893339260109,7.131132509486483,3.4585749399070123,6.541588394414154,5.609672916217908,37.25429476399332
6.049204664354973,7.187229238648662,3.523990823851154,6.914131342054087,3.1923601952592633,36.12339626316773
6.12107695674146,7.219152840601255,3.5931321372716947,7.275365304685764,0.5368075904010815,34.72639261167231
6.193268485147472,7.2245209165052655,3.665885790318552,7.622629230802486,-2.353330771237049,33.06259397086087
6.265513694312525,7.200987608792895,3.7421120826265772,7.953255170511095,-5.471830838177234,31.131281312524322
6.337523570400454,7.146269300411123,3.821644634331688,8.264567983636338,-8.808190065353877,28.933110776735546
6.408986263404565,7.058187399757584,3.9042903141680516,8.553899091403693,-12.345357393628689,26.472518729420784
6.479568137402141,6.934733825821297,3.9898293050820883,8.8186242786979,-16.057126554210935,23.7610085226138
6.548915475660354,6.774162560279188,4.078015547869067,9.056234363924037,-19.905586293392105,20.820988840518485
6.616657101263145,6.575106697345267,4.168577891508307,9.264444252329222,-23.839183592628064,17.689605006723646
6.682408168236598,6.3367148614189865,4.2612223340316,9.441340302396458,-27.792062782810813,14.421808979880462
6.7457753168507875,6.058794233590879,4.3556357370555645,9.585558392195264,-31.685330419440202,11.091824806758346
6.806363259186696,5.741940929396477,4.451491320977517,9.696476640262848,-35.43070388408063,7.792263887750313
6.863782668480661,5.38763389055567,4.548456087380146,9.77439927914035,-38.936610119553954,4.630479508952601
6.917659007386217,4.99826778936013,4.646200080171549,9.820704074229877,-42.1162607608516,1.7223030823317396
6.967641685279819,4.577105181751614,4.744407120913848,9.837927105053193,-44.89667599863434,-0.8160397739991672
7.013412737097335,4.128138421765271,4.842786391964379,9.829766707313201,-47.22724981168961,-2.876469797143465
7.054694121314988,3.6558659236483746,4.941084059037512,9.801002009341767,-49.08641162217367,-4.366415003104241
7.091252780551471,3.1650018074266377,5.03909407913093,9.757337859310724,-50.485306812746806,-5.213493530519592
7.122902798625738,2.66014873929917,5.136667457724037,9.705202924005528,-51.468102493160096,-5.366535176888363
7.14950428601873,2.1454677143675687,5.233719486964093,9.651537572236645,-52.10931361824953,-4.792671680709663
7.1709589631624056,1.6243745781850734,5.330234862686459,9.60361085542955,-52.5091946463651,-3.4708917821128655
7.187202708944256,1.0992826317214224,5.426270971240754,9.56890193760842,-52.788580756231376,-1.3828751415861429
7.198195535261471,0.5713968241591086,5.521959990616838,9.555073186192558,-53.08454073885578,1.4979829650802157
7.203909503503062,0.04055141677055085,5.617510722478764,9.57005301584336,-53.54786736912941,5.218580341034164
7.204315017670767,-0.49492725692074324,5.713211252637198,9.622238819253703,-54.34282076665331,9.85849163316512
7.19936574510156,-1.0383554645872763,5.8094336408297345,9.720823735585354,-55.64851745722882,15.541671713121604
7.188982190455688,-1.5948406391595644,5.906641878185588,9.87624045271657,-57.65929064705797,22.444445408380773
7.173033784064092,-2.171433545630144,6.005404282712753,10.100684906800376,-60.57639803880274,30.790593098698714
7.151319448607791,-2.7771975260181714,6.106411131780757,10.408590837787363,-64.5708225280836,40.80737650119322
7.123547473347609,-3.422905751299007,6.21049704015863,10.816664602799296,-69.6648364847591,52.572182607440645
7.08931841583462,-4.119554116146598,6.318663686186623,11.342386428873702,-75.40370055311604,65.5730216665821
7.048122874673154,-4.873591121677759,6.43208755047536,11.998116645539524,-80.0423112032333,77.59866483327933
6.999386963456376,-5.674014233710092,6.552068716930755,12.774103293872317,-78.89699645717405,82.45660502922365
6.942646821119276,-6.462984198281832,6.679809749869478,13.598669344164554,-62.65077563766087,67.56611005670095
6.878016979136457,-7.089491954658441,6.8157964433111236,14.274330444731563,-21.72145202292247,19.82837358108057
6.807122059589872,-7.306706474887665,6.958539747758439,14.472614180542369,35.009569792059835,-48.788729897744474
6.734054994840996,-6.956610776967067,7.103265889563863,13.984726881564924,75.2127751563484,-94.77469974187544
6.664488887071325,-6.204483025403583,7.243113158379512,13.03697988414617,84.67628495600607,-99.97219159494415
6.60244405681729,-5.3577201758435224,7.373482957220974,12.037257968196728,77.67846867136466,-84.40436138838423
6.548866855058854,-4.580935489129876,7.493855536902941,11.193214354312886,67.4352593154713,-65.67980970102913
6.5030575001675555,-3.9065828959751636,7.60578768044607,10.536416257302594,58.57722992185096,-49.54739497785447
6.463991671207804,-3.320810596756654,7.7111518430190955,10.04094230752405,51.85816663337549,-36.64721626738018
6.430783565240238,-2.802228930422899,7.811561266094336,9.674470144850249,47.00549120199123,-26.38059656864404
6.402761275936009,-2.332174018402987,7.908305967542838,9.410664179163808,43.60569639512898,-18.056327949958067
6.379439535751979,-1.8961170544516972,8.002412609334476,9.230100899664228,41.30738750288071,-11.128302263396627
6.360478365207462,-1.4830431794228902,8.094713618331118,9.118817877030262,39.84220228083088,-5.204696369327918
6.345647933413233,-1.0846211566145814,8.18590179710142,9.066770913336983,39.0062103395779,-0.015265090548971556
6.334801721847088,-0.6945590532188024,8.276569506234791,9.066618262431493,38.63756363334638,4.619430475111361
6.327856131314899,-0.30818341688533857,8.367235688859106,9.112812567182607,38.597686574047486,8.809568406782656
6.324774297146046,0.07779344885513628,8.458363814530932,9.200908251250434,38.756402097081164,12.60942311771882
6.325552231634598,0.46535746982594794,8.550372897043436,9.327002482427622,38.98023057953826,16.02493876074867
6.330205806332858,0.8551597756213305,8.643642921867713,9.487251870035108,39.12341931320433,19.017874435259316
6.338757404089071,1.2463939687533738,8.738515440568063,9.677430614387701,39.02195422158094,21.50878530062394
6.351221343776604,1.6366135109691833,8.83528974671194,9.89251846739394,38.49157184408815,23.381214923939712
6.367587478886296,2.021529229410065,8.93421493138588,10.126330616633336,37.331454898444946,24.489669383688483
6.387802771180397,2.3948437783945145,9.035478237552212,10.371227310470221,35.33558964354203,24.673900839658074
6.411751208964342,2.7481996748299347,9.139190510656913,10.617966318866802,32.3132699220543,23.781273055024695
6.439233205712641,3.0713323740504777,9.245370173845581,10.85577904941705,28.118496764969308,21.697037344109415
6.469946529453146,3.3525173417001706,9.353927964339752,11.072749422858145,22.684884019220934,18.379093941123138
6.503471702870148,3.57936618189238,9.464655458568334,11.256540362269376,16.058761496409033,13.88997407485322
6.539265364689072,3.7399537968564704,9.577220862191028,11.39544010301791,8.420161940352374,8.41613854529646
6.576664902657637,3.8241554162599942,9.691175263221208,11.479601488470875,0.0815760367029019,2.265462496907018
6.614906456820236,3.8249711766270234,9.805971278105917,11.502256113439945,-8.540818674642134,-4.160988099318203
6.653156168586507,3.739562989880602,9.920993839240316,11.460646232446763,-16.980340357214512,-10.418646892667907
6.690551798485313,3.5697595863084572,10.035600301564783,11.356459763520084,-24.785853267573387,-16.07909418708323
6.726249394348398,3.3219010536327236,10.149164899199983,11.195668821649251,-31.58471663398962,-20.785242882114016
6.759468404884725,3.0060538872928273,10.261121587416476,10.987816392828112,-37.128111971269746,-24.289964635476817
6.789528943757653,2.63477276758013,10.370999751344756,10.744916746473343,-41.31040559849876,-26.471806242668038
6.815876671433455,2.2216687115951426,10.47844891880949,10.480198684046663,-44.1621501692202,-27.327954740884543
6.838093358549406,1.7800472099029405,10.583250905649956,10.206919136637817,-45.82304344885066,-26.94980965342731
6.855893830648435,1.3218167754144339,10.685320097016335,9.937421040103544,-46.50472178718531,-25.4892820978243
6.8691119984025795,0.8567695575425808,10.784694307417372,9.6825282191253,-46.45323829654548,-23.123993051799022
6.877679693978005,0.392237174577126,10.881519589608624,9.45128828860731,-45.91838467998087,-20.027450593491942
6.881602065723777,-0.06694667222268269,10.976032472494698,9.251013782672391,-45.133298510519154,-16.347209169097226
6.88093259900155,-0.5182796573278743,11.06854261032142,9.08754169098142,-44.304554586139126,-12.191154706470408
6.875749802428271,-0.9613252031892656,11.159418027231235,8.965630143916716,-43.610964232456034,-7.620148470924342
6.866136550396378,-1.397434845513826,11.249074328670401,8.889428659207473,-43.208643043035586,-2.6444252449511794
6.85216220194124,-1.829521275944182,11.337968615262476,8.862984406757962,-43.24015050118926,2.778892356671188
6.833866989181797,-2.2619227809560747,11.426598459330055,8.890773330324674,-43.846132371636436,8.74937847241881
6.811247761372236,-2.7003841046724393,11.515506192633302,8.978267115048862,-45.17841818732581,15.429471512737285
6.784243920325512,-3.1521682865456975,11.605288863783791,9.132561830176234,-47.413366711943596,23.053335452886053
6.752722237460055,-3.6263019536651333,11.696614482085554,9.363095184705095,-50.76225006739681,31.93507691328375
6.716459217923403,-4.133924454339102,11.790245433932604,9.682445953837933,-55.46850581913734,42.46315544296247
6.675119973380013,-4.688609512530475,11.887069893470983,10.107077508267558,-61.76102415807036,55.0394285284259
6.628233878254708,-5.306219754111179,11.988140668553658,10.657471793551817,-69.67462036276495,69.8411770039378
6.575171680713596,-6.002965957738829,12.094715386489176,11.355883563591195,-78.49782627792278,86.0741339735078
6.515142021136207,-6.787944220518057,12.208274222125088,12.216624903326274,-85.29638955774872,99.94556893681282
6.447262578931027,-7.640908116095544,12.33044047115835,13.216080592694402,-81.85757130329614,100.4223002593473
6.370853497770072,-8.459483829128505,12.462601277085295,14.220303595287875,-52.650041558179495,66.31962406850859
6.286258659478786,-8.9859842447103,12.604804313038173,14.88349983597296,10.986588858707053,-14.210957724558604
6.1963988170316835,-8.87611835612323,12.753639311397903,14.741390258727375,77.14341251571392,-97.4113529919499
6.107637633470452,-8.104684230966091,12.901053213985177,13.767276728807875,102.37430294670433,-124.6336650369639
6.026590791160791,-7.080941201499048,13.038725981273256,12.520940078438237,95.33699066518689,-108.96567101102974
5.9557813791458,-6.127571294847179,13.163935382057637,11.43128336832794,80.61302474135603,-84.01671538821508
5.894505666197328,-5.321441047433619,13.278248215740916,10.591116214445789,67.84594234536947,-62.38699934600201
5.841291255722992,-4.642981623979924,13.384159377885375,9.967246220985768,58.45375440033644,-45.566610163233975
5.794861439483193,-4.05844407997656,13.483831840095233,9.511580119353429,51.89189306872031,-32.55297248579251
5.7542769986834275,-3.539525149289357,13.578947641288767,9.186050394495505,47.44431235685351,-22.22565423843513
5.718881747190534,-3.0650820257208222,13.670808145233723,8.963793852111154,44.55143516869172,-13.746566778702462
5.6882309269333255,-2.619567674033905,13.760446083754834,8.82632818432413,42.812462723561545,-6.543030325667787
5.662035250192987,-2.1914430467982897,13.848709365598076,8.760897881067452,41.936769707307846,-0.23809999892937506
5.640120819725004,-1.7720753497252113,13.93631834440875,8.758516881078158,41.69899506680378,5.403630083877069
5.622400066227752,-1.3550853990571734,14.023903513219532,8.812553181916929,41.904203808138085,10.509158976694168
5.60884921223718,-0.9360433609757925,14.112029045038701,8.91764477168387,42.36091357627948,15.114362613846579
5.599488778627422,-0.5124342252129978,14.20120549275554,9.068788397822336,42.8599123797184,19.171423981860496
5.594364436375292,-0.08383510141581374,14.291893376733762,9.260502637640942,43.15884030148815,22.552318984703522
5.593526085361134,0.34775330159906775,14.384498403110172,9.486025827487977,42.97507388563632,25.055041354031907
5.597003618377125,0.777504040455431,14.479358661385051,9.736576241028295,41.991973367000355,26.420597023046476
5.604778658781679,1.1974237741254345,14.576724423795334,10.00078221125876,39.88491032825933,26.369242865194067
5.616752896522933,1.596272877408028,14.676732245907921,10.264474639910702,36.3715688369645,24.66136754947879
5.632715625297013,1.959988565777673,14.779376992307029,10.51108831540549,31.28336824026745,21.179015481803727
5.65231551095479,2.2728222481803475,14.884487875461083,10.722878470223527,24.64126492038862,16.008390590498365
5.675043733436594,2.5192348973842336,14.991716660163318,10.88296237612851,16.705300298790554,9.488752120750155
5.700236082410436,2.686287900372139,15.100546283924603,10.977849897336013,7.965047540115136,2.1927840142783346
5.727098961414158,2.7659383757732905,15.210324782897963,10.999777737478796,-0.9424113608967767,-5.171953695941239
5.754758345171891,2.756514262164323,15.320322560272752,10.948058200519384,-9.36484567534223,-11.910425072826746
5.782323487793534,2.6628658054109007,15.429803142277946,10.828953949791117,-16.767595416870517,-17.47833573818107
5.808952145847643,2.4951898512421957,15.538092681775856,10.654170592409306,-22.81836863530099,-21.560500547387633
5.8339040443600645,2.2670061648891857,15.644634387699949,10.43856558693543,-27.404603161398345,-24.07428517703127
5.8565741060089564,1.9929601332752023,15.749020043569303,10.197822735165119,-30.596282012716642,-25.118119721853265
5.876503707341708,1.6869973131480358,15.850998270920954,9.946641537946586,-32.582991318621005,-24.898796979237424
5.893373680473188,1.3611673999618257,15.95046468630042,9.697653568154212,-33.61127661723002,-23.664657473600883
5.906985354472806,1.0250546337895254,16.047441221981963,9.461006993418204,-33.93679881269701,-21.65758934826389
5.917235900810701,0.6856866456625552,16.142051291916143,9.244431099935564,-33.79491999180633,-19.085236041019826
