th1 (rad),w1 (rad/s),th2 (rad),w2 (rad/s),a1 (rad/s^2),a2 (rad/s^2)
5.653440517834616,-1.0625512228155298,1.9563076505306647,-0.405247162866996,2.666947877745877,-7.410306089158852
5.642815005606461,-1.035881744038071,1.9522551789019946,-0.47935022375858455,2.824821769563936,-7.245772193054257
5.63245618816608,-1.0076335263424316,1.9474616766644088,-0.5518079456891272,2.983259276827508,-7.084424300873461
5.6223798529026565,-0.9778009335741565,1.9419435972075176,-0.6226521886978618,3.141536058421405,-6.926961552670664
5.612601843566915,-0.9463855729899425,1.935717075320539,-0.6919218042245684,3.2990247462427402,-6.77399597987577
5.603137987837015,-0.9133953255275151,1.9287978572782933,-0.7596617640233261,3.4551935621108325,-6.626052769654227
5.59400403458174,-0.8788433899064068,1.92120123963806,-0.8259222917198683,3.609603185340993,-6.48357329817289
5.585215600682676,-0.8427473580529968,1.9129420167208613,-0.8907580247015972,3.761902151203786,-6.34692056368237
5.576788127102146,-0.8051283365409589,1.9040344364738453,-0.9542272303384208,3.9118210698165723,-6.216386631398991
5.568736843736737,-0.7660101258427933,1.894492164170461,-1.0163910966524108,4.059165954323688,-6.092201698412063
5.561076742478309,-0.7254184662995564,1.884328253203937,-1.0773131136365315,4.20381093928117,-5.974544394740971
5.553822557815313,-0.6833803569067447,1.8735551220675717,-1.1370585575839411,4.345690657476611,-5.863552952899883
5.546988754246246,-0.6399234503319786,1.8621845364917322,-1.19569408711294,4.484792528057781,-5.759336900038501
5.540589519742926,-0.5950755250514008,1.850227595620603,-1.253287456113325,4.62114919235939,-5.66198895170162
5.534638764492412,-0.548864033127807,1.8376947210594696,-1.3099073456303412,4.754831317177011,-5.571596813016053
5.529150124161133,-0.5013157199560369,1.8245956476031662,-1.3656233137605016,4.88594096885505,-5.488254620959005
5.524136966961573,-0.45245631026748634,1.810939414465561,-1.4205058599700917,5.0146057453492645,-5.412073790282516
5.519612403858899,-0.4023102528139937,1.7967343558658602,-1.474626597872917,5.140973836916435,-5.343193056257854
5.515589301330759,-0.35090051444482934,1.781988089887131,-1.5280585284354955,5.265210168537773,-5.281787540687982
5.51208029618631,-0.29824841275945163,1.766707504602776,-1.5808764038423753,5.387493757765966,-5.228076704872811
5.509097812058716,-0.24437347518179198,1.7508987405643524,-1.6331571708911035,5.5080163996454745,-5.18233109566026
5.506654077306898,-0.18929331118533724,1.7345671688554414,-1.684980481847706,5.626982765203753,-5.144877839399584
5.504761144195045,-0.1330234835332997,1.7177173640369643,-1.736429260241702,5.744611971691484,-5.11610489409852
5.503430909359712,-0.07557736381638487,1.7003530714345472,-1.7875903091826872,5.861140651781487,-5.096464132298351
5.502675135721548,-0.01696595729857,1.6824771683427202,-1.8385549505056709,5.976827516499496,-5.086473395295407
5.502505476148562,0.04280231786642496,1.6640916188376635,-1.8894196844586248,6.0919593746262155,-5.086717731754563
5.502933499327226,0.10372191161268712,1.6451974219930774,-1.9402868617761704,6.206858542182339,-5.0978501082037635
5.5039707184433535,0.16579049703451051,1.6257945533753158,-1.991265362858208,6.321891552389669,-5.120591952627914
5.505628623413698,0.2290094125584072,1.6058818997467337,-2.0424712823844873,6.437479062487992,-5.155733962520289
5.507918717539282,0.2933842031832871,1.5854571869228888,-2.09402862200969,6.554106852309895,-5.204137672704387
5.5108525595711155,0.35892527170638605,1.564516900702792,-2.146069998736734,6.672337823668962,-5.266738334161508
5.5144418122881795,0.42564864994307566,1.5430562007154245,-2.198737382078349,6.792824942009698,-5.344549702348776
5.51869829878761,0.4935768993631726,1.521068826894641,-2.2521828791018366,6.91632511434736,-5.438671373044956
5.523634067781242,0.5627401505066463,1.4985469981036228,-2.306569592832286,7.043714071506922,-5.55029933850761
5.5292614692863085,0.6331772912217155,1.4754813021753,-2.362072586217362,7.176002418600261,-5.680740471636493
5.535593242198526,0.7049373154077181,1.4518605763131263,-2.418879990933727,7.3143531356484015,-5.831431687977395
5.5426426153526025,0.7780808467642021,1.427671776403789,-2.477194307813501,7.460100950230348,-6.003964593805625
5.550423423820244,0.8526818562665056,1.402899833325654,-2.537233953751557,7.614774166298959,-6.200116513980211
5.55895024238291,0.9288295979294952,1.3775274937881383,-2.599235118891359,7.780119718897224,-6.421888917990291
5.568238538362205,1.0066307951184674,1.3515351425992248,-2.663454008071262,7.958132435663043,-6.6715544399616125
5.578304846313389,1.0862121194750978,1.3249006025185122,-2.730169552470878,8.151089726369582,-6.951713932377827
5.58916696750814,1.1677230167387935,1.2975989069938034,-2.799686691794656,8.36159319625372,-7.265365317977499
5.600844197675528,1.2513389487013307,1.2696020400758568,-2.872340344974431,8.59261899303202,-7.6159864227067136
5.613357587162541,1.337265138631651,1.2408786366261124,-2.9485002092014985,8.84757905546539,-8.00763449432185
5.626730238548858,1.4257409291863048,1.2113936345340974,-3.028576554144717,9.130395832065025,-8.445065737724661
5.6409876478407215,1.517044887506955,1.1811078689926502,-3.1130272115219637,9.445593468193794,-8.93387891333315
5.656158096715791,1.6115008221888931,1.1499775968774306,-3.2023660006552954,9.798408877437742,-9.480687796833982
5.67227310493768,1.7094849109632706,1.1179539368708777,-3.2971728786236354,10.194926423732813,-10.09332796444286
5.689367954047313,1.8114341752005987,1.0849822080846414,-3.398106158268064,10.642239945164354,-10.781103685940337
5.707482295799319,1.9178565746522422,1.0510011465019609,-3.5059171951274672,11.148645151337432,-11.55508015148079
5.726660861545842,2.0293430261656167,1.0159419745506861,-3.6214679966422754,11.723863252192913,-12.42842379488868
5.746954291807498,2.1465816586875457,0.9797272945842633,-3.745752234591162,12.379291549513086,-13.41678711180958
5.768420108394373,2.2703745741826764,0.9422697722383517,-3.8799201057092576,13.128265832145598,-14.538720284488706
5.7911238541362,2.4016572325041325,0.9034705711812592,-4.025307308554145,13.986297428147141,-15.81606281917135
5.815140426461241,2.541520206785604,0.8632174980957177,-4.183467936745858,14.971204567461353,-17.27421036481142
5.840555628529097,2.6912322524602175,0.8213828187282591,-4.3562100403939725,16.102974141947772,-18.942038435961198
5.867467951053699,2.8522619938796954,0.7778207183243194,-4.545630424753584,17.403029894584712,-20.85104576132653
5.895990570992496,3.0262922928255427,0.7323644140767835,-4.754140882366849,18.892279215461876,-23.03286158258191
5.926253493920751,3.2152150849801613,0.684823005253115,-4.984469498192668,20.586741006787904,-25.51347253299102
5.958405644770553,3.4210824950480405,0.6349783102711883,-5.239604223522578,22.48851310920918,-28.30107246032729
5.992616469721034,3.6459676261401324,0.5825822680359626,-5.522614948125851,24.568011746865363,-31.361885999431966
6.029076145982435,3.891647743608786,0.5273561185547041,-5.83623380812017,26.73053170302268,-34.57426161652326
6.067992623418522,4.158953060639012,0.4689937804735024,-6.181976424285402,28.756718531230263,-37.64641085056535
6.1095821540249124,4.446520245951315,0.40717401623064836,-6.558440532791056,30.206376606549853,-39.98271771107538
6.154047356484425,4.7485840120168135,0.3415896109027378,-6.9582677099018095,30.292433595483057,-40.507420111531076
6.2015331966045935,5.0515083479716445,0.2720069338037197,-7.3633419110171205,27.802226650163263,-37.552140553914406
6.25204828008431,5.329530614473277,0.1983735146935485,-7.738863316556264,21.305667418370845,-29.140235160529944
6.305343586229043,5.542587288656986,0.12098488152798585,-8.030265668161563,10.023874366155022,-14.188766397579778
6.3607694591156125,5.642826032318536,0.04068222484637021,-8.172153332137361,-4.75219951060782,5.525133899869781
6.417197719438798,5.595304037212458,-0.041039308475003394,-8.116901993138663,-19.273579834618346,24.833576675383394
6.473150759810923,5.402568238866274,-0.12220832840639002,-7.8685662263848295,-29.593178437653062,38.321924896325086
6.527176442199586,5.106636454489744,-0.20089399067023833,-7.485346977421578,-34.37658133359734,44.20857667009369
6.578242806744484,4.7628706411537705,-0.2757474604444541,-7.043261210720641,-34.879454837628565,44.27498405268234
6.625871513156022,4.414076092777485,-0.3461800725516605,-6.600511370193818,-33.05234216969895,41.22582078168299
6.670012274083796,4.083552671080495,-0.4121851862535987,-6.188253162376988,-30.332209027237653,37.03085881935542
6.7108478007946015,3.7802305808081185,-0.47406771787736857,-5.817944574183434,-27.49187802379516,32.73493574320088
6.748650106602683,3.505311800570167,-0.5322471636192029,-5.490595216751425,-24.86650454002987,28.780600059994253
6.783703224608384,3.2566467551698683,-0.5871531157867171,-5.202789216151482,-22.565726038626018,25.30391204480187
6.816269692160083,3.0309894947836082,-0.639181007948232,-4.949750095703463,-20.598484193135793,22.306562063183947
6.846579587107919,2.8250046528522503,-0.6886785089052666,-4.7266844750716235,-18.934771531844778,19.740084561449837
6.874829633636441,2.6356569375338026,-0.7359453536559828,-4.529283629457125,-17.53340722317626,17.543202960279842
6.901186203011779,2.46032286530204,-0.781238189950554,-4.353851599854327,-16.35351390815128,15.656909710960562
6.925789431664799,2.296787726220527,-0.8247767059490974,-4.197282502744721,-15.358642513268686,14.029625542029054
6.9487573089270045,2.14320130108784,-0.8667495309765446,-4.0569862473244305,-14.517749125771426,12.618185442951171
6.970189321937883,1.9980238098301257,-0.907319393449789,-3.9308043928949186,-13.804923992426385,11.387220530273822
6.990169560036184,1.8599745699058619,-0.9466274373787381,-3.8169321875921804,-13.198704640306277,10.30804372784413
7.008769305735243,1.727987523502799,-0.9847967592546599,-3.713851750313739,-12.681321471482704,9.35749192978702
7.026049180970271,1.601174308787972,-1.0219352767577974,-3.620276831015869,-12.238009202355315,8.516889759910397
7.042060924058151,1.4787942167644188,-1.058138045067956,-3.535107933416765,-11.856424473475808,7.771177937663526
7.0568488662257955,1.3602299720296607,-1.0934891244021236,-3.45739615404013,-11.526171709967166,7.10820072270485
7.070451165946092,1.244968254929989,-1.128063085942525,-3.3863141468130817,-11.23842530996947,6.518130456913267
7.082900848495392,1.1325840018302942,-1.1619262274106557,-3.3211328422439492,-10.98563262167124,5.993004229103075
7.094226688513695,1.0227276756135817,-1.1951375558330952,-3.2612027999529185,-10.761282703594734,5.526349880709134
7.104453965269831,0.9151148485776344,-1.2277495838326244,-3.2059393011458273,-10.559727796164943,5.11288236134045
7.113605113755607,0.809517570615985,-1.2598089768440828,-3.154810477532423,-10.376046602050177,4.748255349772057
7.121700289461767,0.7057571045954831,-1.291357081619407,-3.1073279240347023,-10.20594043328157,4.428856530112836
7.128757860507722,0.6036977002626674,-1.322430360859754,-3.063039358733574,-10.045654907236079,4.151637804658172
7.1347948375103485,0.5032411511903067,-1.3530607544470898,-3.021522980686992,-9.891921167401799,3.9139740423754654
7.139827249022251,0.4043219395162887,-1.3832759842539597,-2.9823832402632373,-9.741911624706962,3.713545765656766
7.143870468417414,0.3069028232692191,-1.413099816656592,-2.94524778260667,-9.593206029958532,3.548242537769615
7.1469394966501065,0.21097076296963374,-1.4425522944826588,-2.9097653572289737,-9.443764362640565,3.4160847935488774
7.149049204279803,0.11653311934322809,-1.4716499480549485,-2.8756045092934848,-9.29190361015074,3.3151625122878388
7.150214535473235,0.02361408324172068,-1.5004059931478835,-2.8424528841706063,-9.136276055026395,3.243589514573811
7.150450676305652,-0.06774867730854327,-1.5288305219895895,-2.8100169890248683,-8.975847211886663,3.1994723216141265
7.149773189532566,-0.1575071494274099,-1.5569306918798382,-2.778022265808727,-8.809872072698125,3.180892494490111
7.148198118038292,-0.24560587015439117,-1.5847109145379255,-2.746213340863826,-8.637868827920656,3.1859012216934355
7.145742059336748,-0.33198455843359775,-1.6121730479465637,-2.7143543286468916,-8.459589721192186,3.212524697674695
7.142422213752412,-0.4165804556455196,-1.6393165912330325,-2.682229081670145,-8.274989148480131,3.2587785839498777
7.138256409195957,-0.49933034713032093,-1.666138882049734,-2.649641295830646,-8.084189507803748,3.322689614954183
7.133263105724654,-0.5801722422083584,-1.6926352950080406,-2.6164143996811045,-7.887445622158933,3.402322243474303
7.12746138330257,-0.6590466984299477,-1.7187994390048515,-2.5823911772463615,-7.6851087799467175,3.495808144702385
7.120870916318271,-0.7358977862294148,-1.7446233507773152,-2.5474330957993376,-7.477591554979138,3.6013764303291813
7.113511938455977,-0.8106737017792062,-1.7700976817353087,-2.511419331496046,-7.265334581739233,3.7173825673240737
7.1054052014381845,-0.8833270475965985,-1.7952118750502692,-2.4742455058228052,-7.0487763796989045,3.8423342397352793
7.096571930962218,-0.9538148113935876,-1.8199543301084973,-2.435822163425452,-6.828327159654471,3.9749127148728687
7.087033782848282,-1.0220980829901323,-1.8443125517427519,-2.3960730362767237,-6.6043473273179005,4.113988649350763
7.076812802018381,-1.0881415562633112,-1.868273282105519,-2.354933149783216,-6.377131149637467,4.258631664398093
7.065931386455748,-1.151912867759686,-1.8918226136033511,-2.312346833139235,-6.1468957921202305,4.408113403397747
7.054412257778151,-1.2133818256808881,-1.9149460819347435,-2.2682656991052577,-5.913775692543315,4.561904132023841
7.0422784395213425,-1.2725195826063214,-1.937628738925796,-2.2226466577850195,-5.677822024840315,4.719663233693738
7.029553243695279,-1.3292978028547244,-1.9598552055036462,-2.175450025448082,-5.439006837751165,4.88122417931658
7.016260265666732,-1.383687871232236,-1.981609705758127,-2.126637783654916,-5.197231331114222,5.046574707380832
7.00242338695441,-1.4356601845433783,-2.002876083594676,-2.076172036581108,-4.952337658062826,5.215833042027003
6.988066785108976,-1.4851835611240065,-2.0236378039604874,-2.024013706160838,-4.704123609082336,5.389221011891229
6.973214949497736,-1.53222479721483,-2.043877941022096,-1.9701214960419255,-4.452359536067299,5.567034923506793
6.957892701525588,-1.576748392575503,-2.063579155982515,-1.9144511468068577,-4.196806901751068,5.749615003670117
6.942125217599833,-1.6187164615930136,-2.082723667450584,-1.8569549967701564,-3.937237882367331,5.937314168943256
6.925938052983903,-1.658088840416687,-2.1012932174182852,-1.7975818550807239,-3.6734555000342826,6.130466819383141
6.9093571645797365,-1.6948233954170298,-2.1192690359690927,-1.7362771868868925,-3.405313808442681,6.329358297257293
6.8924089306255665,-1.7288765335014566,-2.136631807837962,-1.6729836039143196,-3.1327376951812314,6.534195606619883
6.875120165290552,-1.760203910453269,-2.153361643877105,-1.6076416478481208,-2.8557418927552485,6.745079959786939
6.857518126186019,-1.7887613293808216,-2.169438060355586,-1.5401908482502513,-2.5744488064944777,6.961981702551891
6.83963051289221,-1.8145058174457662,-2.184839968838088,-1.4705710312247324,-2.2891047715935047,7.1847181692148965
6.821485454717752,-1.8373968651617012,-2.1995456791503356,-1.3987238495325836,-2.0000943458313687,7.412935026508189
6.803111486066135,-1.857397808620015,-2.2135329176456615,-1.3245944992675016,-1.7079522330459647,7.646091675605284
6.784537507979935,-1.8744773309504745,-2.2267788626383367,-1.2481335825114488,-1.413372420495902,7.883451285394926
6.7657927346704305,-1.8886110551554336,-2.2392601984634513,-1.1692990696574994,-1.1172141071244739,8.124076018919443
6.746906624118876,-1.8997831962266782,-2.2509531891600263,-1.088058309468305,-0.8205040063252526,8.366827978887665
6.727908792156609,-1.9079882362899308,-2.2618337722547093,-1.0043900296794284,-0.5244346330574292,8.610376328568824
6.708828909793709,-1.913232582620505,-2.2718776725515037,-0.9182862663937401,-0.2303582375097765,8.85321093370205
6.689696583967504,-1.9155361649956029,-2.281060535215441,-0.8297541570567196,0.060223868814554896,9.093662714325886
6.670541222317548,-1.9149339263074574,-2.2893580767860082,-0.7388175299134607,0.34567673049471304,9.329930691174871
6.651391883054474,-1.9114771590025104,-2.2967462520851427,-0.645518223001712,0.6242518917219938,9.560115462515848
6.632277111464449,-1.9052346400852904,-2.30320143431516,-0.5499170683765535,0.8941120633121237,9.78225856224892
6.613224765063596,-1.8962935194521693,-2.3087006049989256,-0.45209448275406433,1.153359900080795,9.994386842586174
6.594261829869074,-1.8847599204513614,-2.313221549826466,-0.3521506143282026,1.4000702507598886,10.194560713790947
6.575414230664561,-1.8707592179437624,-2.316743055969748,-0.25020500719029315,1.6323250183273317,10.380924782838283
6.556706638485123,-1.8544359677604891,-2.319245106041651,-0.1463957593619103,1.8482495621719526,10.551759188625525
6.538162278807518,-1.8359534721387696,-2.3207090636352703,-0.04087816747565505,2.046049403745267,10.705529759910128
6.519802744086131,-1.815492978101317,-2.321117845310027,0.06617713012344623,2.2240458825606932,10.84093504710979
6.501647814305118,-1.79325251927571,-2.3204560740087925,0.17458648059454412,2.38070936515697,10.956948318190276
6.483715289112361,-1.7694454256241403,-2.318710209202847,0.2841559637764469,2.514688646611132,11.052852771033228
6.46602083485612,-1.744298539158029,-2.315868649565082,0.3946844914867792,2.6248353062894427,11.128268497972767
6.44857784946454,-1.7180501860951345,-2.3119218046502144,0.5059671764665069,2.7102219827883918,11.183170128877835
6.431397347603588,-1.6909479662672506,-2.3068621328855494,0.6177988777552853,2.7701538053683423,11.217894552301164
6.414487867940916,-1.6632464282135673,-2.3006841441079966,0.729977823278297,2.8041725413058134,11.23313863583372
6.39785540365878,-1.6352047028005092,-2.2933843658752138,0.8423092096366341,2.812053365817018,11.229947397365425
6.381503356630775,-1.607084169142339,-2.2849612737788476,0.9546086836102884,2.793794506168097,11.20969357775467
6.365432514939352,-1.579146224080658,-2.2754151869427446,1.066705619387835,2.749600327275944,11.174049995182207
6.349641052698545,-1.5516502208078986,-2.2647481307488664,1.1784461193396571,2.6798586888459615,11.124956392523611
6.334124550490467,-1.524851633919439,-2.25296366955547,1.2896956832648931,2.5851135960213347,11.064582702375311
6.318876034151272,-1.4990004979592255,-2.240066712722821,1.4003415102886463,2.466034276166562,10.995290743078952
6.3038860291716805,-1.47434015519756,-2.2260632976199344,1.5102944177194357,2.323381841260383,10.919596328503495
6.289142627619705,-1.4511063367849562,-2.21096035344274,1.6194903810044707,2.157974643372226,10.840133640310327
6.274631564251855,-1.429526590351234,-2.1947654496326954,1.727891717407574,1.970653310881923,10.759623497632976
6.260336298348343,-1.4098200572424147,-2.1774865324586195,1.8354879523839038,1.7622462806851855,10.680846893756863
6.246238097775919,-1.392197594435563,-2.1591316529347804,1.9422964213214724,1.5335364338453585,10.60662488180934
6.2323161218315635,-1.3768622300971094,-2.1397086887215657,2.0483626701395656,1.2852292162435437,10.539805609084727
6.218547499530592,-1.364009937934674,-2.11922506202017,2.153760726230413,1.017922397346894,10.483259045630977
6.204907400151245,-1.353830713961205,-2.097687454757866,2.2585933166867225,0.7320774021366614,10.439879744597524
6.191369093011633,-1.3465099399398384,-2.075101521590999,2.3629921141326977,0.4279919532337754,10.412597820665438
6.177903993612235,-1.3422300204075006,-2.051471600449672,2.4671180923393523,0.1057735890806639,10.404398243210904
6.16448169340816,-1.341172284516694,-2.0268004195262783,2.571162074771461,-0.23468651569835064,10.41834851091685
6.151069970562992,-1.3435191496736776,-2.0010887987785635,2.6753455598806295,-0.5937401060063813,10.4576347962809
6.137634779066255,-1.3494565507337415,-1.9743353431797572,2.7799219078434385,-0.9720095199108117,10.525606706940383
