th1 (rad),w1 (rad/s),th2 (rad),w2 (rad/s)
4.709632035984586,1.2372808514783316,0.07597626760813343,1.7330205765438234
4.722004844499369,1.349705809569069,0.09330647337357167,1.719163284280836
4.73550190259506,1.461678009642078,0.11049810621638004,1.7012393007027116
4.750118682691481,1.5730916745537538,0.12751049922340715,1.6788725222352374
4.7658495994370185,1.683839795822729,0.14429922444575952,1.6516935232085905
4.782687997395246,1.793816610923938,0.16081615967784543,1.619341366091867
4.800626163504485,1.9029203413066962,0.1770095733387641,1.5814654541775712
4.8196553669175515,2.0110561895671077,0.19282422788053982,1.5377273648965089
4.839765928813223,2.1181395893714354,0.20820150152950492,1.4878025905371226
4.860947324706937,2.2240996971797364,0.22307952743487613,1.4313821013157042
4.883188321678735,2.3288831109095325,0.23739334844803317,1.3681736337983237
4.90647715278783,2.4324577978381003,0.2510750847860164,1.2979025959604247
4.930801730766211,2.5348172127758946,0.2640541107456207,1.2203124690638536
4.95614990289397,2.6359845884244155,0.27625723543625924,1.1351645764163378
4.982509748778214,2.736017383474511,0.2876088812004226,1.04223708031123
5.0098699226129595,2.8350118810277354,0.2980312520035349,0.9413230613217329
5.038220041423237,2.933107940908571,0.3074444826167522,0.8322275288544141
5.067551120832323,3.0304939248258065,0.31576675790529635,0.7147632085770564
5.097856060080581,3.12741183333807,0.3229143899910669,0.5887449511221792
5.129130178413962,3.224162717957934,0.3288018395022887,0.4539826075573524
5.161371805593541,3.3211124595609838,0.3333416655778622,0.31027222120847564
5.194582930189151,3.4186980334486616,0.33644438778994695,0.15738539435526858
5.228769910523638,3.5174344078762885,0.33801824173349965,-0.004943293755759304
5.263944254602401,3.61792223916937,0.33796880879594204,-0.17703090563279927
5.300123476994095,3.720856519450941,0.3361984997396141,-0.3592628192612959
5.337332042188605,3.8270362789949774,0.3326058715470011,-0.5521113397294586
5.3756024049785545,3.937375302706339,0.3270847581497065,-0.7561558734604978
5.414976158005618,4.05291351544955,0.31952319941510154,-0.9721038054805474
5.455505293160114,4.174828092989546,0.3098021613602961,-1.2008103252471727
5.497253574090009,4.304442231965846,0.2977940581078244,-1.4432938132088333
5.5402979964096675,4.443227453542063,0.28336111997573604,-1.7007404502829253
5.584730270945088,4.592791604729885,0.26635371547290676,-1.9744864381549492
5.630658186992387,4.754838134715648,0.24660885109135727,-2.265956902956476
5.678206568339544,4.931070760368466,0.22394928206179252,-2.57652440265237
5.727517275943228,5.122998320269214,0.19818403803526882,-2.907222831258783
5.77874725914592,5.331563970032057,0.169111809722681,-3.2582096235955853
5.832062898846241,5.556480001282799,0.13652971348672516,-3.627809488969911
5.887627698859069,5.795107150510976,0.10025161859702605,-4.010914741026292
5.945578770364178,6.040731273073826,0.06014247118676313,-4.396540242010783
6.005986083094916,6.28031789462131,0.016177068766655298,-4.764657528960852
6.068789262041129,6.4925628289748785,-0.031469506522953224,-5.083480987705978
6.133714890330878,6.648481081163069,-0.08230431640001301,-5.310394707016313
6.200199701142508,6.717843869884401,-0.13540826347017615,-5.401211021268438
6.267378139841352,6.682076244568576,-0.18942037368286052,-5.328615826565799
6.334198902287038,6.546039705861932,-0.24270653194851852,-5.099042221916829
6.399659299345657,6.337002339077312,-0.2936969541676868,-4.751345760950205
6.46302932273643,6.090526457090236,-0.34121041177718886,-4.336809206444011
6.523934587307332,5.836257947068874,-0.38457850384162895,-3.8988353191060705
6.582297166778021,5.592576828504887,-0.42356685703268965,-3.465113334096256
6.63822293506307,5.368195048140069,-0.4582179903736522,-3.0496749914906527
6.691904885544471,5.165715388784105,-0.4887147402885587,-2.6578260490768333
6.7435620394323115,4.984535423317983,-0.515293000779327,-2.2902273478387354
6.7934073936654915,4.822628305411992,-0.5381952742577144,-1.9454258373483069
6.841633676719612,4.677486934902795,-0.5576495326311974,-1.6212153135707386
6.888408546068639,4.546575654871613,-0.5738616857669048,-1.315300787066152
6.9338743026173555,4.42752277852868,-0.5870146936375663,-1.025591310742322
6.978149530402642,4.318186148793092,-0.5972706067449896,-0.7503068313414121
7.021331391890573,4.216660687893443,-0.6047736750584036,-0.4879967166874325
7.063497998769508,4.121262192046169,-0.609653642225278,-0.2375190699561101
7.1047106206899695,4.030503689171871,-0.612028832924839,0.0019952866610149778
7.1450156575816886,3.943071698581054,-0.6120088800582288,0.23118296963290463
7.184446374567499,3.857805338660617,-0.6096970503618998,0.45048738004873373
7.223024427954106,3.7736791342737255,-0.6051921765614124,0.660195266479196
7.2607612192968425,3.689789419056684,-0.5985902238966205,0.860469898559556
7.297659113487409,3.605343828660075,-0.589985524911025,1.0513808214128635
7.33371255177401,3.5196532514562517,-0.5794717166968963,1.232930364205812
7.368909084288572,3.4321256015580333,-0.5671424130548383,1.405077113911958
7.403230340304153,3.3422608357555172,-0.5530916419157187,1.5677565401834577
7.436652948661708,3.249646717318712,-0.5374140765138841,1.7208989179499627
7.469149415834895,3.1539549189208897,-0.5202050873343844,1.8644446623871647
7.500688965024104,3.0549371458417847,-0.5015606407105128,1.9983571736107124
7.531238336482522,2.9524210446503676,-0.48157706897440566,2.1226332862126953
7.560762546929026,2.8463057391881397,-0.4603507361122787,2.237311428671951
7.589225604320908,2.736556903353735,-0.4379776218255592,2.3424776156681255
7.616591173354445,2.623201338085788,-0.41455284566887796,2.4382694183274536
7.642823186735303,2.506321067741463,-0.3901701514856034,2.524878079929798
7.667886397412717,2.3860470088994283,-0.3649213706863054,2.6025489649643236
7.6917468675017115,2.262552292951805,-0.3388958810366622,2.6715805458707957
7.71437239043123,2.136045343407973,-0.31218007557795424,2.7323221433609444
7.73573284386531,2.006762820475214,-0.2848568541443448,2.7851706425064315
7.755800472070062,1.8749625501253426,-0.2570051477192805,2.8305664078612915
7.774550097571315,1.7409165534195823,-0.2286994836406676,2.868988617080006
7.791959263105511,1.6049042852329645,-0.20000959746986754,2.900950224272051
7.8080083059578405,1.467206180548314,-0.17100009522714704,2.9269927522562855
7.822680367763324,1.3280975920111937,-0.1417301677045842,2.9476810975519614
7.835961343683436,1.187843185277764,-0.11225335672906457,2.963598514020787
7.8478397755362135,1.0466918396767848,-0.08261737158885671,2.9753419212576104
7.858306693932981,0.9048720816730278,-0.0528639523762806,2.9835176628628095
7.867355414749712,0.7625880583715254,-0.023028775747652507,2.988737818394954
7.874981295333427,0.6200160386036949,0.006858602436297035,2.9916171518753836
7.881181455719464,0.47730141067430454,0.03677477395505087,2.9927707599301816
7.885954469826207,0.3345561292076088,0.06670248155435268,2.9928124646437166
7.8893000311182835,0.19185654918326733,0.09663060620078985,2.9923539804359964
7.891218596610116,0.0492415735651853,0.1265541460051498,2.992004871013081
7.891711012345768,-0.09328896779994802,0.15647419471528062,2.99237330162702
7.8907781226677685,-0.23577579579439736,0.18639792773155084,2.9940675830805166
7.888420364709824,-0.3783016056813413,0.216338603562356,2.99769849616383
7.884637348653011,-0.520992523618801,0.24631558852399432,3.0038823768406826
7.879427423416823,-0.664019674345942,0.27635441229240115,3.0132449307906115
7.872787226673363,-0.8076009216765511,0.30648686160030725,3.0264257265932155
7.864711217456598,-0.9520028145708272,0.33675111886623943,3.0440832832308673
7.85519118931089,-1.0975427238181588,0.3671919516985481,3.066900609264915
7.844215762072708,-1.2445910768432933,0.3978609577911973,3.0955909516762223
7.8317698513042755,-1.393573473294884,0.42881686730795954,3.1309033463280924
7.817834116571326,-1.5449722639487744,0.4601259007712405,3.1736272891146706
7.802384393931838,-1.699326856050635,0.4918621736623872,3.2245954043200116
7.785391125371332,-1.8572315011330125,0.5241081277055873,3.2846822773909876
7.766818810360002,-2.019328522336751,0.5569549504794973,3.3547964955194076
7.7466255251366345,-2.186293693557273,0.5905029154346914,3.4358611834005233
7.724762588201061,-2.3588085779891235,0.6248615272686966,3.5287756298005806
7.70117450242117,-2.5375118019671024,0.6601492835667024,3.634346594753947
7.6757993844015,-2.7229172322480535,0.6964927495142419,3.753172212504153
7.648570212079019,-2.915281844571493,0.7340244716392834,3.885454060657762
7.619417393633304,-3.1144005881765207,0.7728790122458611,4.0307051679264845
7.5882733877515385,-3.319302864643613,0.8131860639251259,4.187317838040344
7.555080359105102,-3.5278332048194994,0.8550592423055294,4.35196623815333
7.519802027056907,-3.7361332727707426,0.8985789046870627,4.518867203388626
7.4824406943292,-3.9381277387772173,0.9437675767209489,4.679042979964775
7.443059416941428,-4.125270341247858,0.9905580065205967,4.819946628732248
7.401806713528949,-4.28698748488492,1.0387574728079192,4.926067211853881
7.3589368386801,-4.412281672052677,1.088018144926458,4.981170129666306
7.314814021959574,-4.492515008610679,1.137829846223121,4.972209955085595
7.269888871873467,-4.524415331232478,1.1875519457739772,4.893579511538373
7.224644718561142,-4.511576222918772,1.2364877408893609,4.749269311755956
7.179528956331954,-4.463320600500275,1.2839804340069205,4.551340524501453
7.134895750326952,-4.391612277861556,1.329493839251935,4.315653381683261
7.090979627548336,-4.307891719083865,1.3726503730687678,4.057466943003444
7.0479007103574975,-4.22120177159376,1.4132250424988022,3.7888209289730392
7.00568869264156,-4.13773289369944,1.4511132517885326,3.5178877083927977
6.9643113637045655,-4.061215606820886,1.4862921288724606,3.2495029697785887
6.923699207636357,-3.993583089175931,1.5187871585702466,2.9860749225384917
6.883763376744597,-3.935584824081913,1.5486479077956314,2.7284294147172274
6.844407528503778,-3.887246738889723,1.5759322019428037,2.4764457710812233
6.805535061114881,-3.848179777093763,1.6006966596536158,2.2294857106494614
6.767053263343944,-3.817772576096354,1.6229915167601106,1.9866643720064816
6.72887553758298,-3.795305222968895,1.6428581604801753,1.7470142462683411
6.690922485353291,-3.7800126069113142,1.6603283029428586,1.509581110282638
6.653122359284178,-3.771116874688425,1.675424114045685,1.2734785807229967
6.615411190537294,-3.7678415454831993,1.688158899852915,1.0379182856048892
6.577732775082462,-3.7694151094178694,1.6985380827089638,0.8022260798492691
6.540038623988283,-3.775068906613658,1.7065603435074566,0.5658505050856987
6.502287934922147,-3.784032214037704,1.7122188485583136,0.3283670574738837
6.46444761278177,-3.795526337390618,1.7155025191330524,0.0894802086464088
6.426492349407864,-3.8087588312754974,1.7163973212195165,-0.1509758606358018
6.388404761095109,-3.8229185707464786,1.7148875626131586,-0.3930374500626564
6.350175575387644,-3.8371721572386024,1.710957188112532,-0.6366124425667712
6.311803853815258,-3.85066199164461,1.7045910636868644,-0.8814825114322817
6.273297233898812,-3.862506244091074,1.6957762385725417,-1.127306723231663
6.234672171457901,-3.871800868121779,1.684503171340225,-1.3736268586055977
6.195954162776683,-3.8776237318751887,1.670766902754169,-1.6198747523974524
6.1571779254579315,-3.879040863056426,1.6545681552301945,-1.8653818959298718
6.118387516827367,-3.875114725542144,1.6359143362708959,-2.1093914573664025
6.079636369571945,-3.8649143640308963,1.614820421697232,-2.351072770339126
6.040987225931636,-3.8475271718984887,1.5913096939938407,-2.5895382252970656
6.002511954212651,-3.822071959802298,1.56541431174087,-2.8238623809136243
5.964291234614628,-3.7877129319899265,1.5371756879317338,-3.0531030020134984
5.926414105294729,-3.7436741163803564,1.5066446579115989,-3.276323631856017
5.888977364130925,-3.6892537449806753,1.4738814215930387,-3.4926172241873474
5.852084826681119,-3.6238380438984557,1.4389552493511653,-3.7011302961107724
5.815846446242134,-3.5469138675723304,1.4019439463900576,-3.9010870168355853
5.780377307566411,-3.458079600697133,1.3629330762217018,-4.091812619512988
5.74579651155944,-3.357053755532236,1.3220149500265719,-4.272755514065928
5.7122259740041175,-3.243680715101794,1.2792873948859127,-4.443507490267439
5.6797891668531,-3.117933118607464,1.2348523199832384,-4.603821436564887
5.648609835667025,-2.9799104587475123,1.1888141056175896,-4.753626067291398
5.61881073107955,-2.8298335647730846,1.1412778449446757,-4.893037255414284
5.590512395431819,-2.668034780012554,1.0923474723905329,-5.022365714774063
5.563832047631694,-2.4949438034356906,1.0421238152427923,-5.142120966067686
5.538882609597337,-2.3110693411086256,0.9907026055821154,-5.253011750325527
5.515771916186251,-2.11697688927384,0.9381724880788601,-5.355943311766249
5.494602147293513,-1.9132631268509135,0.8846130549611976,-5.452012242479956
5.4754695160250035,-1.7005275113701592,0.830092932536398,-5.542499844438172
5.458464240911302,-1.4793417319227848,0.7746679340920163,-5.628865198822284
5.443670823592074,-1.2502176661794024,0.7183792821037934,-5.712739318871505
5.43116864693028,-1.0135744178571617,0.6612518889150784,-5.795921882691748
5.421032902751708,-0.7697048938913889,0.6032926700881609,-5.880382078384489
5.413335853812795,-0.5187422562629962,0.544488849304316,-5.968265017827111
5.408148431250165,-0.26062652333806013,0.48480619912604483,-6.061904932157616
5.405542166016785,0.004928275553195138,0.4241871498044687,-6.1638458330522266
5.4055914487723165,0.27846544943265394,0.3625486914739464,-6.276869261122146
5.408376103266643,0.5608132030097928,0.29977999886272494,-6.404026643278237
5.41398423529674,0.8531031873445913,0.23573973242994256,-6.548669651050533
5.422515267170186,1.1567689318002476,0.17025303591943725,-6.714463866350123
5.434082956488188,1.4735015330628785,0.10310839725593601,-6.905355366554948
5.448817971818817,1.8051180640636628,0.03405484359038653,-7.125429830505229
5.466869152459454,2.1532577186103667,-0.03719945471466575,-7.378547921859461
5.488401729645558,2.5187499830734144,-0.11098493393326037,-7.667542114496164
5.513589229476292,2.9003889054893226,-0.18766035507822199,-7.992604580431055
5.542593118531185,3.2927221032313554,-0.26758640088253255,-8.348314170877543
5.575520339563498,3.6824828368954403,-0.35106954259130796,-8.71876104261754
5.612345167932452,4.043984003531058,-0.43825715301748336,-9.071156429245367
5.652785007967763,4.336176793477587,-0.528968717309937,-9.351588417099343
5.696146775902539,4.508240697147904,-0.6224846014809304,-9.492351825864514
5.741229182874019,4.520555633816599,-0.7174081197395756,-9.440316951310367
5.786434739212185,4.372055996001981,-0.8118112892526793,-9.193997911475288
5.830155299172205,4.105230582960396,-0.9037512683674322,-8.809971815568947
5.871207605001809,3.7793627808178965,-0.9918509865231218,-8.366239571892077
5.909001232809988,3.4416366087624604,-1.0755133822420426,-7.923428542718697
5.943417598897613,3.118473407597626,-1.1547476676692296,-7.513885838349777
5.974602332973589,2.8206394202303597,-1.2298865260527274,-7.149197583254219
6.002808727175893,2.5503643009288846,-1.3013785018852695,-6.830018831810664
6.028312370185182,2.306096719042386,-1.3696786902033762,-6.552463117207111
6.051373337375606,2.0849707664184662,-1.4352033213754474,-6.311318096295649
6.07222304503979,1.8839181716077908,-1.4983165023384037,-6.101430669408767
6.091062226755867,1.7001091590969146,-1.5593308090324913,-5.918208252222103
6.1080633183468365,1.5310898024294304,-1.6185128915547125,-5.757734723973029
6.123374216371131,1.3747922967486919,-1.6760902387944427,-5.6167345907497195
6.137122139338618,1.2294979021240022,-1.73225758470194,-5.492487767065686
6.149417118359858,1.0937869628766559,-1.7871824623725967,-5.382737159295425
6.160354987988624,0.9664899039130881,-1.841009833965551,-5.285604715402021
6.170019887027755,0.8466440890432095,-1.8938658811195712,-5.199520373220247
6.178486327918187,0.7334576107189883,-1.9458610848517737,-5.123163867013788
6.185820904025377,0.6262795828190474,-1.9970927235219116,-5.055417797972003
6.192083699853567,0.5245760206942781,-2.0476469015016314,-4.995330033102842
6.19732946006051,0.4279103271197542,-2.09760020183266,-4.9420836215303785
6.201608563331708,0.33592749723621285,-2.1470210380479635,-4.894972687904868
6.20496783830407,0.2483412964460198,-2.1959707649270124,-4.85338304923656
6.20745125126853,0.1649238059198488,-2.244504595419378,-4.816776556475563
6.209100489327729,0.08549685400021392,-2.2926723609841333,-4.784678373171145
6.209955457867731,0.009924954270801131,-2.3405191447158447,-4.756666572091399
6.210054707410439,-0.06189054660416292,-2.388085810436759,-4.732363563048453
6.209435801944397,-0.1300163433165608,-2.4354094460672435,-4.711428968541505
6.208135638511232,-0.19449125043817092,-2.4825237357526584,-4.693553644833373
6.2061907260068505,-0.2553296286955878,-2.529459272200992,-4.678454610357602
6.203637429719895,-0.312524274564647,-2.576243818304568,-4.665870695530453
6.200512186974248,-0.3660488691294198,-2.6229025252598723,-4.655558771806225
6.196851698282954,-0.415860069765016,-2.6694581129779347,-4.647290456036693
6.192693097585304,-0.4618993220153671,-2.715931017538302,-4.640849220993711
6.18807410436515,-0.5040944680360432,-2.762339509748239,-4.636027875664976
6.183033159684789,-0.5423612310048447,-2.8086997885048888,-4.632626410234122
6.1776095473747406,-0.5766046605132789,-2.85502605260723,-4.6304502302595445
6.171843500769608,-0.6067206302543429,-2.901330554909826,-4.629308831316755
6.165776294467064,-0.6325974839435149,-2.947623643222993,-4.629014987201371
6.159450319627629,-0.6541179255453837,-2.993913793095007,-4.629384538844135
6.152909140372175,-0.6711612425018072,-3.0402076384834484,-4.630236874008703
6.146197527947157,-0.6836059329192175,-3.0865100072235356,-4.631396176299587
6.139361468617965,-0.6913327774776421,-3.1328239689865316,-4.632693493456544
6.132448140843189,-0.6942283535278482,-3.179150903921097,-4.633969628499065
6.12550585730791,-0.6921889339317945,-3.2254906002060877,-4.635078794744129
6.1185839679685925,-0.6851246507565028,-3.271841388153529,-4.635892902007195
6.111732721461028,-0.6729637406526144,-3.318200317173601,-4.636306264669365
6.105003084054502,-0.6556566333560739,-3.3645633798202947,-4.636240453611532
6.098446517720941,-0.633179606710407,-3.4109257843564103,-4.635648965176755
6.092114721653837,-0.6055377193335917,-3.4572822740081777,-4.634521362032047
6.086059344460501,-0.5727667509631622,-3.5036274876284983,-4.632886560142166
6.080331676950869,-0.534933931431942,-3.54995635322992,-4.63081499450683
6.074982337636549,-0.49213731766699736,-3.596264503174988,-4.628419488787922
6.070060964459879,-0.4445037747164226,-3.642548698062867,-4.6258547694313155
6.065615926712715,-0.39218561898519777,-3.6888072457571806,-4.623315688350594
6.061694070522862,-0.33535607611554286,-3.7350404026406867,-4.62103433362006
6.058340509761707,-0.2742037804437215,-3.7812507459768874,-4.619276300916418
6.0555984719572695,-0.20892658955732962,-3.8274435089860517,-4.618336460185776
6.053509206061697,-0.13972500278276315,-3.8736268735879094,-4.618534578549592
6.052111956033869,-0.06679545780211894,-3.919812219373405,-4.620211153896219
6.051444001455848,0.009676259856226749,-3.966014330912367,-4.62372378056357
6.05154076405441,0.08952131664067124,-4.0122515687180025,-4.6294443183165015
6.052435977220817,0.17259372875958665,-4.058546011901168,-4.63775707851526
6.054161914508413,0.2587758153903723,-4.104923582686321,-4.649058186163093
6.056749672662316,0.34798323049400415,-4.151414164547952,-4.6637562307618
6.060229504967256,0.440169655677616,-4.19805172685557,-4.682274287714399
6.0646312015240325,0.535331288125888,-4.244874469732714,-4.7050533784304776
6.0699845144052915,0.6335113021049463,-4.291925003517019,-4.732557442747433
6.076319627426341,0.7348045019189302,-4.339250577944493,-4.765279922251001
