th1 (rad),w1 (rad/s),th2 (rad),w2 (rad/s),a1 (rad/s^2),a2 (rad/s^2)
3.0595348480362605,-3.1047331393202966,1.0382411533853628,1.0005291224851378,-1.328680489993506,-0.3436935654245292
3.0284875166430574,-3.1180199442202317,1.0482464446102142,0.9970921868308925,-1.6043615156000925,-0.21243682748602527
2.997307317200855,-3.1340635593762327,1.058217366478523,0.9949678185560322,-1.8805843208220032,-0.05388797818110344
2.965966681607093,-3.152869402584453,1.0681670446640834,0.9944289387742212,-2.1592925837911414,0.13232036048562043
2.9344379875812483,-3.174462328422364,1.0781113340518256,0.9957521423790774,-2.4424753355604594,0.34679869022445114
2.9026933642970247,-3.198887081777969,1.0880688554756164,0.9992201292813219,-2.732191021509943,0.5904204617378472
2.870704493479245,-3.2262089919930683,1.0980610567684297,1.0051243338987004,-3.0305963202374304,0.8643436058710126
2.838442403559314,-3.2565149551954424,1.1081123001074167,1.0137677699574106,-3.3399797392216075,1.170035248947448
2.8058772540073598,-3.2899147525876584,1.1182499778069908,1.0254681224468851,-3.6628002475119805,1.5093008963495558
2.7729781064814834,-3.3265427550627784,1.1285046590314596,1.0405611314103806,-4.00173139420393,1.8843192030649418
2.7397126789308555,-3.3665600690048176,1.1389102703455634,1.05940432344103,-4.35971148719518,2.2976832686723387
2.7060470782408075,-3.4101571838767692,1.1495043135799736,1.0823811561277534,-4.740000443314683,2.752449131894392
2.67194550640204,-3.457557188309916,1.1603281251412512,1.1099056474466973,-5.146243815883474,3.252191696029812
2.6373699345189405,-3.509019626468751,1.1714271816157182,1.1424275644069954,-5.582544163873996,3.8010675311064857
2.602279738254253,-3.564845068107491,1.1828514572597881,1.1804382397180604,-6.053539182217207,4.403882610644098
2.5666312875731783,-3.625380459929663,1.1946558396569686,1.2244770658245014,-6.5644845822537645,5.066160621375294
2.5303774829738814,-3.6910253057522007,1.2069006103152136,1.2751386720382545,-7.121337116081243,5.794203323609999
2.4934672299163596,-3.762238676913013,1.2196519970355961,1.3330807052743545,-7.730828573930032,6.595127362519023
2.4558448431472293,-3.8395469626523133,1.2329828040883397,1.3990319788995447,-8.400513703263256,7.476849989332144
2.4174493735207063,-3.923552099684946,1.2469731238773352,1.473800478792866,-9.138761561383538,8.447976131688188
2.378213852523857,-4.014939715298781,1.2617111286652638,1.558280240109748,-9.954637123609444,9.517505886604654
2.338064455370869,-4.114486086534876,1.2772939310663614,1.6534552989757945,-10.857582020516194,10.694226291179717
2.2969195945055203,-4.223061906740037,1.2938284840561194,1.7603975618875916,-11.856740570739486,11.985560784130534
2.25468897543812,-4.341629312447432,1.3114324596749953,1.880253169728897,-12.959675512914801,13.395504128147607
2.2112726823136457,-4.47122606757658,1.3302349913722844,2.0142082110103727,-14.170057545130232,14.921042803393911
2.1665604216378798,-4.6129266430278815,1.3503770734823881,2.1634186390443118,-15.48367327844202,16.546123182518055
2.120431155207601,-4.767763375812302,1.3720112598728311,2.328879870869492,-16.881773545444844,18.231779493422998
2.072753521449478,-4.93658111126675,1.395300058581526,2.511197665803722,-18.320446243398212,19.90057261719842
2.0233877103368103,-5.119785573700732,1.4204120352395633,2.710203391975706,-19.714626744332246,21.413427788055895
1.972189854599803,-5.316931841144054,1.4475140691593202,2.924337669856265,-20.916350931952188,22.538437262037817
1.9190205361883623,-5.526095350463576,1.476757445857883,3.1497220424766432,-21.690684509153115,22.916742448043635
1.8637595826837265,-5.743002195555107,1.5082546662826493,3.3788894669570797,-21.7022857197225,22.044285042223105
1.8063295607281755,-5.960025052752332,1.54204356095222,3.599332317379311,-20.542310958053278,19.312152145412334
1.7467293102006523,-6.165448162332865,1.578036884126013,3.7924538388334343,-17.840190291068442,14.169301272403212
1.6850748285773236,-6.343850065243549,1.6159614225143475,3.9341468515574665,-13.482655149087314,6.439676745244755
1.6216363279248882,-6.478676616734422,1.6553028910299221,3.998543619009914,-7.856080951079556,-3.32622714146025
1.556849561757544,-6.5572374262452175,1.6952883272200212,3.9652813475953117,-1.8845556938795411,-13.791137521316545
1.4912771874950919,-6.576082983184013,1.7349411406959743,3.8273699723821464,3.31110691013858,-23.314826441416972
1.4255163576632517,-6.542971914082627,1.7732148404197958,3.594221707967977,6.941866042614831,-30.713402231732474
1.3600866385224255,-6.473553253656479,1.8091570574994755,3.287087685650652,8.82827440480674,-35.66884626381166
1.2953511059858607,-6.385270509608412,1.842027934355982,2.930399223012535,9.269655527735143,-38.55560348279901
1.2314984008897765,-6.29257395433106,1.8713319265861073,2.544843188184545,8.74203205421858,-40.01511487497586
1.1685726613464658,-6.205153633788875,1.8967803584679528,2.1446920394347866,7.679385412253907,-40.641180851974184
1.106521125008577,-6.128359779666336,1.9182272788623007,1.7382802309150447,6.395331608991347,-40.86216267449584
1.0452375272119137,-6.0644064635764225,1.9356100811714512,1.3296586041700862,5.089001480885081,-40.94367898009417
0.9845934625761494,-6.013516448767572,1.948906667213152,0.9202218143691445,3.8774663867274684,-41.030945765452856
0.9244582980884737,-5.974741784900297,1.9581088853568436,0.509912356714616,2.8268015974396663,-41.19087321547608
0.8647108802394707,-5.9464737689259,1.9632080089239898,0.09800362455985517,1.974246408689496,-41.442692549321016
0.8052461425502118,-5.926731304839005,1.9641880451695883,-0.316423300933355,1.342035444809828,-41.7775467726273
0.7459788295018217,-5.9133109503909065,1.9610238121602548,-0.7341987686596281,0.9453205982102637,-42.170285697428305
0.6868457199979127,-5.903857744408804,1.9536818244736585,-1.1559016256339112,0.7963238858230204,-42.58643972747254
0.6278071425538246,-5.895894505550574,1.9421228082173194,-1.5817660229086365,0.9061873664644305,-42.986456221847334
0.5688481974983189,-5.886832631885929,1.9263051479882332,-2.0116305851271097,1.285429946813222,-43.328509657654415
0.5099798711794596,-5.873978332417797,1.9061888421369622,-2.444915681703654,1.9435574137508778,-43.57066278557085
0.4512400878552817,-5.854542758280289,1.8817396853199255,-2.8806223095593624,2.8881608999281405,-43.67281304236354
0.3926946602724788,-5.825661149281007,1.8529334622243319,-3.317350439982998,4.123727894551324,-43.59864026399463
0.3344380487796687,-5.784423870335494,1.8197599578245018,-3.7533368426229443,5.650338754829616,-43.317629136371224
0.2765938100763138,-5.727920482787198,1.7822265893982725,-4.186513133986656,7.462403385362371,-42.80714319099068
0.21931460524844182,-5.653296448933574,1.740361458058406,-4.614584565896563,9.547589481752107,-42.05446098459197
0.16278164075910606,-5.557820554116053,1.6942156123994403,-5.035129175742483,11.886093442747393,-41.05864263368
0.10720343521794554,-5.438959619688579,1.6438643206420154,-5.445715602079283,14.450399310711367,-39.83207420153035
0.052813839021059746,-5.294455626581466,1.5894071646212224,-5.844036344094587,17.205653869466097,-38.401538997268005
-0.0001307172447549132,-5.122399087886805,1.5309668011802766,-6.228051734067266,20.110753227852154,-36.80868984205943
-0.051354708123622965,-4.921291555608284,1.468686283839604,-6.596138632487861,23.12018591938848,-35.109845525582294
-0.10056762367970581,-4.690089696414399,1.4027248975147253,-6.947237087743684,26.186610717754412,-33.375106942235405
-0.1474685206438498,-4.428223589236856,1.3332525266372885,-7.280988157166038,29.264068724636445,-31.686879120563987
-0.19175075653621837,-4.1355829019904915,1.260442645065628,-7.597856948371678,32.31164744364311,-30.137984329491328
-0.2331065855561233,-3.8124664275540603,1.1844640755819114,-7.899236791666592,35.297340169300384,-28.829641015861263
-0.2712312498316639,-3.4594930258610566,1.1054717076652454,-8.187533201825204,38.201784572135736,-27.86963664505598
-0.30582618009027446,-3.0774751801396993,1.0235963756469935,-8.466229568275764,41.021514155518524,-27.370999980400747
-0.33660093189167145,-2.667260038584514,0.9389340799642358,-8.739939568079771,43.771279534185,-27.45131664824863
-0.3632735322775166,-2.229547243242664,0.8515346842834381,-9.014452734562258,46.484798080136436,-28.232412974563363
-0.3855690047099432,-1.7646992624412996,0.7613901569378155,-9.296776864307892,49.212759397910744,-29.839207557724656
-0.4032159973343562,-1.2725716684621922,0.6684223882947367,-9.59516893988514,52.01560622986806,-32.394544050530094
-0.4159417140189781,-0.7524156061635116,0.5724706988958852,-9.919114380390441,54.94560763889639,-36.002554845944104
-0.4234658700806132,-0.20295952977454768,0.4732795550919808,-10.279139928849883,58.006219767504746,-40.70403413537314
-0.4254954653783587,0.37710266790049984,0.37048815580348193,-10.686180270203614,61.063523614852706,-46.36886250193506
-0.4217244386993537,0.987737904049027,0.2636263531014458,-11.149868895222966,63.66151603006896,-52.4577926651715
-0.4118470596588635,1.6243530643497166,0.15212766414921614,-11.67444682187468,64.66941303682187,-57.5500492336219
-0.39560352901536633,2.2710471947179354,0.03538319593046933,-12.2499473142109,61.74087943335416,-58.59630489506826
-0.372893057068187,2.8884559890514767,-0.08711627721163967,-12.835910363161583,50.974564646434324,-50.40649276839467
-0.34400849717767223,3.3982016355158198,-0.2154753808432555,-13.33997529084553,28.344740980432015,-27.49575667292541
-0.31002648082251405,3.68164904532014,-0.34887513375171075,-13.614932857574784,-5.085667839035656,8.958314833015828
-0.27320999036931265,3.6307923669297835,-0.4850244623274586,-13.525349709244626,-38.63930925419028,45.116259762203065
-0.23690206670001482,3.244399274387881,-0.6202779594199048,-13.074187111622596,-59.892988132308005,65.17888098740555
-0.20445807395613602,2.6454693930648006,-0.7510198305361308,-12.42239830174854,-66.95888926132632,67.52895549218229
-0.17800338002548802,1.9758805004515372,-0.8752438135536161,-11.747108746826717,-65.72681672348278,60.41759798648543
-0.15824457502097264,1.3186123332167092,-0.9927149010218833,-11.142932766961863,-61.51569456914669,50.80803469451794
-0.14505845168880555,0.7034553875252423,-1.104144228691502,-10.634852420016683,-56.88898240039734,41.82685633159281
-0.13802389781355312,0.13456556352126892,-1.210492752891669,-10.216583856700755,-52.709864297064684,34.37969929135602
-0.13667824217834043,-0.3925330794493779,-1.3126585914586764,-9.872786863787194,-49.13565612778304,28.516982122507414
-0.1406035729728342,-0.8838896407272083,-1.4113864600965482,-9.58761704256212,-46.08752607635214,24.04249798370713
-0.1494424693801063,-1.3447649014907297,-1.5072626305221695,-9.34719206272505,-43.42947423082436,20.72743908170056
-0.1628901183950136,-1.7790596437989734,-1.60073455114942,-9.139917671908044,-41.02882900486707,18.371534318553245
-0.18068071483300335,-2.1893479338476443,-1.6921337278685005,-8.956202328722512,-38.77368546947162,16.81236245652848
-0.2025741941714798,-2.5770847885423604,-1.7816957511557256,-8.788078704157227,-36.57588228202424,15.919498379389054
-0.2283450420569034,-2.942843611362603,-1.869576538197298,-8.628883720363337,-34.369679853432686,15.585845175969506
-0.2577734781705294,-3.28654040989693,-1.9558653754009314,-8.473025268603642,-32.10950114106896,15.719955669038082
-0.29063888226949874,-3.60763542130762,-2.040595628086968,-8.315825711913261,-29.7676685707846,16.24026749002036
-0.32671523648257494,-3.905312107015466,-2.1237538852061006,-8.153423037013058,-27.33225407770453,17.071256751063228
-0.36576835755272963,-4.178634647792512,-2.205288115576231,-7.982710469502425,-24.804937018516444,18.141246173707643
-0.40755470403065475,-4.426684017977676,-2.2851152202712552,-7.801298007765349,-22.198760001968534,19.38153474235868
-0.4518215442104315,-4.648671617997361,-2.3631282003489087,-7.607482660341763,-19.53574023520295,20.72650403180237
-0.49830826039040516,-4.8440290203493905,-2.439203026952326,-7.400217620023739,-16.844372728246476,22.114364431614767
-0.546748550593899,-5.012472747631855,-2.5132052031525633,-7.179073975707591,-14.157123325855055,23.488229095368688
-0.5968732780702176,-5.154043980890405,-2.5849959429096394,-6.944191684753904,-11.508041564848059,24.797246910431184
-0.6484137178791216,-5.269124396538886,-2.6544378597571785,-6.6962192156495925,-8.930623698926109,25.997586538225267
-0.7011049618445104,-5.358430633528147,-2.7214000519136743,-6.43624335026734,-6.456030459396911,27.053134531991372
-0.7546892681797919,-5.4229909381221155,-2.7857624854163476,-6.165712004947426,-4.1117225041218735,27.93584138280919
-0.8089191775610131,-5.464108163163334,-2.847419605465822,-5.886353591119334,-1.9205306156970339,28.625710071264987
-0.8635602591926463,-5.483313469320304,-2.906283141377015,-5.600096490406684,0.0998626915322864,29.110465589717254
-0.9183933938858494,-5.482314842404981,-2.962284106281082,-5.308991834509511,1.9370823857047872,29.384968864858088
-0.9732165423098992,-5.462944018547933,-3.015374024626177,-5.01514214586093,3.5839287257996455,29.45044671360047
-1.0278459824953785,-5.427104731289937,-3.0655254460847865,-4.720637678724926,5.038025169413048,29.313605727660715
-1.0821170298082778,-5.376724479595807,-3.1127318228720355,-4.427501621448319,6.301313242082715,28.985687841479265
-1.135884274604236,-5.31371134717498,-3.157006839086519,-4.137644743033526,7.37945205232836,28.48151347170843
-1.1890213880759857,-5.2399168266516964,-3.198383286516854,-3.852829608316442,8.281169599157238,27.81854750136715
-1.2414205563425027,-5.157105130660124,-3.2369115826000185,-3.5746441333027703,9.017603138308628,27.016015206266893
-1.292991607649104,-5.066929099277038,-3.272658023933046,-3.3044839812401015,9.601657516815525,26.094089321165445
-1.3436608986418743,-4.970912524108883,-3.305702863745447,-3.043543088028447,10.047403585492221,25.073164952649883
-1.3933700238829632,-4.870438488253961,-3.3361382946257314,-2.792811438501948,10.36953316620534,23.973235000208973
-1.4420744087655029,-4.766743156591907,-3.364066409010751,-2.5530790884998584,10.58288212473145,22.8133744800035
-1.489741840331422,-4.660914335344593,-3.3895971998957495,-2.3249453436998233,10.702028563833702,21.611337442162405
-1.5363509836848679,-4.553894049706256,-3.4128466533327475,-2.1088319692781994,10.740968903207966,20.38326522001731
-1.5818899241819304,-4.446484360674176,-3.4339349730255293,-1.9049993170780262,10.712870732288218,19.14349997806953
-1.6263547677886723,-4.339355653351293,-3.4529849661963095,-1.713564317297331,10.629897981924126,17.904493417532194
-1.6697483243221851,-4.233056673532052,-3.4701206093692827,-1.534519383122009,10.503101337778691,16.67679743917025
-1.7120788910575055,-4.128025660154265,-3.4854658032005026,-1.3677514087303064,10.34236502457597,15.46912175660549
-1.7533591476590482,-4.024602009908505,-3.4991433172878055,-1.2130601911642516,10.156400145133963,14.288442905842253
-1.7936051677581333,-3.923038008457165,-3.511273919199448,-1.070175762105829,9.952774589456762,13.140149652269871
-1.832835547842705,-3.8235102625625976,-3.5219756768205066,-0.9387742655831303,9.737969997734867,12.02821119565845
-1.871070650468331,-3.726130562585249,-3.531363419476338,-0.8184921536265457,9.5174571925818,10.955356518048069
-1.9083319560941834,-3.630955990659431,-3.5395483410126034,-0.708938588446065,9.295782711504186,9.923255423045042
-1.9446415160007777,-3.537998163544389,-3.546637726897064,-0.6097060342156146,9.076660410429158,8.932694039067968
-1.9800214976362216,-3.4472315594400977,-3.55273478723922,-0.520379093824935,8.863063445233948,7.98373962798248
-2.0144938132306227,-3.3586009249877584,-3.5579385781774695,-0.4405416975451102,8.65731317966282,7.075891343663753
-2.0480798224805,-3.27202779319113,-3.5623439951529208,-0.36978278410847265,8.461162658900955,6.2082150686463855
-2.0808001004124113,-3.187416166602121,-3.5660418229940056,-0.3077006334220088,8.275873201949091,5.379461611827155
-2.1126742620784325,-3.10465743458263,-3.5691188293282257,-0.25390601730373724,8.102283398471878,4.588168397532889
-2.143720836424259,-3.023634600597911,-3.571657889501263,-0.20802433332840836,7.94087035748337,3.8327453558616384
-2.1739571824302377,-2.944225897023077,-3.573738132834547,-0.16969687976979198,7.79180346514948,3.1115460842489724
-2.2033994414004683,-2.866307862371582,-3.575435101632245,-0.13858141892730225,7.654991189889509,2.4229255402871397
-2.232062520024184,-2.789757950472687,-3.576820915821518,-0.11435216352443085,7.530121647920468,1.7652855923049646
-2.259960099528911,-2.714456733993482,-3.577964437456762,-0.09669930760138121,7.4166977327184584,1.1371097376618937
-2.2871046668688457,-2.6402897566662977,-3.578931430532776,-0.08532821022476227,7.314067636089972,0.5369882327142876
-2.3135075644355085,-2.567149080305398,-3.5797847126350235,-0.07995832789761939,7.221451562113816,-0.03636521062502284
-2.3391790552385627,-2.49493456468426,-3.5805842959139995,-0.08032198000386961,7.137965370775273,-0.584104099374856
-2.3641284008854053,-2.4235549109765073,-3.581387515714038,-0.08616302099761818,7.062641796020783,-1.107246225537195
-2.3883639499951705,-2.3529284930162997,-3.582249145924014,-0.09723548325299013,6.994449771913704,-1.6066762098232914
-2.4118932349253335,-2.2829839952971627,-3.583221500756544,-0.11330224535122305,6.932312278235845,-2.0831526547835537
-2.4347230748783053,-2.2136608725148044,-3.5843545232100564,-0.1341337718990586,6.875122990381864,-2.537319066149089
-2.4568596836034535,-2.144909642610986,-3.585695860929047,-0.15950696256054947,6.821761894627422,-2.969717714483822
-2.4783087800295633,-2.0766920236647115,-3.5872909305546523,-0.18920413970538769,6.771109915554264,-3.3808056159032436
-2.4990757002662103,-2.008980924509169,-3.5891829719517063,-0.22301219586442012,6.722062504015307,-3.770971819168481
-2.519165509511302,-1.941760299469016,-3.5914130939103504,-0.2607219140561049,6.673542057290617,-4.140555205706326
-2.538583112505992,-1.8750248788961097,-3.5940203130509114,-0.30212746611316815,6.6245089926483,-4.489862046950574
-2.5573333612949534,-1.8087797889696267,-3.597041587712043,-0.34702608658267386,6.5739712743417416,-4.819182625806854
-2.5754211591846494,-1.7430400762262093,-3.6005118485778698,-0.3952179128407424,6.5209922029762,-5.128806319131926
-2.5928515599469115,-1.6778301541964473,-3.6044640277062774,-0.44650597603206166,6.464696313571078,-5.419034655598825
-2.609629861488876,-1.6131831910607366,-3.608929087466598,-0.5006963225880499,6.4042732904719735,-5.690192004324348
-2.6257616933994834,-1.5491404581560169,-3.6139360506924785,-0.5575982426312933,6.338979887252507,-5.942633707011527
-2.6412530979810436,-1.4857506592834917,-3.6195120331187915,-0.6170245797014086,6.268139929926976,-6.176751630382615
-2.6561106045738785,-1.4230692599842218,-3.625682278915806,-0.6787920960052347,6.19114257327674,-6.392977275113151
-2.670341297173721,-1.3611578342514545,-3.632470199875858,-0.7427218687563663,6.107439063935513,-6.591782720832622
-2.683952875516235,-1.3000834436120994,-3.6398974185634216,-0.8086396959646924,6.016538331988555,-6.773679803559397
-2.696953709952356,-1.2399180602922137,-3.6479838155230686,-0.8763764940002864,5.918001778755937,-6.93921800385998
-2.7093528905552784,-1.1807380425046543,-3.6567475804630716,-0.9457686740388862,5.811437647898907,-7.088981565721958
-2.721160270980325,-1.1226236660256652,-3.6662052672034604,-1.0166584896961057,5.696495358285363,-7.22358636571282
-2.7323865076405816,-1.0656587124428116,-3.6763718521004214,-1.088894353353234,5.572860141015869,-7.34367701109009
-2.7430430947650097,-1.0099301110326528,-3.6872607956339536,-1.162331123464135,5.440248262839708,-7.4499245689908475
-2.753142395875336,-0.9555276284042558,-3.698884106868595,-1.2368303691540434,5.298403039020767,-7.543025224180864
-2.7626976721593786,-0.902543598014048,-3.711252410560135,-1.312260621395852,5.147091747092542,-7.623700039507919
-2.771723108139519,-0.8510726805431226,-3.724375016774094,-1.3884976217909313,4.986103456222957,-7.692695861657799
