th1 (rad),w1 (rad/s),th2 (rad),w2 (rad/s)
6.24546750823164,-2.2173007416093036,5.942934846498286,0.30259049091907153
6.223294500815547,-2.2522798666383355,5.945960751407476,0.3833338425622589
6.200771702149164,-2.2831786767379976,5.949794089833099,0.45936599662055083
6.177939915381784,-2.309547918586384,5.954387749799304,0.5299258378004746
6.15484443619592,-2.330918359007665,5.959687008177309,0.5942344369663275
6.131535252605843,-2.346816906817243,5.965629352546973,0.6515200247359112
6.108067083537671,-2.356786899075088,5.972144552794332,0.7010486843082715
6.08449921454692,-2.3604116215187103,5.979155039637415,0.7421593535729502
6.0608950983317325,-2.357339391947313,5.9865766331731445,0.7743006711804981
6.03732170441226,-2.347307867333453,5.994319639884949,0.7970662581710917
6.013848625738925,-2.3301648301560367,6.00229030246666,0.8102244669744002
5.990546977437365,-2.3058827440015173,6.010392547136404,0.8137387047220461
5.96748814999735,-2.274564936756679,6.018529934183625,0.8077752793429867
5.944742500629784,-2.2364423236597486,6.026607686977054,0.7926972528832562
5.922378077393186,-2.191860919606736,6.034534659505887,0.7690447243415611
5.900459468197119,-2.1412617051473624,6.042225106749303,0.7375038651599538
5.879046851145645,-2.085155396149223,6.049600145400903,0.6988684532629661
5.858195297184153,-2.0240951189162786,6.056588829933532,0.6539983033748045
5.837954345994991,-1.9586498704263415,6.06312881296728,0.6037788147111817
5.818367847290728,-1.8893810634862471,6.069166601114392,0.5490850188056337
5.799474036655865,-1.8168236280026258,6.074657451302448,0.4907523104289336
5.781305800375839,-1.7414722818136692,6.079564974406737,0.4295547992866858
5.763891077557703,-1.6637728637672895,6.083860522399604,0.36619116934170204
5.7472533489200295,-1.584118123254085,6.087522434093021,0.30127720039917666
5.7314121676874885,-1.5028470949613426,6.090535206097012,0.23534371013868782
5.716383696737875,-1.4202471165409434,6.092888643198399,0.16883855983349322
5.702181225572465,-1.3365576103297672,6.094577028796734,0.10213144831002548
5.688815649469167,-1.251974888718489,6.095598343279835,0.03552041092900436
5.676295900581982,-1.1666574088787052,6.095953547389125,-0.03076082480674537
5.664629326493195,-1.0807310647109456,6.095645939141058,-0.09653524395976797
5.653822015846085,-0.994294244694859,6.09468058670146,-0.1616751236235071
5.643879073399137,-0.9074224970325033,6.093063835465225,-0.22609503836449238
5.634804848428812,-0.8201727280227958,6.09080288508158,-0.2897454194727855
5.626603121148584,-0.7325869194985664,6.087905430886852,-0.3526067076229073
5.619277251953598,-0.6446953912837987,6.084379363810623,-0.41468407869924656
5.61283029804076,-0.5565196599421808,6.08023252302363,-0.47600268410155017
5.607265101441338,-0.46807495994785947,6.0754724961826145,-0.536603323629699
5.602584351841859,-0.3793725013286885,6.070106462946318,-0.5965384560301288
5.598790626828572,-0.29042154146072613,6.064141078386016,-0.6558684456570124
5.595886411413965,-0.20123134990367775,6.057582393929446,-0.7146579407458868
5.593874097914928,-0.11181314517474997,6.050435814521988,-0.772972277741292
5.592755966463181,-0.02218208182173781,6.0427060917445745,-0.8308738059850173
5.592534145644963,0.06764063475351119,6.034397353684724,-0.888418027580715
5.593210551992499,0.15762542984471034,6.025513173408918,-0.9456494487942998
5.594786806290946,0.24773176450384446,6.016056678920974,-1.0025970430165572
5.597264123935984,0.33790519704180216,6.006030708490809,-1.0592692329829771
5.600643175906402,0.428074044415633,5.995438016160979,-1.1156483144195875
5.604923916350558,0.5181456049332771,5.984281533016784,-1.1716842684401563
5.610105372399891,0.6080019326834908,5.972564690332383,-1.2272879509119827
5.616185391726726,0.6974951983827777,5.9602918108232625,-1.2823237098078153
5.623160343710554,0.7864427357387881,5.9474685737251844,-1.3366015731846657
5.631024771067942,0.8746219616026946,5.934102557993338,-1.3898692775779904
5.639770990683969,0.9617654752803593,5.920203865217558,-1.4418045739134657
5.6493886454367725,1.0475567869024147,5.905785819478424,-1.4920084550325514
5.659864213305797,1.1316272894276247,5.890865734928098,-1.5400001855226577
5.671180486200073,1.2135552556541755,5.875465733072871,-1.5852152554687116
5.683316038756614,1.292867777913168,5.859613580518184,-1.6270075789838523
5.696244716535746,1.3690466246705442,5.843343504728345,-1.6646573462092609
5.709935182782452,1.441538901994237,5.826696931266253,-1.697385824253628
5.724350571802394,1.5097731129949534,5.809723073023716,-1.724377994275467
5.7394483029323435,1.573180658448219,5.792479293080961,-1.7448131411519563
5.755180109516826,1.631222020879047,5.775031161669442,-1.7579023821534239
5.771492329725617,1.6834159085126998,5.757452137847907,-1.7629307505214584
5.7883264888107435,1.729368687539753,5.739822830342693,-1.759300094667899
5.805620175686141,1.768800758612321,5.722229829396014,-1.7465680764854072
5.823308183272265,1.8015663988861823,5.70476414863116,-1.7244783251336677
5.841323847261127,1.8276641585663698,5.687519365379823,-1.6929775622170116
5.859600488846791,1.8472361430062945,5.670589589757653,-1.6522172285117747
5.878072850276854,1.8605561782203168,5.654067417472535,-1.602539467050396
5.896678412059057,1.8680085437985976,5.638042022802031,-1.5444496869287294
5.915358497497043,1.8700602442457188,5.622597525932743,-1.478579758984436
5.9340590999395,1.8672303980113287,5.607811728342899,-1.4056467816723814
5.952731403919613,1.8600601982451264,5.593755260526175,-1.3264122194939403
5.971332005902065,1.8490861968535839,5.580491138331236,-1.2416452692862316
5.9898228678706005,1.8348186588216981,5.568074685638373,-1.1520929317516273
6.008171054458818,1.817725707313195,5.556553756320857,-1.058457846928891
6.02634831153195,1.7982231346386792,5.545969177851568,-0.961383776951354
6.0443305428783365,1.776669185228669,5.536355340082054,-0.8614478227877759
6.062097234730623,1.7533633267035658,5.527740861854177,-0.7591580496891551
6.0796308679976585,1.7285479593317437,5.520149281357286,-0.6549550948433225
6.096916347590976,1.7024120972240906,5.513599730408853,-0.5492164368926319
6.113940468563217,1.675096215867441,5.508107566039926,-0.44226222310082625
6.130691430721892,1.6466976465107246,5.503684943808918,-0.3343618020083017
6.147158407186999,1.617276074526055,5.500341325788835,-0.22574035024071565
6.1633311679322595,1.586858848762665,5.498083922286428,-0.11658518740480263
6.179199756419886,1.5554459263202496,5.49691807041238,-0.007051534469654883
6.194754215683089,1.5230143632746005,5.496847555067683,0.10273240991271727
6.209984359315835,1.489522321281036,5.49787487916681,0.21266111791330716
6.224879582528645,1.4549125983390567,5.500001490345943,0.3226480944451957
6.239428708512036,1.419115714796441,5.503227971290395,0.4326229080887599
6.25361986566,1.382052597571125,5.507554200371282,0.5425288284781049
6.267440391635711,1.3436369102700234,5.512979488656063,0.6523209993191093
6.280876760738411,1.3037770771619726,5.519502698649254,0.7619650740314248
6.293914531510031,1.2623780468257495,5.527122349389568,0.8714362422400789
6.306538311978288,1.2193428381588394,5.535836711811969,0.9807185781037805
6.318731740359877,1.1745739082829485,5.545643897593007,1.089804644461653
6.330477479442706,1.1279743794094617,5.556541944037623,1.19869528911178
6.341757223236801,1.0794491604393084,5.568528896928741,1.3073995705544654
6.352551714841194,1.028905999374987,5.581602892634286,1.4159347497193047
6.362840774834944,0.9762565048919287,5.595762240131479,1.5243262810621079
6.372603339883863,0.9214171800429483,5.6110055029421,1.632607730441255
6.381817511684292,0.8643105185008965,5.627331580246513,1.7408205377417727
6.3904606168693014,0.8048662245151299,5.644739785623931,1.8490135285438747
6.398509279114453,0.7430226325069321,5.6632299209093695,1.9572420602887
6.405939505439522,0.6787284217043308,5.682802341512256,2.0655666632483527
6.412726789656565,0.6119447462421034,5.7034580081447395,2.174051003873531
6.418846237118986,0.5426479325453901,5.725198518183475,2.2827589564287596
6.42427271644444,0.47083293420433714,5.748026107747762,2.3917505170687003
6.428981045786483,0.39651778002831906,5.771943612918449,2.5010762321273137
6.432946223586766,0.3197493024897827,5.7969543752397215,2.6107697403071586
6.436143716611664,0.2406104880928028,5.823062072642793,2.720837950451196
6.438549821492591,0.15922984123629075,5.8502704521473055,2.831248301584085
6.440142119904954,0.07579318537640135,5.878582935163147,2.9419124975344917
6.440900051758718,-0.009441683871245138,5.908002060138491,3.0526661060994806
6.440805634920006,-0.09612716808645894,5.938528721199486,3.163243514331522
6.439844363239141,-0.1838047597768486,5.970161156342801,3.2732480171520195
6.438006315641372,-0.271881010790333,6.0028936365143215,3.3821173997726777
6.435287505533469,-0.35960169819168225,6.0367148105120485,3.489086399454683
6.431691488551552,-0.44602651241456015,6.071605674506595,3.59314904897752
6.427231223427406,-0.5300082829647204,6.107537164996371,3.6930262028493015
6.421931140597759,-0.6101828531796999,6.144467427024864,3.7871464278332705
6.415829312065962,-0.6849778473449257,6.182338891303197,3.873651410427224
6.408979533592513,-0.7526499223292915,6.221075405407469,3.9504389883313045
6.4014530343692195,-0.8113593384382701,6.2605797952907825,4.0152560432979065
6.393339440984837,-0.8592862589895791,6.300732355723762,4.065847649810358
6.3847465783949415,-0.8947841121640544,6.341390832221865,4.100156681798525
6.375798737273301,-0.9165525241541983,6.38239239903985,4.11655073065704
6.366633212031759,-0.9237996163380864,6.423557906346421,4.114035919459163
6.357395215868378,-0.916357130484233,6.464698265541013,4.092408570718395
6.348231644563535,-0.8947175462230853,6.5056223512481965,4.052303386196651
6.339284469101305,-0.8599807163939247,6.546145385110163,3.9951216553453204
6.330684661937365,-0.8137220645837316,6.586096601663616,3.9228561081297038
6.322547441291528,-0.757814419670693,6.625325162744914,3.837855858843534
6.314969297094821,-0.6942428830006975,6.663703721333349,3.74258435300871
6.308026868264815,-0.6249457577190409,6.701129564863437,3.6394141784202025
6.301777410687624,-0.5517001216734948,6.7375237066476386,3.5304828126085406
6.2962604094708885,-0.4760556073607678,6.772828534773724,3.417613101662535
6.291499853397281,-0.399309448077931,6.807004665790349,3.3022883193875616
6.287506758916502,-0.32251117439043214,6.840027548984224,3.1856656868271913
6.284281647172597,-0.24648520313882027,6.8718842058524965,3.068612363417869
6.281816795141209,-0.1718618419895354,6.902570329486675,2.9517512312821634
6.280098176721314,-0.09911019771539659,6.932087841799497,2.835507922181764
6.27910707474416,-0.028569129818009006,6.960442921021315,2.720154157902845
6.27882138344598,0.0395256396611286,6.987644462600343,2.605845117819432
6.279216639842591,0.10501887086001721,7.013702913778538,2.4926502309980214
6.280266828551191,0.16781748328300405,7.038629416088518,2.380577729628826
6.281945003384021,0.22787608461441053,7.062435193384806,2.2695937383476954
6.284223764230165,0.28518574167987953,7.085131130768283,2.1596368091089237
6.287075621646964,0.33976538297052183,7.106727498859372,2.0506287832734698
6.2904732754766695,0.39165528273536,7.1272337866921065,1.942482759584263
6.294389828304023,0.4409121602020015,7.146658614287949,1.8351088194962708
6.298798949906043,0.4876055131693898,7.165009702482911,1.728418036435152
6.3036750050377375,0.5318148831035507,7.1822938828472624,1.6223251849479463
6.308993153868773,0.5736278152217551,7.198517134696742,1.5167504732694725
6.31472943202099,0.6131383313830067,7.213684639429436,1.411620548335008
6.320860815334821,0.6504457769440338,7.227800844912786,1.3068689636808837
6.327365273104261,0.6856539366885542,7.240869534549595,1.2024362553673005
6.334221812471147,0.718870341170569,7.2528938971032675,1.0982697364453855
6.341410515882853,0.7502057048599369,7.263876594467721,0.9943230942903647
6.348912572931452,0.7797734526403485,7.273819825410625,0.8905558554391743
6.356710307457855,0.8076893025441668,7.282725383965016,0.7869327678898269
6.364787200483297,0.834070880952558,7.290594711643915,0.6834231399649014
6.373127909292823,0.8590373524914872,7.297428943043564,0.5800001669185159
6.3817182828177375,0.8827090510080619,7.30322894471275,0.4766402708097297
6.390545373327818,0.9052071006860549,7.307995347420847,0.3733224752921514
6.399597444334678,0.9266530178231284,7.311728572173768,0.2700278345399893
6.40886397451291,0.9471682842343673,7.314428850519168,0.16673893431878634
6.418335657355254,0.966873882791839,7.316096239862357,0.06343948307888353
6.428004396183172,0.9858897843298794,7.316730634693146,-0.03988598816162037
6.437863294026471,1.0043343730687455,7.3163317748115295,-0.14325229647334656
6.447906637757158,1.0223237948267485,7.314899251846796,-0.24667362457501624
6.458129875705425,1.0399712085649622,7.312432515601047,-0.35016335754767136
6.468529587791075,1.0573859171793085,7.30893088202557,-0.4537337055845849
6.479103446962868,1.074672347851726,7.304393544969725,-0.5573950728994486
6.489850170441385,1.091928845630655,7.29881959424073,-0.661155124650336
6.500769458897691,1.1092462361990978,7.292208042994227,-0.7650174938883515
6.511861921259682,1.1267061050480809,7.2845578680553436,-0.8689800591296573
6.523128982310164,1.144378730685438,7.275868067464047,-0.9730327103849573
6.534572769617018,1.1623205994923715,7.266137740360198,-1.0771545078863694
6.546195975611941,1.1805714201929045,7.255366195281334,-1.181310124366764
6.558001689813871,1.1991505480122482,7.243553094037666,-1.2854454504058017
6.569993195293994,1.218052724730189,7.230698639533608,-1.389482236079893
6.582173722541295,1.2372430444890887,7.216803817172809,-1.4933116456550037
6.594546152986186,1.2566510715874615,7.201870700716259,-1.5967866223695855
6.60711266370206,1.2761640729348682,7.185902834492563,-1.699713007467199
6.619874304431409,1.2956193942392837,7.168905704417891,-1.801839445033325
6.632830498373802,1.3147961177205851,7.150887309967557,-1.9028462488227544
6.645978459551008,1.3334063041776152,7.13185884747933,-2.0023336283717423
6.659312522592784,1.3510863566544737,7.111835511195612,-2.099809987373457
6.672823386159329,1.3673893537549675,7.0908374113218775,-2.194681427460667
6.686497279696878,1.3817795799321186,7.068890597047271,-2.286244104764102
6.700315075496199,1.3936308921093115,7.04602815599963,-2.373681646401489
6.714251384417293,1.4022309278620146,7.022291339535615,-2.4560703316446246
6.728273693695913,1.4067933456915092,6.997730636219169,-2.5323949939016708
6.742341627152828,1.406480104725556,6.972406686280152,-2.601578347325699
6.7564064282000835,1.4004350306675433,6.946390902806895,-2.66252539987121
6.770410778506759,1.3878284252691793,6.919765648808183,-2.714182576299057
6.78428906275945,1.3679102843836572,6.892623823045192,-2.755608179486086
6.797968165603287,1.3400671235253077,6.865067741250331,-2.786047323051175
6.81136883683854,1.3038751442058951,6.837207268019819,-2.805001404367873
6.824407588280598,1.2591413937836726,6.8091572539761405,-2.8122807712130813
6.836999002218435,1.205925426863007,6.78103444626401,-2.8080304914145384
6.849058256487065,1.1445369517381714,6.752954141349864,-2.7927232968693603
6.860503626004446,1.0755093987245827,6.725026908381171,-2.7671199317334003
6.871258719991692,0.9995539592447179,6.697355709063837,-2.732203453490668
6.881254259584139,0.917501973752307,6.670033674528931,-2.6890985282154416
6.890429279321662,0.8302446829988802,6.643142689246776,-2.6389881946232263
6.8987317261516505,0.7386782769356471,6.616752807300544,-2.5830389473586406
6.906118508921007,0.6436596143461913,6.590922417826957,-2.5223413557996888
6.9125551050644685,0.5459749814377918,6.56569900426896,-2.4578692394968584
6.918014854878846,0.4463216782262287,6.541120311873991,-2.3904568639496344
6.922478071661109,0.3453005212983895,6.517215743234495,-2.3207913128029256
6.925931076874093,0.2434165767733008,6.494007830106465,-2.249416179872295
6.928365242641826,0.14108538154417632,6.471513668307742,-2.176742705370066
6.929776096457267,0.038642286726929084,6.449746241254042,-2.103065048167576
6.930162519324536,-0.0636468883136698,6.428715590772366,-2.02857718639898
6.9295260504414,-0.16557514145364022,6.408429818908376,-1.9533897355217043
6.927870299026863,-0.26698428479545483,6.388895921553159,-1.8775456435697087
6.925200456178909,-0.36775606154836205,6.370120465117462,-1.80103422796121
6.921522895563426,-0.4678045383764513,6.35211012283785,-1.7238033649774693
6.916844850179661,-0.5670697671269886,6.334872089188075,-1.645769861244868
6.911174152508392,-0.665512615849251,6.318414390575627,-1.5668281602792122
6.904519026349899,-0.7631106213002363,6.302746108972834,-1.4868575969063162
6.896887920136896,-0.859854696734139,6.287877533003771,-1.4057284321742618
6.888289373169554,-0.955746527311513,6.2738202486820285,-1.323306898601461
6.878731907896439,-1.0507964924673534,6.260587179696014,-1.2394594720771057
6.868223942971766,-1.145021964528662,6.248192584975243,-1.1540565700771703
6.856773723326479,-1.2384458423327718,6.236652019274471,-1.0669758607868114
6.8443892649031515,-1.3310951855039317,6.225982260666603,-0.97810535700878
6.8310783130481125,-1.4229998182003358,6.216201207096515,-0.8873464639529982
6.816848314866109,-1.514190769883501,6.207327742456985,-0.7946171519581567
6.801706407167274,-1.6046984146715833,6.199381570937404,-0.6998554342044968
6.785659423020559,-1.6945501600959254,6.192383016595359,-0.6030233454168188
6.768713921419599,-1.7837675209291453,6.186352783141191,-0.5041116397616899
6.750876246210308,-1.872362395117511,6.181311666743574,-0.4031454530869004
6.732152622259133,-1.9603323386304299,6.177280212212705,-0.3001912033834309
6.712549298872829,-2.047654617740406,6.17427830017887,-0.19536502860211308
6.692072752695425,-2.134278806902314,6.1723246498928495,-0.08884307383794504
6.6707299646264016,-2.2201177078439924,6.17143621915447,0.01912607388819257
6.648528787547962,-2.305036405929722,6.171627479893352,0.1282065673745335
6.625478423488665,-2.3888393756188426,6.172909545567097,0.2379580044187803
6.601590029732477,-2.4712557285320362,6.175289125611285,0.347815829995622
6.576877472447157,-2.5519230036846463,6.178767283911242,0.45707005363844067
6.55135824241031,-2.6303703715468805,6.183337984447626,0.564843580998031
6.5250545386948415,-2.706002794565368,6.188986420257606,0.670072420042842
6.497994510749188,-2.7780885563799367,6.195687144458034,0.771491261043341
6.470213625185389,-2.845753567387199,6.203402057068468,0.8676293374601084
6.441756089511517,-2.9079867783844264,6.212078350443069,0.9568227665586424
6.412676221727673,-2.963661519040488,6.221646578108656,1.037250215902524
6.383039606537268,-3.011577086840677,6.232019080267681,1.1069979776293777
6.352923835668861,-3.050522852192195,6.243089060043975,1.1641575140831115
6.322418607146939,-3.079363150685482,6.2547306351848055,1.2069527522820356
6.291624975640084,-3.0971355898880524,6.266800162707626,1.2338862714917496
6.260653619741204,-3.103149409911956,6.279139025422544,1.2438849241078558
6.229622125642084,-3.097066465525177,6.291577874663623,1.2364195960564908
6.198651460986833,-3.078947656594322,6.3039420706241875,1.2115742054665606
6.167861984420889,-3.0492533990074224,6.316057812678853,1.1700473442834325
6.137369450430815,-3.0087967919362124,6.3277582861216874,1.1130844659303465
6.1072814825114525,-2.958659040748423,6.3388891307809905,1.042354268017297
6.077694892103969,-2.9000843901691074,6.349312673461164,0.9597941076272728
6.048694048202278,-2.8343738317759803,6.358910614537436,0.8674523379127859
6.020350309884519,-2.7627933911426026,6.3675851379165636,0.7673506344487379
5.992722375973092,-2.6865062096582832,6.375258644261051,0.6613799978152302
5.965857313876509,-2.606530779283005,6.381872444239203,0.5512342692877937
5.939792006083679,-2.523722577117556,6.387384786932081,0.43837758064303156
5.914554780312503,-2.4387736634960655,6.391768562738512,0.3240381903368329
5.890167043677542,-2.3522242140499325,6.39500894464188,0.20922018612832138
