th1 (rad),w1 (rad/s),th2 (rad),w2 (rad/s)
4.6074874282760865,1.7088276449915734,3.7080336630333335,2.51334387678915
4.624575704726002,1.7699080306609345,3.733167101801225,2.5508034854627195
4.642274785032612,1.8290748244378794,3.758675136655852,2.5926496172045717
4.660565533276991,1.886146779087598,3.784601632827898,2.6390149787850348
4.679427001067866,1.9409367240601931,3.8109917826157482,2.690024467214602
4.698836368308468,1.9932513850617029,3.8378920272878942,2.745794540616816
4.718768882159085,2.0428912536167387,3.8653499726940623,2.8064326308501033
4.739197794695253,2.089650531609888,3.8934142990025635,2.8720366062705467
4.760094300011351,2.1333171800686612,3.922134665065269,2.9426942929281585
4.781427471812038,2.173673106432073,3.9515616079945506,3.0184830613847176
4.803164202876359,2.2104945304278063,3.981746438608398,3.0994694837865677
4.825269148180637,2.243552575723826,4.012741133446264,3.1857090612391
4.8477046739378755,2.2726141431006623,4.044598224058655,3.277246014148524
4.8704308153688824,2.2974431315310064,4.07737068420014,3.3741131170225573
4.893405246684193,2.317802086978765,4.111111815370366,3.476331542950753
4.91658326755398,2.333454375933319,4.145875130799873,3.5839106599217128
4.939917811313313,2.3441670030132027,4.18171423739909,3.6968476890891337
4.963359481343445,2.3497142211690445,4.218682714289981,3.8151270912731334
4.986856623555135,2.349882121349804,4.256833985202713,3.9387194888546517
5.010355444768633,2.3444744387671888,4.296221180091259,4.06757985145547
5.033800189156305,2.3333198783802964,4.336896978605814,4.2016445702593135
5.057133387940108,2.316281346434935,4.378913424308407,4.340826911813515
5.080296201404457,2.2932675809302694,4.422321693426542,4.485010172063423
5.10322887721376,2.2642478030955058,4.467171795147176,4.6340376412968665
5.125871355244715,2.2292701613444263,4.513512171560145,4.787698241516482
5.148164056858159,2.188484896731841,4.56138915397531,4.945706421091223
5.170048905825477,2.142173295712356,4.610846218186222,5.10767461985622
5.191470638782601,2.0907835533892314,4.661922964384785,5.273076421319922
5.212378474316493,2.0349745413939115,4.714653728597984,5.4411985205713576
5.232728219730432,1.9756679791319016,4.769065713803697,5.611080087248708
5.252484899521751,1.9141083681247177,4.825176514676184,5.781439356045805
5.271625983202998,1.8519278854310504,4.882990908236643,5.950589844565151
5.290145262057309,1.7912098107226406,4.9424968066822945,6.1163530809603
5.308057360164535,1.7345386823390412,5.0036603374918975,6.275981579735501
5.325402746987926,1.6850184872107015,5.066420153289252,6.426114809429034
5.342252931860033,1.646233273921886,5.130681301383543,6.5628002261933425
5.358715264599252,1.6221211421647768,5.196309303645476,6.681616621248912
5.3749364760209,1.6167382691880074,5.2631254698579655,6.777930674825043
5.39110385871278,1.633910462095547,5.330904776606216,6.847291844044147
5.407442963333736,1.6768070509923392,5.399377695046658,6.885923614723988
5.424211033843659,1.7475161116295412,5.468236931193898,6.891213233485444
5.441686194959955,1.8467286512868704,5.537149063528752,6.862066433676276
5.460153481472823,1.9736279133716614,5.605769727865515,6.799010081072071
5.47988976060654,2.126022066224955,5.673759828676236,6.704001306945258
5.50114998126879,2.300678800354671,5.740799841745688,6.580003368880964
5.524156769272336,2.4937607963645116,5.806599875434498,6.4304612409920985
5.549094377235981,2.7012498647578385,5.8709044878444185,6.2588186227069835
5.57610687588356,2.9192803114773853,5.933492674071489,6.068171018747998
5.605299678998334,3.1443515355228993,5.994174384258969,5.861083813570185
5.636743194353563,3.3734298869161687,6.052785222394671,5.6395536232636605
5.670477493222724,3.6039695600654884,6.109180758627307,5.405068325315924
5.706517188823379,3.8338846154012103,6.163231441880466,5.158720880051243
5.744856034977391,4.061497181423702,6.214818650680979,4.901343099520004
5.785471006791628,4.285477390986284,6.2638320816761786,4.633638836177603
5.8283257807014905,4.5047823630638595,6.310168470037954,4.356307110483937
5.873373604332129,4.718595698104015,6.3537315411427935,4.070153331558669
5.920559561313169,4.926265328692296,6.39443307445838,3.7761914755215193
5.969822214600092,5.127235579526037,6.4321949892135954,3.475742739423154
6.021094570395353,5.320968458834271,6.466952416607827,3.1705374089285807
6.074304254983695,5.506849354825154,6.498657790697113,2.862826594028117
6.129372748531947,5.684073689174886,6.527286056637394,2.555508616893472
6.186213485423695,5.851514422189926,6.5528411428063285,2.252270005302852
6.244728629645595,6.007576851981939,6.575363842859357,1.957731407241701
6.304804398165414,6.150058387574245,6.594941156931774,1.6775721989756787
6.366304982041156,6.276047680324773,6.611716878921531,1.418583187964389
6.429065458844404,6.381917552176054,6.625902710801174,1.1885680663760874
6.492884634366164,6.463481114018021,6.637788391464936,0.9959939209275429
6.557519445506344,6.5163729934071,6.647748330674211,0.8493047559579806
6.6226831754404145,6.536665879560483,6.656241378233791,0.7558913627288155
6.688049834236019,6.521629085609411,6.663800291861079,0.7208662588106394
6.7532661250921135,6.47041570161911,6.671008954449185,0.7459711361409201
6.817970282108305,6.384412168944516,6.678468665810594,0.8290219568450443
6.881814403797749,6.26707582184357,6.686758885379044,0.9641592109313872
6.944485162016185,6.123300636842121,6.696400477488358,1.142848255887726
7.005718168384606,5.958553409631529,6.707828960047235,1.3552668380839652
7.065303702480921,5.7780776713812605,6.721381628428074,1.5916248406913986
7.123084479194733,5.586361889296366,6.7372978768349885,1.843103785614674
7.178948098087697,5.3869133555589865,6.755728914691135,2.1023340888544424
7.232817231643287,5.182269529028666,6.776752255579679,2.363497252782196
7.284639926933573,4.974144061492726,6.8003872281075015,2.6221997450864127
7.334381367548501,4.763621039793939,6.826609225558365,2.8752475596579385
7.38201757794644,4.551343838048367,6.855361701154945,3.1204050113314343
7.427531016326924,4.337673700959586,6.886565751268259,3.3561795236499075
7.47090775333652,4.122811550252236,6.920127546504759,3.5816464144012796
7.512135868839042,3.9068858341527006,6.955944010648771,3.7963129330366105
7.551204727180569,3.6900128024077525,6.993907139979138,4.000014681796218
7.588104855204647,3.472336161326994,7.0339072867971,4.192836108112818
7.622828216817917,3.254052384774375,7.075835647878228,4.375047402691268
7.6553687406656605,3.035426933266129,7.119586121905141,4.547051461404983
7.685723009998322,2.8168056543591877,7.165056636519191,4.709335910847998
7.713891066541914,2.5986248176677833,7.212149995627671,4.862426320531258
7.7398773147185915,2.3814225540674285,7.260774258832984,5.006837615308439
7.7636915402592654,2.1658538247209638,7.310842634986068,5.143021470354559
7.785350078506475,1.9527102923574857,7.362272849689614,5.271308318370908
7.80487718143005,1.7429454029853282,7.414985932873323,5.391843810281934
7.822306635459904,1.5377033599574361,7.4689043709761425,5.5045215114351675
7.837683669059478,1.338348221562518,7.523949586090494,5.608916679548329
7.851067151275103,1.146485922090667,7.580038752885978,5.70423042441471
7.86253201049601,0.96396780717926,7.637081057130125,5.789259188413658
7.872171688567803,0.7928602511658638,7.694973649014261,5.862410081723421
7.8801002910794615,0.6353632346617346,7.753597749831496,5.921785306026426
7.886453923426079,0.4936647414465438,7.81281560289176,5.96535418496135
7.891390570840545,0.36973084668928846,7.872469144741373,5.991214533195621
7.895087879307438,0.26505392577746595,7.932381290073329,5.997915327785598
7.897738418565212,0.18040757646451416,7.992360443351186,5.984777651591318
7.899542494329857,0.11567342242819953,8.052208219867099,5.95212826790109
7.9006992285541395,0.06979757314550811,8.11172950254611,5.90136929538082
7.901397204285595,0.040899286378234555,8.170743195499918,5.8348535694962615
7.901806197149377,0.026505399811200328,8.229091731194881,5.755599619180639
7.90207125114749,0.023846355939969074,8.286647727386688,5.666929463953178
7.902309714706889,0.0301411217302174,8.34331702202622,5.572122942601457
7.902611125924191,0.04281788336614915,8.399038251452234,5.474155934514672
7.903039304757852,0.05964921679330218,8.45377981079738,5.375547983274248
7.903635796925785,0.07880771918824292,8.507535290630123,5.278309633698905
7.904423874117668,0.09886273844333017,8.560318386967113,5.183961568832318
7.905412501502101,0.11874167312149086,8.612158002655436,5.093594879839705
7.906599918233316,0.1376752371016299,8.663093951453833,5.00794780789332
7.907976670604333,0.15513979246414655,8.713173429532766,4.927482837814094
7.909528068528974,0.1708041397570889,8.762448257910908,4.85245552451845
7.911236109926545,0.184484036555023,8.810972813156091,4.782971681337441
7.913080950292096,0.19610518940856858,8.858802529969466,4.719032661390167
7.915042002186182,0.2056741383600476,8.905992856583367,4.660569997078359
7.917098743569782,0.21325589678898932,8.95259855655415,4.607471221784206
7.919231302537672,0.21895708723429783,8.998673268771993,4.559598728910876
7.921420873410015,0.2229134051686339,9.044269256061103,4.516803312503221
7.923650007461701,0.22528041791368292,9.089437289186135,4.478933743098963
7.925902811640838,0.22622689658282563,9.134226626617124,4.445843443893191
7.928165080606666,0.2259300534224175,9.178685061056056,4.4173950804953925
7.93042438114089,0.2245722036411,9.22285901186101,4.393463672406725
7.932670103177301,0.2223384882837849,9.266793648585077,4.373938673969931
7.934893488060139,0.21941538584252043,9.310533035324775,4.358725350438705
7.937087641918564,0.21598980946462837,9.354120288829163,4.34774568340876
7.93924754001321,0.21224863821283824,9.397597745663251,4.340938972109069
7.941370026395338,0.20837856868636262,9.441007135384343,4.338262247019554
7.943453812082202,0.20456620052424931,9.484389757854538,4.339690575175034
7.945499474087445,0.20099828825801777,9.527786663606289,4.345217308575355
7.947509456970025,0.1978621043947158,9.571238836692043,4.354854305411537
7.949488078013972,0.1953458656866028,9.614787379746158,4.368632136014241
7.9514415366708375,0.19363917701531805,9.6584737011063,4.386600269635753
7.9533779284409905,0.19293344553043212,9.702339703802659,4.4088272227531276
7.955307262896294,0.1934222116289712,9.74642797603019,4.435400633012449
7.9572414850125845,0.19530133270995537,9.790781982360315,4.466427203704961
7.959194498339684,0.19876893972839557,9.835446254397365,4.502032440145886
7.961182187736968,0.20402506441775337,9.880466578798824,4.54236006967779
7.963222438381146,0.21127080531956555,9.925890179495601,4.58757099911036
7.965335146434342,0.22070686178813592,9.971765889486704,4.637841614755184
7.967542215052223,0.23253121496640283,10.018144305634257,4.693361167978194
7.969867527201887,0.2469356712232463,10.065077917314039,4.754327910269421
7.97233688391412,0.2641009046695648,10.112621196416733,4.8209435431212935
7.9749778929608155,0.28418953973187716,10.160830631847945,4.893405427006002
7.9778197883581345,0.30733670256292867,10.209764686118005,4.9718958496468115
7.980893155383764,0.33363734477606943,10.259483644614473,5.056567489451002
7.984229528831524,0.36312951403697363,10.310049319508984,5.147524035208908
7.987860823971894,0.39577263302499366,10.361524559861072,5.244794759854052
7.991818550302144,0.4314197870838875,10.413972507459613,5.34830173590473
7.9961327481729825,0.46978307206162945,10.46745552481866,5.457818395301921
8.000830578893598,0.510391312627011,10.52203370877168,5.572918392505027
8.005934492019868,0.5525400671461717,10.57776289269673,5.692914399497019
8.01145989269133,0.5952349746541356,10.634692036691701,5.816787780357937
8.01741224243787,0.6371313913579766,10.692859914495282,5.943112344519884
8.02378355635145,0.6764761060596608,10.75229103794048,6.069978830589415
8.030548317412046,0.7110607733584632,10.812990826246375,6.194931537296813
8.037658925145632,0.7382012690616915,10.874940141619344,6.314934288298597
8.045040937836248,0.7547615236322228,10.93808948450233,6.426388602663884
8.052588553072571,0.7572426832407251,11.002353370528969,6.525230307848798
8.060160979904978,0.7419559165584846,11.067605673607456,6.607128449791824
8.067580539070564,0.7052867865740028,11.133676958105374,6.667798370889637
8.074633406936304,0.6440391711381528,11.20035494181427,6.703416974003404
8.081073798647685,0.5558193698895093,11.267389111554303,6.711094805014536
8.08663199234658,0.43939404920592784,11.334500059604448,6.689325968397043
8.09102593283864,0.29494143505657183,11.401393319288418,6.638318152546478
8.093975347189206,0.12412522335517762,11.467776500813883,6.56011551426384
8.095216599422757,-0.07004222387771025,11.533377655956523,6.458470613731102
8.09451617718398,-0.28352759405823824,11.597962362093833,6.338485217062229
8.091680901243398,-0.5117268790549576,11.661347214264456,6.206098696476476
8.08656363245285,-0.749945257280576,11.723408201229221,6.067533584526269
8.079064179880044,-0.9938202301255501,11.784083537074483,5.928801820453546
8.06912597757879,-1.2396316018577893,11.843371555279019,5.795341130771621
8.056729661560212,-1.4844796274559287,11.901324966586735,5.671807158817451
8.041884865285652,-1.726344004293499,11.958043038174909,5.562010120730679
8.024621425242717,-1.9640543601745677,12.013663139382215,5.46896331666338
8.004980881640972,-2.1972077313167655,12.068352772548849,5.395004728590501
7.983008804327804,-2.4260644987821602,12.122302819834754,5.341957415499888
7.958748159339983,-2.6514462920369084,12.175722393989753,5.31130386443534
7.932233696419614,-2.8746511419095113,12.228835432634106,5.304359673575385
7.903487185000518,-3.0973946256120226,12.28187902936986,5.322440689359547
7.872513238744398,-3.321781499321219,12.335103436263456,5.367024299886823
7.839295423751186,-3.5503101846068192,12.388773679262323,5.439910185005802
7.803792321905118,-3.7859119421951344,12.44317278111238,5.543388917090281
7.765933202483167,-4.0320269454603315,12.498606670283284,5.6804287195180985
7.725612933028564,-4.292719797542467,12.555410957478465,5.854891131008941
7.682685735053139,-4.572835543112461,12.613959868788553,6.07178356018019
7.636957379622014,-4.878189895403075,12.674677704390355,6.3375456335944484
7.588175480667982,-5.215764506604925,12.738053160726299,6.660333567411405
7.536017835601934,-5.59381578854,12.804656496400414,7.050179353507688
7.4800796777165335,-6.021646178440983,12.87515828993549,7.518678455259129
7.419863215932124,-6.50839563095601,12.95034507448808,8.077312747171021
7.354779259622564,-7.059314736297952,13.03111820195979,8.732259465400936
7.284186112259585,-7.6662350265126085,13.1184407966138,9.47108392856389
7.207523761994459,-8.287117817985868,13.21315163589944,10.234116545076942
7.1246525838146,-8.81509588043702,13.315492801350208,10.87100897802787
7.036501625010231,-9.072919730153773,13.424202891130488,11.132652322494016
6.945772427708693,-8.920225129992941,13.535529414355429,10.820782391114822
6.856570176408764,-8.426437824219358,13.643737238266576,10.029089229171761
6.77230579816657,-7.814016135383151,13.744028130558293,9.063608211538217
6.6941656368127385,-7.24455692589953,13.834664212673676,8.145388618742343
6.621720067553743,-6.770999776842683,13.9161180988611,7.345087222102247
6.554010069785316,-6.3932079193407665,13.989568971082122,6.660389575199016
6.490077990591908,-6.096714058540681,14.056172866834112,6.069513562804009
6.429110850006501,-5.866487985403174,14.116868002462152,5.550065204613539
6.37044597015247,-5.6902467409869235,14.172368654508286,5.083511382959165
6.313543502742601,-5.558612837884393,14.223203768337878,4.655372044830756
6.257957374363756,-5.464548140696143,14.269757488786187,4.254466271750507
6.203311892956795,-5.402742504682801,14.312302151503692,3.8721382251961294
6.1492844679099665,-5.369106899887542,14.351023533755653,3.5016653724418365
6.095593398911091,-5.360376790266962,14.386040187480072,3.1378561126013707
6.041989631008422,-5.3738008867558,14.417418748606085,2.7768014752288686
5.988251622140863,-5.406890925025737,14.445186763358373,2.4157429604020146
5.934182712890606,-5.457216037490223,14.469344192962394,2.053023107958637
5.879610552515704,-5.52223409389574,14.48987442404198,1.6880883604500354
5.824388211576746,-5.599160344156404,14.50675530764648,1.3215139059110705
5.768396608135182,-5.684879997666978,14.519970446705592,0.9550186907529372
5.711547808158513,-5.775915012331338,14.52952063361312,0.591438100577447
5.653788658035199,-5.868455100426598,14.535435014618896,0.23462484186308347
5.5951041070309335,-5.9584578389978935,14.537781263037527,-0.11074218105514366
5.535519528640955,-6.04181298867596,14.536673841226975,-0.43944494666721295
5.475101398754195,-6.114553686104224,14.532279391760303,-0.7460922119501585
5.413955861893153,-6.1730858282617485,14.524818469640802,-1.0255263441632274
5.352225003610536,-6.214400990887648,14.51456320619917,-1.2732195189376845
5.290080993701659,-6.236240471705725,14.501831011009793,-1.4856062983271159
5.227718588984602,-6.237188345721362,14.486974948026521,-1.6603114691012242
5.165346705527388,-6.2166864348347115,14.47037183333551,-1.7962531879729244
5.103179841179041,-6.174978912526744,14.45240930145578,-1.8936248321729328
5.041430052053774,-6.11300467585468,14.433473053134051,-1.953777580115262
4.980300005295227,-6.032259734587972,14.413935277332898,-1.9790356983859474
4.9199774079493475,-5.93465031968897,14.394144920349039,-1.9724776057248354
4.860630904752457,-5.822352377339574,14.37442014429179,-1.937710557370765
4.802407380979061,-5.697687026931493,14.355043038718081,-1.8786586876066735
4.745430510709746,-5.56301621384157,14.336256451842015,-1.799376043561109
4.689800348571331,-5.4206590334082145,14.318262691406403,-1.7038897994108029
4.635593758237249,-5.272827113515443,14.301223793412294,-1.5960745525985283
4.582865487102095,-5.12157664669651,14.285263047886309,-1.479556208004791
4.531649720635129,-4.968774649876096,14.270467485806261,-1.3576428685508721
4.481961974136368,-4.816077353531207,14.256891057120752,-1.2332797849872916
4.433801200601056,-4.664918981469992,14.24455825927088,-1.1090253440478777
4.387152010786355,-4.516509429955695,14.233468005830401,-0.987045057202326
4.341986916486798,-4.3718394610628755,14.223597555258378,-0.8691204759385862
4.298268521876169,-4.231692030349863,14.214906350498993,-0.7566699249025483
4.25595160157267,-4.09665833909371,14.207339651249967,-0.6507779684099754
4.214985018181733,-3.9671571962052976,14.200831871565867,-0.5522306581546584
4.17531344621968,-3.8434563313827788,14.19530956498432,-0.46155386992661734
4.136878882905852,-3.7256944293932346,14.190694026285055,-0.3790524114623724
4.09962193861192,-3.6139028444616184,14.18690350217043,-0.304848034793407
4.063482910167304,-3.5080261800171386,14.183855021822497,-0.2389149668024587
4.028402648367132,-3.4079411555171086,14.181465872154472,-0.1811120353643816
3.994323236811961,-3.3134734050640637,14.179654751800829,-0.13121088008269274
3.9611885027613205,-3.2244120453192897,14.178342643000002,-0.08892007481252642
3.928944382308128,-3.140522003882844,14.177453442251878,-0.05390524597094036
3.8975391622692994,-3.0615542117920707,14.176914389792168,-0.025805448854347008
3.8669236201513786,-2.9872538379916853,14.176656335303624,-0.004246173577385
3.837051081771462,-2.9173667853878475,14.17661387356785,0.01115059394165612
3.8078774139175833,-2.8516446844547265,14.176725379507268,0.020758818333306915
3.779360967073036,-2.7898486183042768,14.1769329676906,0.024942947411886386
3.7514624808899932,-2.7317517988439026,14.177182397164719,0.02405414454175442
3.7241449629015544,-2.6771413921642435,14.177422938610137,0.018427878215945916
3.697373548979912,-2.625819666432083,14.177607217392296,0.008382573773359879
3.6711153523155913,-2.5776046100066807,14.17769104313003,-0.00578092109231626
3.6453393062155244,-2.5323301430165643,14.177633233919106,-0.0237792619186638
3.620016004785359,-2.4898460232707893,14.17739544129992,-0.04534609021683615
3.595117544552651,-2.4500175276495133,14.176941980397752,-0.07023120577934201
