th1 (rad),w1 (rad/s),th2 (rad),w2 (rad/s)
0.5133788381754989,-2.554355907235443,1.5996420226035573,-0.7509206099555134
0.48783527910314445,-2.564870512077168,1.592132816504002,-0.9017190707920784
0.4621865739823728,-2.572721002784129,1.5831156257960812,-1.0549222272743486
0.4364593639545315,-2.5776059936143416,1.5725664035233378,-1.2103940261317114
0.4106833040183881,-2.5792076533467756,1.5604624632620205,-1.3679809876846507
0.38489122748492033,-2.577193564369971,1.546782653385174,-1.5275127947461558
0.3591192918412206,-2.5712188361165826,1.5315075254377124,-1.6888035693737806
0.33340710348005476,-2.5609284825914544,1.5146194897439746,-1.8516538820803317
0.3077978186541402,-2.545960059424179,1.4961029509231714,-2.015853532763944
0.2823382180598984,-2.5259465398001564,1.475944415595532,-2.1811851342736253
0.25707875266189684,-2.5005193911075203,1.4541325642527956,-2.347428518265252
0.23207355875082164,-2.4693117956815867,1.430658279070143,-2.514365969074778
0.20738044079400578,-2.4319619403442942,1.4055146193793953,-2.6817882751515567
0.18306082139056284,-2.388116281470626,1.3786967366278797,-2.8495015697008634
0.1591796585758566,-2.337432676278313,1.350201720930871,-3.017334913199041
0.13580533181307344,-2.2795832584407645,1.3200283717988806,-3.1851485509464563
0.1130094992286658,-2.2142569288293648,1.288176886289416,-3.352842759171135
0.09086692994037215,-2.1411613325153276,1.2546484586977047,-3.5203671732434025
0.06945531661521888,-2.0600242040498222,1.2194447869652707,-3.687730470226695
0.04885507457472066,-1.9705939883922945,1.1825674822630037,-3.8550102526017276
0.029149134690797714,-1.872639690076101,1.1440173797369864,-4.022362945318462
0.010422737790036704,-1.7659499761364372,1.1037937502838018,-4.190033465042112
-0.007236761971327669,-1.6503316708087685,1.0618934156333806,-4.3583643328903685
-0.023740078679415355,-1.525607950321919,1.018309772304477,-4.527803754526986
-0.03899615818263455,-1.3916168028874167,0.9730317347592071,-4.698911943225864
-0.052912326211508716,-1.2482107071654795,0.9260426153269485,-4.87236454775504
-0.06539443328316351,-1.0952590721680333,0.8773189698493982,-5.048951366707684
-0.07634702400484385,-0.9326558803981561,0.8268294561823213,-5.229567429179119
-0.08567358280882541,-0.7603363447711606,0.7745337818905301,-5.415191766171186
-0.09327694625653701,-0.5783084568545876,0.7203818642288182,-5.60684645475539
-0.09906003082508288,-0.3867083638899699,0.6643133996812643,-5.805524349058903
-0.10292711446398259,-0.18589286773632988,0.6062581561906754,-6.012067842512153
-0.10478604314134589,0.02341191582050106,0.5461374777655538,-6.226972801620392
-0.10455192398314088,0.23988028040283185,0.4838677497493499,-6.4500822860214395
-0.10215312117911256,0.46124542820415043,0.41936692688913546,-6.680127608055903
-0.09754066689707105,0.6838232596901744,0.35256565080857644,-6.914080358925115
-0.0907024343001693,0.9019118001029365,0.28342484721932526,-7.146321939459324
-0.08168331629913994,1.1071678688036766,0.21196162782473202,-7.367757890032276
-0.07061163761110317,1.2882417018261547,0.13828404892440926,-7.565245999647718
-0.05772922059284163,1.4311935737183783,0.06263158892793208,-7.722040464695811
-0.043417284855657844,1.5213317175867718,-0.014588815719026038,-7.820119797151852
-0.028203967679790123,1.5466829597932892,-0.09279001369054456,-7.844697980543502
-0.012737138081857231,1.5020756554484223,-0.1712369934959796,-7.7895593307872595
0.0022836184726269908,1.3915478976055689,-0.2491325868038522,-7.660156515172143
0.01619909744868268,1.2272240975268425,-0.32573415195557365,-7.472018353470427
0.028471338423951106,1.0252485812713443,-0.4004543354902779,-7.2453251131310425
0.03872382423666455,0.8013541909174691,-0.4729075866215884,-6.999137015884181
0.046737366145839246,0.5681579937474887,-0.5428989567804302,-6.7480215335961775
0.052418946083314134,0.334477654815062,-0.610379172116392,-6.501375999509574
0.05576372263146476,0.10586185834104142,-0.6753929321114878,-6.264304349110429
0.05682234121487517,-0.11450247071925032,-0.738035975602592,-6.038919750969532
0.05567731650768267,-0.3249607533124288,-0.7984251731122873,-5.825486204962444
0.05242770897455838,-0.5247793805999212,-0.8566800351619118,-5.623236766060925
0.04717991516855917,-0.7137427561676868,-0.9129124028225211,-5.4308996107882255
0.0400424876068823,-0.8919056557935157,-0.9672213989304033,-5.24701342379563
0.031123431048947145,-1.0594490193382884,-1.0196915331683596,-5.070106356234156
0.02052894085556426,-1.2166005098493624,-1.070392596730701,-4.898791896712284
0.008362935757070637,-1.3635940762469219,-1.119380515697824,-4.731816122753067
-0.005273005005398582,-1.5006522862615368,-1.1666986769253547,-4.568077356300243
-0.02027952786801395,-1.6279815018325414,-1.2123794504883572,-4.406630590016367
-0.036559342886339365,-1.7457739240998553,-1.2564457563885207,-4.246683764908791
-0.05401708212733792,-1.8542129498593072,-1.2989125940376087,-4.087589853647983
-0.07255921162593099,-1.9534797380733788,-1.3397884925740886,-3.9288368981236776
-0.09209400900666477,-2.0437597619083885,-1.3790768615553253,-3.7700371302160063
-0.11253160662574865,-2.1252486525866328,-1.4167772328574852,-3.610915745713989
-0.133784093151615,-2.198156966731008,-1.4528863903146252,-3.451299608255844
-0.15576566281892507,-2.2627137120413656,-1.4873993863971837,-3.2911060180246876
-0.1783927999393387,-2.319168595727613,-1.5203104465774306,-3.1303316209078424
-0.20158448589661485,-2.367793044321543,-1.551613762786509,-2.9690415180617467
-0.22526241633983027,-2.408880098522139,-1.5813041779671264,-2.807358640020514
-0.24935121732505167,-2.442743321936693,-1.6093777643673315,-2.645453460244696
-0.2737786505444186,-2.4697148834249507,-1.6358322989697784,-2.483534132918756
-0.2984757993786681,-2.4901429825850454,-1.660667640298966,-2.3218371451380126
-0.32337722920451856,-2.5043887889890746,-1.683886011750346,-2.160618572920303
-0.3484211170944093,-2.512823059796757,-1.7054921974795492,-2.0001460236786324
-0.3735493476923769,-2.5158225888161887,-1.7254936577163356,-1.8406913356798698
-0.3987075735805388,-2.5137666242953385,-1.7439005710731343,-1.6825240888304556
-0.4238452398234922,-2.507033373997013,-1.7607258119614388,-1.525905962307947
-0.44891557356346234,-2.4959966956340454,-1.7759848715845183,-1.3710859545443654
-0.4738755405198028,-2.481023049614212,-1.789695731129962,-1.218296461197308
-0.4986857710159449,-2.4624687702224413,-1.801878695741935,-1.0677501881553764
-0.5233104587181693,-2.4406776916452104,-1.8125561976234887,-0.9196378602104333
-0.5477172356346214,-2.415979147234535,-1.821752576225593,-0.7741266724237036
-0.5718770271069668,-2.388686344550222,-1.8294938429498302,-0.6313594207913518
-0.5957638905524689,-2.359095105267125,-1.8358074371577437,-0.49145424171692553
-0.6193548416051402,-2.327482948087359,-1.840721979574913,-0.3545048859588624
-0.6426296710860138,-2.2941084843173183,-1.8442670284345017,-0.22058145191433587
-0.6655707559291869,-2.259211089607551,-1.846472842953645,-0.08973150498007215
-0.6881628668252624,-2.2230108112810734,-1.8473701580034456,0.038018486126395384
-0.7103929749380732,-2.1857084684115233,-1.8469899731421817,0.16266145925646716
-0.7322500596221884,-2.147485901050616,-1.845363358549617,0.2842078708227848
-0.7537249186326945,-2.108506325437608,-1.842521279841389,0.40268365762051256
-0.7748099818870706,-2.068914753364247,-1.838494443265184,0.5181280875689791
-0.7954991294207131,-2.0288384358658744,-1.8333131623894943,0.6305915297341788
-0.8157875137793719,-1.988387293862274,-1.8270072470921526,0.740133165499069
-0.8356713867179946,-1.9476543011418883,-1.8196059154371618,0.8468186547928439
-0.8551479297294134,-1.9067157881038719,-1.8111377288892334,0.950717764154845
-0.8742150876104522,-1.8656316379596023,-1.801630551247685,1.0519019573781385
-0.8928714039900482,-1.824445350755891,-1.7911115316739035,1.1504419448635217
-0.911115857497607,-1.783183954824836,-1.7796071122252684,1.246405184982589
-0.9289476970458554,-1.7418577504095967,-1.7671430603754426,1.3398533301462563
-0.9463662745499514,-1.7004598766986614,-1.75374452707398,1.4308396124566984
-0.9633708733169379,-1.6589657018785071,-1.739436130949413,1.5194061694602532
-0.9799605303357231,-1.6173320467452126,-1.7242420692548106,1.6055813204054645
-0.9961338508031752,-1.5754962666251002,-1.708186256050756,1.6893768184081783
-1.0118888134694262,-1.5333752345577374,-1.6912924878666742,1.770785124879826
-1.0272225658150036,-1.4908642914613748,-1.673584636617876,1.8497767801396723
-1.0421312087296173,-1.4478362565436103,-1.6550868688164793,1.9262979784905254
-1.0566095712950534,-1.4041406230874072,-1.635823889031574,2.0002684964967554
-1.0706509775259274,-1.359603099416817,-1.6158212040666065,2.0715801676553802
-1.0842470085200955,-1.3140256892735183,-1.5951054023900526,2.1400961409447703
-1.0973872654128307,-1.2671875349694506,-1.573704440980605,2.2056511980723483
-1.1100591407625253,-1.2188467632091755,-1.5516479289998815,2.2680534248123454
-1.1222476083946171,-1.1687435679685476,-1.528967394751758,2.327087523027301
-1.1339350440743026,-1.1166047266305743,-1.5056965195214849,2.382519997655278
-1.1451010913406083,-1.0621496648198365,-1.481871319544932,2.4341063441021875
-1.1557225879888067,-1.0050980560424538,-1.45753025610391,2.481600188492688
-1.1657735685492312,-0.9451787662513941,-1.4327142542189832,2.5247640993380185
-1.1752253562117452,-0.8821397446147415,-1.407466613225603,2.5633815137396088
-1.1840467536578927,-0.815758247949598,-1.381832798088207,2.5972689425969975
-1.1922043361373886,-0.7458506079082023,-1.355860108662237,2.6262873923754277
-1.1996628422164706,-0.6722806531901734,-1.3295972347384828,2.650351827833224
-1.2063856487483724,-0.5949659237874325,-1.3030937164601506,2.669437553476392
-1.2123353079862467,-0.5138809803205453,-1.2763993409253866,2.6835826357772343
-1.2174741177894521,-0.42905740734879094,-1.2495635145676143,2.6928859045685622
-1.2217646918629401,-0.340580489675812,-1.2226346555219287,2.697500595687118
-1.2251704967596981,-0.2485829347467112,-1.1956596495650575,2.6976242301282016
-1.2276563261071654,-0.15323634564167476,-1.1686834072637755,2.693485763185573
-1.2291886895635822,-0.05474135691156623,-1.1417485496319197,2.685331299025513
-1.2297361031326979,0.04668259937225008,-1.1148952366416647,2.673409715943554
-1.2292692771389753,0.15080701929459756,-1.088161139482229,2.657959400579105
-1.2277612069460293,0.25740286202314594,-1.061581545476438,2.639197001572299
-1.225187178325798,0.3662474601629919,-1.035189575460715,2.617308759750557
-1.221524703724168,0.4771296213814869,-1.0090164878632095,2.5924446249293362
-1.2167534075103532,0.5898529486859383,-0.9830920416139162,2.564715081596356
-1.2108548780234938,0.7042375589206398,-0.9574448907979526,2.5341904043856887
-1.2038125024342874,0.8201204673904634,-0.9321029867540958,2.5009019532506347
-1.1956112977603828,0.937354938464448,-0.9070939672215894,2.464845085274738
-1.1862377483757383,1.055809091165249,-0.882445516368842,2.425983284776619
-1.1756796574640858,1.1753640099884985,-0.8581856835210758,2.3842531742246775
-1.1639260173642008,1.2959115575269309,-0.834343151778829,2.3395701470353085
-1.1509669017889315,1.4173520265847706,-0.8109474503084759,2.2918344461070217
-1.1367933815230837,1.5395917115379025,-0.7880291058474057,2.2409375905605744
-1.1213974644077047,1.6625404249321794,-0.7656197299417999,2.186769123465105
-1.104772060158383,1.7861089367770822,-0.7437520387071489,2.129223714190612
-1.0869109707906122,1.9102062704453628,-0.7224598015652428,2.0682087010718853
-1.0678089080861586,2.03473674973522,-0.701777714554524,2.0036522046386143
-1.0474615405888064,2.1595966557634756,-0.6817411925081378,1.935511979911767
-1.0258655740311715,2.2846703198329346,-0.6623860727090202,1.8637852083545359
-1.0030188708328422,2.409825450330617,-0.6437482206254748,1.7885194543785568
-0.9789206163295361,2.534907470959582,-0.6258630260816892,1.709825023516568
-0.9535715416199403,2.659732639682817,-0.6087647758465236,1.627888951318802
-0.9269742152231121,2.7840797317185464,-0.5924858863333355,1.5429908103612646
-0.8991334179059266,2.9076801194322064,-0.5770559782297229,1.4555204274833844
-0.8700566167116045,3.030206186161589,-0.5625007739548891,1.3659974267429693
-0.8397545548499886,3.151258194624162,-0.5488407996874594,1.2750922201169943
-0.808241972903747,3.2703500221798385,-0.5360898774862894,1.1836476173651918
-0.7755384726819486,3.3868946019515214,-0.5242534013126375,1.0926995817521876
-0.7416695266624335,3.5001904849173786,-0.5133264054951157,1.003494802846371
-0.7066676218132597,3.609411645457307,-0.5032914574666519,0.9175017239500161
-0.6705735053586867,3.713603412636247,-0.4941164402271518,0.8364105729371368
-0.6334374712323242,3.811688050142956,-0.48575233449778044,0.7621170611449928
-0.5953205907308946,3.9024837441648303,-0.47813116388633053,0.6966841607513081
-0.5562957532892463,3.984740211036928,-0.47116432227881744,0.642277307372262
-0.516448351178877,4.057192426964387,-0.4647415492050948,0.6010710549396893
-0.47587642690923315,4.118630927859035,-0.4587308386556979,0.5751298942486058
-0.4346901176306428,4.167983000039444,-0.45297953971321187,0.5662722220214885
-0.39301028763024837,4.204394800809967,-0.44731681749299695,0.575932946028649
-0.3509663396221487,4.2273014980575825,-0.44155748803271044,0.6050447260481447
-0.30869332464157284,4.236472453452665,-0.435507040772229,0.6539580645508287
-0.2663286001070462,4.232022101658145,-0.4289674601267207,0.7224151452141859
-0.22400837909046473,4.214383880204433,-0.4217433086745789,0.8095823342634028
-0.1818645402884204,4.184252303849763,-0.41364748533194484,0.9141345797894472
-0.14002201724992275,4.142504459366239,-0.40450613953405035,1.0343754047603317
-0.09859697265626036,4.090114922718709,-0.39416238548644705,1.1683716634307504
-0.05769582342907326,4.028077000052407,-0.38247866885213955,1.3140833773580198
-0.017415053428549196,3.9573393547432008,-0.36933783507855933,1.4694742878418263
0.022158340118882812,3.878762268106551,-0.35464309220014106,1.6325957118866286
0.06094596279994832,3.793093541261273,-0.33831713508127476,1.8016425737509658
0.09887689821256104,3.7009612183346423,-0.3203007093437651,1.9749848113463984
0.13588651039590746,3.6028790105608572,-0.3005508612303011,2.15117948703493
0.17191530050151604,3.4992601892394135,-0.2790390663599518,2.3289693047752626
0.2069079023939102,3.3904363128827892,-0.25574937331219916,2.5072725240250278
0.24081226552273807,3.2766780419751487,-0.23067664807194888,2.6851680719023188
0.27357904594248955,3.158216196356051,-0.20382496735292568,2.861878403589395
0.30516120790605006,3.0352619842763913,-0.17520618331703172,3.0367515680272192
0.335513827748814,2.9080259338941703,-0.14483866763675954,3.20924308141918
0.3645940870877557,2.77673549605672,-0.11274623682256774,3.3788975928376335
0.3923614420483229,2.641651591322721,-0.0789572608941914,3.5453299066322783
0.4187779579615501,2.5030845747692028,-0.04350396182786862,3.708204661820776
0.44380880370924214,2.3614102093242297,-0.006421915209660865,3.8672138267122693
0.4674229058024844,2.2170862759341428,0.03225022305746183,4.02205113584581
0.48959376856182585,2.070670390325864,0.07247073441591993,4.172382691256583
0.5103004724650845,1.9228394014630377,0.11419456132848577,4.317813219214196
0.5295288664797149,1.7744103504708661,0.15737269352062772,4.457848001925026
0.5472729699844235,1.6263622821622183,0.20195117353987796,4.591851411599663
0.5635365928060457,1.4798571266893947,0.24786968765587458,4.7190044003961535
0.5783351640729397,1.3362563373704415,0.2950597316598361,4.838265352043275
0.5916977274466442,1.1971280186528155,0.34344238518026887,4.9483413546723405
0.6036690076331723,1.0642371713205934,0.3929257987269923,5.047679882591534
0.6143113793463783,0.9395100697700846,0.4434025975529076,5.1344932342484295
0.6237064800440791,0.8249638017897397,0.4947475298953919,5.206828356797519
0.6319561180619765,0.7225951318161086,0.546815813463367,5.262690880420589
0.6391820693801376,0.6342303437508168,0.5994427222675729,5.300222548586183
0.6455243728176457,0.5613494614030574,0.6524449477534348,5.317915820331094
0.6511378674316763,0.5049115143305057,0.7056241059567457,5.314831772537644
0.6561869825749814,0.465216790672295,0.7587724236821222,5.290774867890436
0.6608391504817044,0.44184102058887653,0.8116801723610265,5.246379060923407
0.6652575606875931,0.4336622142258682,0.8641439629702606,5.18307806214687
0.6695941828298518,0.4389772010796658,0.9159747435917294,5.102963384899449
0.6739839548406485,0.4556814310970872,0.9670043774407239,5.008564261299668
0.6785407691516194,0.4814723041413312,1.0170900200537205,4.9026004471711015
0.6833554921930327,0.5140374348238304,1.0661160245254315,4.787756911388234
0.688495866541271,0.5512015661702758,1.113993593639314,4.666512960149222
0.6940078822029738,0.59102193319461,1.160658723240806,4.541037337504308
0.69991810153492,0.6318351821262065,1.2060690966158492,4.413143849692471
0.706236453356182,0.6722664753446981,1.2502005351127738,4.284292829592264
0.712959118109629,0.7112134879441978,1.2930434634086965,4.155621644916476
0.7200712529890709,0.7478165806855267,1.3345996798578612,4.027989766126222
0.7275494187959262,0.7814235445912309,1.3748795775191234,3.9020279495897947
0.7353636542418385,0.8115543318876118,1.4138998570150214,3.7781850822352854
0.7434791975607146,0.8378687755311324,1.4516817078373743,3.6567693680152704
0.7518578853160259,0.8601386175616491,1.488249401517527,3.537982655006924
0.7604592714916424,0.8782241270439861,1.5236292280675963,3.4219479593684285
0.7692415127620822,0.892055022360125,1.5578487076612806,3.30873088331654
0.7781620629856835,0.9016151567427645,1.590936016494446,3.198355873615586
0.7871782145531111,0.9069303539524032,1.6229195752306018,3.090818293182878
0.7962475180926352,0.9080588068848067,1.6538277581624306,2.9860931929004
0.8053281061614832,0.9050835221813379,1.6836886900914345,2.884141540841883
0.8143789413832966,0.8981063779823679,1.7125301054998534,2.7849145288736272
0.8233600051631202,0.8872434438506973,1.7403792507885896,2.688356450078815
0.8322324396016272,0.8726212843820625,1.7672628152893777,2.5944065318845064
0.8409586524454478,0.8543740287708923,1.7932068806082226,2.50300002050763
0.8495023927331566,0.8326410377672059,1.818236880813299,2.4140687409581907
0.8578288031108287,0.8075650383245108,1.842377568222881,2.3275413008265904
0.8659044534940737,0.7792906264527839,1.8656529812311469,2.243343062707081
0.8736973597586016,0.7479630620043846,1.8880864118582177,2.161395976843364
0.8811769903786455,0.7137272968087202,1.9097003716266514,2.0816183402589328
0.8883142633467327,0.6767271909761817,1.9305165550292407,2.00392452947826
0.8950815352564945,0.6371048823222472,1.9505558003240233,1.9282247395391763
0.901452584079717,0.5950002815178581,1.969838047719415,1.854424751232113
0.9074025868948955,0.5505506713737597,1.9883822952317363,1.7824257405184607
0.9129080936086331,0.5038903930911318,2.006206552636921,1.7121241382166392
0.9179469975395445,0.45515060571978233,2.023327794019087,1.643411543793679
0.9224985035967422,0.40445910772926175,2.039761909457024,1.5761746940746715
0.9265430946740348,0.35194021171839474,2.0555236563977703,1.5102954855864326
0.9300624967912188,0.29771466501225874,2.0706266112536347,1.4456510478592581
0.9330396434413414,0.24189961032927065,2.0850831217322274,1.3821138641495059
0.935458639544634,0.18460858192087456,2.0989042603737227,1.3195519355847147
0.9373047253638428,0.12595153364563322,2.11209977972957,1.2578289845723885
0.9385642407002991,0.06603489637471821,2.124678069575294,1.1968046933779335
0.9392245896640463,0.004961662960949562,2.1366461165090733,1.136334974009644
0.9392742062936558,-0.05716850024615388,2.1480094662491696,1.076272265906367
0.9387025212911942,-0.12025911568250311,2.1587721889082334,1.0164658583746615
0.9374999301343692,-0.18421673038905068,2.16893684749198,0.9567622352430136
0.9356577628304786,-0.24895072457626133,2.1785044698444103,0.8970054397729764
0.933168255584716,-0.31437309167832184,2.18747452424214,0.837037458476964
