th1 (rad),w1 (rad/s),th2 (rad),w2 (rad/s),a1 (rad/s^2),a2 (rad/s^2)
2.044800747541168,-1.8474684496978908,0.4699873703747887,-2.549643702573298,-11.971997188878987,-1.073155098804601
2.026326063044189,-1.9671884215866806,0.44449093334905576,-2.560375253561344,-12.080873237328671,-0.4777448495861966
2.006654178828322,-2.087997153959967,0.41888718081344234,-2.565152702057206,-12.171898431904962,0.166456789858465
1.9857742072887223,-2.209716138279017,0.3932356537928703,-2.5634881341586215,-12.243834239330466,0.8603488595047806
1.963677045905932,-2.3321544806723216,0.3676007724512841,-2.5548846455635736,-12.295734291253549,1.604504492249968
1.9403555010992088,-2.4551118235848572,0.3420519259956484,-2.538839600641074,-12.327010790192752,2.3991300996887563
1.9158043828633602,-2.578381931486785,0.31666352998923764,-2.5148482996441865,-12.337504406439237,3.2440314512665
1.8900205635484923,-2.701756975551177,0.2915150469927958,-2.4824079851315215,-12.327556553510469,4.138589696295822
1.8630029937929806,-2.8250325410862818,0.26669096714148055,-2.4410220881685634,-12.298082763416728,5.081750742424379
1.8347526683821178,-2.9480133687204493,0.24228074625979493,-2.3902045807443195,-12.250645777739777,6.07203171208109
1.8052725346949132,-3.070519826497847,0.21837870045235172,-2.3294842636235087,-12.187526955432318,7.107548423134653
1.7745673364299348,-3.19239509605217,0.19508385781611665,-2.258408779392162,-12.111794705993473,8.18606795361738
1.742643385469413,-3.313513043112105,0.17249977002219502,-2.1765480998559883,-12.027368921897805,9.305090326760354
1.7095082550382918,-3.433786732331083,0.15073428902363514,-2.0834971965883846,-11.939080840708579,10.461963170461665
1.675170387714981,-3.5531775407381687,0.1298993170577513,-1.978877564883768,-11.852728443928674,11.654032851379636
1.6396386123075994,-3.6717048251774553,0.1101105414089136,-1.8623372363699717,-11.775128413500957,12.878835054665348
1.602921564055825,-3.789456109312465,0.09148716904521388,-1.7335488858233181,-11.714166814112764,14.134327080321652
1.5650270029627003,-3.9065977774535923,0.0741516801869807,-1.5922056150201016,-11.678852011179016,15.419163258290048
1.5259610251881643,-4.0233862975653825,0.05822962403677969,-1.4380139824372011,-11.67937477472202,16.733013820308113
1.4857271622125106,-4.1401800453126025,0.04384948421240768,-1.27068384423412,-11.727181869138613,18.076926198674055
1.4443253617593845,-4.257451864003989,0.031142645770066483,-1.0899145822473795,-11.835070341188635,19.45372575541401
1.4017508431193446,-4.375802567415875,0.02024349994759269,-0.8953773246932394,-12.017309570281173,20.868449706519208
1.3579928174451859,-4.495975663118687,0.011289726700660295,-0.6866928276280473,-12.28979581272976,22.328802090705935
1.313033060813999,-4.618873621245984,0.0044227984243798224,-0.46340480672098794,-12.670237404035072,23.845606259507562
1.2668443246015393,-4.745575995286335,-0.0002112496428300567,-0.22494874412591231,-13.178354186217216,25.433209183156233
1.219388564648676,-4.877359537148507,-0.00246073708408918,0.029383347705650043,-13.8360450097485,27.109748727091105
1.1706149692771908,-5.015719987245992,-0.0021669036070326793,0.3004808349765611,-14.667418992891719,28.897111862971606
1.1204577694047309,-5.162394177174909,0.0008379047427329316,0.5894519536062772,-15.698474540782835,30.82025280019843
1.0688338276329818,-5.319378922582738,0.006732424278795704,0.8976544816082614,-16.955998117227832,32.90523894413374
1.0156400384071544,-5.488938903755016,0.015708969094878317,1.2267068710495987,-18.46485658603295,35.17482861110562
0.9607506493696043,-5.673587469615345,0.027976037805374304,1.5784551571606549,-20.24212152422077,37.63934637218478
0.9040147746734508,-5.876008684857553,0.04376058937698085,1.9548486208825027,-22.285148593262008,40.278773358483896
0.8452546878248753,-6.098860170790172,0.06330907558580588,2.3576363544673415,-24.548534329634357,43.008894870364266
0.7842660861169736,-6.344345514086516,0.0868854391304793,2.7877253031709843,-26.90172060480689,45.61998759214787
0.7208226309761084,-6.613362720134585,0.11476269216218915,3.243925179092463,-29.05635759893855,47.67299367550534
0.6546890037747626,-6.903926296123971,0.14720194395311378,3.7206551158475163,-30.45726711261389,48.345286207300894
0.5856497408135228,-7.20849896725011,0.18440849511158894,4.2041079779205255,-30.163967770098782,46.2657998467927
0.5135647511410217,-7.510138644951097,0.2264495748907942,4.666765976388453,-26.85157312252523,39.5244575123737
0.43846336469151076,-7.77865437617635,0.27311723465467874,5.06201055151219,-19.233613297044652,26.287047502096552
0.3606768209297473,-7.970990509146796,0.32373734016980066,5.324881026533155,-7.1838549538648335,6.4079355218148555
0.2809669158382793,-8.042829058685445,0.37698615043513223,5.388960381751303,7.048689514878163,-16.82546236605347
0.20053862525142485,-7.972342163536664,0.43087575425264524,5.2207057580907685,19.41872049085133,-37.50970771823625
0.12081520361605821,-7.77815495862815,0.48308281183355295,4.845608680908406,26.88791249516568,-51.135804414390485
0.04303365402977671,-7.509275833676493,0.531538898642637,4.334250636764501,29.279118947573075,-57.285558532530345
-0.03205910430698822,-7.216484644200762,0.5748814050102821,3.761395051439197,28.274538046280536,-58.25607899555325
-0.10422395074899585,-6.933739263737957,0.612495355524674,3.1788342614836647,25.66269924384601,-56.56521918715627
-0.1735613433863754,-6.677112271299497,0.6442836981395107,2.613182069612102,22.603006056080464,-53.873620189219366
-0.24033246609937037,-6.451082210738692,0.6704155188356318,2.0744458677199082,19.676798322149057,-51.02922993648664
-0.30484328820675727,-6.2543142275172015,0.6911599775128309,1.5641535683550418,17.12072976181996,-48.38532486555457
-0.3673864304819293,-6.083106929899002,0.7068015131963813,1.080300319699496,15.002234682111476,-46.046142229656134
-0.42821749978091933,-5.933084583077887,0.7176045163933763,0.6198388974029347,13.315981786596643,-44.00474257008198
-0.4875483456116982,-5.799924765211921,0.7238029053674057,0.17979147170211496,12.029989309043236,-42.21087194207043
-0.5455475932638174,-5.679624872121489,0.7256008200844268,-0.24231724771858937,11.105674848282273,-40.602080429436974
-0.6023438419850323,-5.568568123638666,0.7231776476072409,-0.6483380520129591,10.505599049322173,-39.1172219893112
-0.6580295232214189,-5.463512133145445,0.7166942670871113,-1.0395102719060711,10.195734526679523,-37.70191606619791
-0.7126646445528734,-5.361554787878649,0.7062991643680505,-1.4165294325680502,10.145464445375815,-36.31048283559862
-0.7662801924316599,-5.260100143424891,0.69213387004237,-1.7796342609240363,10.326770815152289,-34.906395859933646
-0.8188811938659089,-5.156832435273368,0.6743375274331297,-2.128698219523373,10.71326307486652,-33.46213873952978
-0.8704495182186426,-5.049699804524703,0.653050545237896,-2.4633196069186707,11.279327149993186,-31.958822587953232
-0.9209465162638896,-4.9369065330247714,0.6284173491687093,-2.782907832798203,11.999505652717863,-30.385686611611604
-0.9703155815941373,-4.816911476497593,0.6005882708407273,-3.086764698914319,12.848140898494192,-28.73950791982706
-1.0184846963591132,-4.688430067512651,0.5697206238515841,-3.3741597781125896,13.799273868642475,-27.023915109296084
-1.0653689970342397,-4.550437328826226,0.5359790260704582,-3.6443989292055505,14.826771940152693,-25.24859788972732
-1.110873370322502,-4.4021696094247,0.4995350367784027,-3.8968849081028236,15.904646593383324,-23.428414777175583
-1.154895066416749,-4.243123143490867,0.46056618769737445,-4.1311690558745795,17.00751549042877,-21.582414039846626
-1.1973262978516577,-4.07304798858658,0.41925449713862867,-4.346993196273046,18.11115977812954,-19.732795343212942
-1.2380567777375235,-3.891936390805284,0.3757845651758982,-4.544321149705175,19.193126645939333,-17.903848914475944
-1.2769761416455765,-3.7000051243458905,0.3303413536788464,-4.723359638849935,20.233328846749693,-16.12091477747581
-1.3139761928890354,-3.4976718358783936,0.2831077572903471,-4.884568786624693,21.21459697281657,-14.409406576854689
-1.3489529112478194,-3.285525866150228,0.23426206942410016,-5.02866285239324,22.123146680135843,-12.793942880876061
-1.3818081699093216,-3.0642943993488694,0.18397544090016776,-5.156602281202001,22.94893159170388,-11.297623925688532
-1.4124511139028104,-2.8348050834318306,0.13240941808814777,-5.269578520458886,23.685862903051625,-9.941483955383767
-1.4407991647371288,-2.597946454401314,0.0797136328835589,-5.368993360012723,24.33188809911538,-8.74413919779291
-1.466778629281142,-2.3546275734101605,0.026023699283431664,-5.456434751990653,24.888932702478776,-7.721639857444421
-1.4903249050152436,-2.1057382463853727,-0.028540648236474862,-5.533651150565097,25.362719398335404,-6.887522190906276
-1.5113822874790974,-1.8521110524020186,-0.08387715974212584,-5.60252637247416,25.762486887036857,-6.2530445863093105
-1.5299033980031176,-1.59448618353165,-0.13990242346686743,-5.665056818337253,26.100635060450305,-5.827580076672798
-1.545848259838434,-1.333479832927147,-0.19655299165023996,-5.723332619103981,26.392322261649255,-5.6191266086632385
-1.5591830581677055,-1.0695566103106544,-0.25378631784127975,-5.779523885190613,26.65503299925991,-5.634884154996513
-1.569878624270812,-0.8030062803180553,-0.3115815566931859,-5.835872726740579,26.9081184716582,-5.881830973548915
-1.5779086870739927,-0.5339250956014734,-0.36994028396059164,-5.894691036476068,27.172284053478887,-6.367203601426049
-1.5832479380300075,-0.26220225506668454,-0.42888719432535233,-5.958363072490329,27.46895100142785,-7.09873547414294
-1.5858699605806743,0.012487254947593951,-0.48847082505025563,-6.029350427231758,27.819342291843753,-8.084418762088843
-1.5857450880311983,0.29068067786603147,-0.5487643293225732,-6.110194614852647,28.24301431981542,-9.33139240386121
-1.582838281252538,0.5731108210641856,-0.6098662754710997,-6.203508538891259,28.75534390526865,-10.843277539461322
-1.577107173041896,0.8606642601168721,-0.6719013608600123,-6.311941314285872,29.36313474595351,-12.614808117739392
-1.5685005304407273,1.1542956075764073,-0.735020774002871,-6.438089395463266,30.05697263940386,-14.621855102743442
-1.5569575743649633,1.4548653339704458,-0.7994016679575037,-6.584307946490701,30.798219318197624,-16.80388605476798
-1.5424089210252587,1.762847527152422,-0.8652447474224106,-6.75234680703838,31.49778836325538,-19.034795033259307
-1.5247804457537346,2.0778254107849756,-0.9327682154927944,-6.942694757370973,31.98398388131348,-21.078092843767845
-1.5040021916458848,2.3976652495981106,-1.0021951630665042,-7.153475685808652,31.96035781347387,-22.527332359270158
-1.4800255391499038,2.717268827732849,-1.0737299199245909,-7.3787490094013535,30.96769048294853,-22.75063764210178
-1.4528528508725753,3.0269457325623343,-1.1475174100186045,-7.606255385822371,28.39494244155112,-20.900784509322584
-1.422583393546952,3.3108951569778453,-1.2235799638768283,-7.815263230915598,23.62747069123688,-16.113100528735497
-1.3894744419771736,3.5471698638902143,-1.3017325961859842,-7.976394236202952,16.415149829213007,-8.007193463469514
-1.3540027433382715,3.7113213621823444,-1.3814965385480138,-8.056466170837647,7.351541822115731,2.6548209086216197
-1.316889529716448,3.7848367804035017,-1.4620612002563902,-8.02991796175143,-2.0043587207055897,13.797683670156626
-1.279041161912413,3.764793193196446,-1.5423603798739045,-7.891941125049864,-9.796398785040626,22.943986728843214
-1.2413932299804484,3.6668292053460396,-1.6212797911244032,-7.6625012577614315,-14.897454645562766,28.608725934725825
-1.204724937926988,3.517854658890412,-1.6979048037020175,-7.376413998414173,-17.303498991928926,30.821241885211396
-1.169546391338084,3.3448196689711227,-1.7716689436861592,-7.068201579562059,-17.70886350464832,30.534151277447634
-1.1360981946483726,3.1677310339246394,-1.8423509594817797,-6.7628600667875824,-16.917063210953938,28.823643814786358
-1.104420884309126,2.9985604018151,-1.9099795601496556,-6.474623628639719,-15.538545257729636,26.490074757942818
-1.0744352802909751,2.843174949237804,-1.974725796436053,-6.209722881060291,-13.949536093258557,24.01292314741902
-1.046003530798597,2.703679588305218,-2.036823025246656,-5.9695936495861,-12.352145090739095,21.638503841031294
-1.018966734915545,2.5801581373978273,-2.096518961742517,-5.753208611175787,-10.841935801042379,19.47381096191683
-0.9931651535415666,2.4717387793874037,-2.1540510478542747,-5.558470501556619,-9.455866576816566,17.551591501940052
-0.9684477657476926,2.377180113619238,-2.2096357528698407,-5.382954586537219,-8.201031158758274,15.868561625008791
-0.9446759646115003,2.2951698020316553,-2.263465298735213,-5.224268970287131,-7.070494196879858,14.405964032961517
-0.9217242665911837,2.2244648600628567,-2.3157079884380845,-5.0802093299575155,-6.051569154968528,13.139973098771085
-0.8994796179905551,2.1639491685131715,-2.3665100817376596,-4.948809598969804,-5.129953836318659,12.046643560135118
-0.8778401263054234,2.112649630149985,-2.415998177727358,-4.828343163368453,-4.291680158690777,11.104046412250886
-0.8567136300039235,2.069732828563077,-2.4642816093610422,-4.717302699245945,-3.5239437441602703,10.293005065352292
-0.8360163017182928,2.034493391121474,-2.5114546363535015,-4.614372648592422,-2.815378658439713,9.597164185154465
-0.815671367807078,2.006339604537077,-2.5575983628394257,-4.518401006740877,-2.156072670809249,9.002761318162415
-0.7956079717617073,1.9847788778289845,-2.6027823729068342,-4.428373393559253,-1.5374756427820861,8.49828228311552
-0.7757601829834174,1.9694041214011637,-2.6470661068424266,-4.343390570728098,-0.9522791457768327,8.074083688341096
-0.7560661417694058,1.9598813299433955,-2.6905000125497076,-4.262649733844687,-0.3943070479556356,7.722015944469191
-0.7364673284699719,1.955938259463839,-2.7331265098881543,-4.185429574399995,0.14156254588479728,7.435054765824001
-0.7169079458753335,1.957353884922687,-2.774980805632154,-4.111079026741756,0.6594331005071533,7.206936507555369
-0.6973344070261066,1.9639482159277586,-2.8160915958995716,-4.039009661666202,1.1623768549543143,7.031786793668277
-0.677694924866829,1.9755719844773016,-2.8564816925162337,-3.968691793729519,1.6523695209783664,6.903729973249563
-0.657939205022056,1.9920956796870852,-2.896168610453529,-3.8996544939970237,2.130170710170865,6.816468039984033
-0.6380182482251852,2.0133973867887938,-2.935165155393499,-3.8314898135971833,2.595151560115339,6.762821942978169
-0.6178842743572972,2.039348902389947,-2.973480053529471,-3.763861594167402,3.0450766547147565,6.734236654774543
-0.5974907853333977,2.0697996689370948,-3.011118669471145,-3.6965192276196563,3.4758566193873874,6.720265366453607
-0.5767927886440267,2.104558235130969,-3.0480838617473416,-3.62931657395512,3.881301808728703,6.7080692020201065
-0.555747206292717,2.143371253218256,-3.0843770274868927,-3.562235881934919,4.252926732904374,6.681997579876745
-0.5343134937605345,2.1859005205472997,-3.119999386306242,-3.495415906136152,4.57987822254148,6.623349430761656
-0.5124544885550615,2.2316993027727143,-3.1549535453676034,-3.4291824118285352,4.849084018032263,6.510451652445199
-0.4901374955273343,2.280190142953037,-3.1892453694858887,-3.3640778953040833,5.04573469647417,6.319217354420474
-0.46733559409780395,2.3306474899177787,-3.2228861484389295,-3.3008857217598786,5.154208289240634,6.024344774187603
-0.44402911919862614,2.382189572810185,-3.2558950056565283,-3.2406422740180028,5.159508282357894,5.601265685408676
-0.4202072234705243,2.433784655633764,-3.2883014283967085,-3.184629617163916,5.049198802938095,5.028829762077707
-0.39586937691418667,2.484276643663145,-3.3201477245683475,-3.134341319543139,4.815684015227717,4.292514929438645
-0.3710266104775552,2.532433483815422,-3.351491137763779,-3.0914161702487526,4.4585128367771905,3.387711838495519
-0.345702275639401,2.577018612183194,-3.3824052994662663,-3.0575390518637975,3.9862441984049273,2.3224137413670096
-0.319932089517569,2.6168810541672434,-3.4129806899849044,-3.0343149144501274,3.4173516864044555,1.1185527939090627
-0.2937632789758966,2.651054571031288,-3.443323839129406,-3.023129386511037,2.779742113851513,-0.18864625135849886
-0.26725273326558374,2.678851992169803,-3.4735551329945165,-3.025015849024622,2.1087272806215154,-1.5535454613699224
-0.2404642133438857,2.699939264976018,-3.503805291484763,-3.0405513036383214,1.4436649818433527,-2.9249093398158257
-0.21346482069412553,2.7143759147944517,-3.534210804521146,-3.0698003970364796,0.8238511649955228,-4.251822349060228
-0.18632106154618103,2.722614426444407,-3.5649088084915106,-3.112318620527082,0.28446109464051367,-5.489552170101293
-0.15909491728173697,2.725459037390812,-3.5960319946967814,-3.1672141422280946,-0.14668271710001,-6.604226480787241
-0.13184032690782885,2.723992210219812,-3.6277041361190623,-3.233256407035967,-0.45098288358981087,-7.575547445364346
-0.10460040480563072,2.719482381383914,-3.660036700189422,-3.3090118814896106,-0.6194155725135193,-8.397309521365209
-0.07740558099179158,2.7132882256587787,-3.693126819004318,-3.3929849767032625,-0.6515467819406763,-9.076010261521766
-0.05027269873520379,2.706772757839372,-3.727056668771351,-3.48374507931848,-0.5536437060551546,-9.628189542080154
-0.02320497115681007,2.7012363207788206,-3.761894119564536,-3.5800269747392814,-0.3363819922842257,-10.077238424022223
0.003807392050978138,2.6978725008559783,-3.797694389311929,-3.680799358979504,-0.012585313264958216,-10.450320811902195
0.03078611705953792,2.6977466477233287,-3.8345023829017237,-3.7853025670985256,0.40470831542158864,-10.775839830311869
0.057763583536771204,2.7017937308775446,-3.872355408572709,-3.893060965401644,0.9037158375838251,-11.081650348133525
0.08478152084554665,2.710830889253383,-3.9112860182267255,-4.00387746888298,1.4749048138742282,-11.394033477926012
0.11188982973808048,2.7255799373921255,-3.9513247929155555,-4.1178178036622395,2.111588251527317,-11.73733401388632
0.13914562911200173,2.7466958199073988,-3.9925029709521778,-4.235191143801103,2.8102290861414634,-12.134114019319709
0.16661258731107573,2.7747981107688133,-4.034854882390189,-4.3565322839943,3.570570031727126,-12.605676613478185
0.19436056841876387,2.8105038110860847,-4.078420205230132,-4.482589050129081,4.395691275015784,-13.172842196955921
0.22246560652962472,2.8544607238362425,-4.123246095731423,-4.614317472098641,5.292077951810037,-13.856897645692824
0.25101021376798716,2.907381503354343,-4.16938927045241,-4.752886448555569,6.269758224998898,-14.680675938664923
0.2800840288015306,2.970079085604332,-4.216918134937965,-4.899693207942218,7.342553313258479,-15.66975228440502
0.30978481965757393,3.043504618736917,-4.265915067017388,-5.056390730786268,8.52846094678182,-16.853757598479405
0.3402198658449431,3.128789228204735,-4.316478974325251,-5.224928306771062,9.850166346410445,-18.267802899482152
0.3715077581269905,3.227290891668839,-4.368728257392961,-5.407606335765884,11.335624612257138,-19.95396111542132
0.4037806670436789,3.3406471377914104,-4.42280432075062,-5.607145946920097,13.018553913548605,-21.9626264535771
0.43718713842159296,3.4708326769268965,-4.478875780219821,-5.826772211455868,14.938454999677182,-24.353279748843214
0.4718954651908619,3.620217226923668,-4.53714350233438,-6.0703050089443,17.139293444934054,-27.19354634708247
0.5080976374600986,3.7916101613730087,-4.597846552423823,-6.342240472415124,19.664963982347576,-30.55405118979264
0.5460137390738287,3.9882598011964845,-4.661268957147974,-6.647780984313051,22.547525922668328,-34.49365302831935
0.5858963370857935,4.213735060423168,-4.727746766991104,-6.992717514596244,25.77985413641389,-39.023631323069694
0.6280336876900251,4.471533601787306,-4.797673942137067,-7.382953827826941,29.256010938410924,-44.02777791902844
0.6727490237078981,4.764093711171416,-4.871503480415336,-7.823231607017226,32.6489083862502,-49.0960186314563
0.7203899608196123,5.090582795033918,-4.949735796485508,-8.314191793331789,35.181879320945704,-53.210440923703096
