th1 (rad),w1 (rad/s),th2 (rad),w2 (rad/s)
3.3291100309094994,-1.3535122865064677,2.7777116528195345,1.2550524143364683
3.3155749080444346,-1.3144202832768013,2.7902621769628992,1.1964729946376442
3.3024307052116666,-1.2757200041411527,2.802226906909276,1.1379284826597897
3.289673505170255,-1.23754550388132,2.813606191735874,1.0796131844284618
3.2772980501314417,-1.2000281411485625,2.8244023235801583,1.0217168829560503
3.265297768719956,-1.1632942283009133,2.8346194924097188,0.9644216323842251
3.253664826436947,-1.1274629555881148,2.844263708733561,0.9078989131590568
3.242390196881066,-1.0926446558308742,2.8533426978651515,0.8523072444594293
3.2314637503227575,-1.0589394519332733,2.8618657703097456,0.7977903167919346
3.2208743558034247,-1.0264363050683667,2.869843673477665,0.744475673243274
3.210609992752741,-0.9952124584632092,2.877288430210098,0.6924739355465075
3.200657868168109,-0.9653332521613232,2.884213169565563,0.6418785433913332
3.191004535646496,-0.9368522690958677,2.8906319549994763,0.5927659539189791
3.181636012955537,-0.9098117627371236,2.896559614538666,0.5451962337856606
3.172537895328166,-0.8842433113665281,2.9020115768765224,0.49921396842431476
3.1636954622145006,-0.8601686431141822,2.9070037165607654,0.45484941142217394
3.155093775783359,-0.837600578438869,2.911552210674987,0.412119800106783
3.14671776999897,-0.8165440417756482,2.915673408676055,0.371030770171785
3.1385523295812137,-0.796997100689585,2.919383716377773,0.33157781116967233
3.1305823585743178,-0.7789519982277529,2.9226994944894695,0.29374771479229933
3.1227928385920403,-0.7623961515884979,2.9256369716373927,0.25751997811266464
3.1151688770761554,-0.7473130972379172,2.928212171418519,0.2228681336809827
3.107695746103776,-0.7336833688790513,2.930440852755329,0.18976098709834502
3.1003589124149857,-0.7214853000458442,2.9323384626263125,0.1581637501805428
3.093144059414527,-0.7106957474930431,2.933920100128118,0.12803906398282394
3.086037101939597,-0.701290735009702,2.9352004907679463,0.09934791081095691
3.0790241945895,-0.6932460198769247,2.9361939698760557,0.07205041799964784
3.072091734390731,-0.6865375860294627,2.9369144740560524,0.04610655884456609
3.065226358530436,-0.6811420691874935,2.9373755396444983,0.02147675779562241
3.058414937838561,-0.6770371199204,2.9375903072224543,-0.001877591976562943
3.051644566639357,-0.674201710900856,2.9375715313026887,-0.023993690086739
3.0449025495303483,-0.672616394603731,2.9373315944018215,-0.044906960942089465
3.038176385584311,-0.672263517483637,2.9368825247924004,-0.06465074797054263
3.031453750409475,-0.6731273962952343,2.936236017312695,-0.08325606229691401
3.024722476446523,-0.6751944617551551,2.9354034566897256,-0.10075137873970283
3.017970531828971,-0.6784533742242106,2.9343959429023285,-0.1171624727306727
3.011185998086729,-0.6828951155431519,2.933224318175022,-0.13251229253012853
3.0043570469312977,-0.688513060605314,2.931899195249721,-0.14682086189407517
2.9974719163252446,-0.6953030317084213,2.93043098663078,-0.16010520912642448
2.9905188860081604,-0.7032633382033212,2.928829934539516,-0.17237931920938138
2.983486252626127,-0.7123948034527448,2.927106141347422,-0.18365410644359015
2.9763623045916,-0.7227007806282795,2.925269600282986,-0.19393740574679663
2.9691352967853173,-0.7341871584060745,2.9233302262255183,-0.203233981459421
2.9617934252012565,-0.7468623571670832,2.9212978864109242,-0.21154555319382268
2.9543248016295856,-0.7607373158603659,2.919182430878986,-0.21887083894920115
2.946717428470982,-0.775825469241848,2.916993722489494,-0.2252056164051625
2.938959173778563,-0.7921427147492645,2.9147416663254426,-0.2305428040136762
2.9310377466310706,-0.8097073678101172,2.9124362382853057,-0.23487256424116473
2.9229406729529694,-0.8285401038969439,2.9100875126428942,-0.23818243207896772
2.914655271914,-0.8486638851374274,2.9077056883221046,-0.2404574727493646
2.9061686330626255,-0.8701038687515484,2.905301113594611,-0.241680473391679
2.89746759437511,-0.8928872940217353,2.9028843088606946,-0.2418321744216256
2.8885387214348923,-0.9170433439052953,2.9004659871164784,-0.24089154721552725
2.8793682879958395,-0.9426029767757778,2.898057071644323,-0.23883612577174906
2.8699422582280816,-0.9695987231412112,2.8956687103866057,-0.2356424010288322
2.8602462709966696,-0.9980644415494747,2.893312286376317,-0.23128628754654668
2.8502656265811748,-1.0280350272808898,2.8909994235008516,-0.22574367324137762
2.839985276308366,-1.0595460668839283,2.8887419867684376,-0.21899106375267943
2.8293898156395265,-1.0926334311850423,2.886552076130911,-0.2110063337183721
2.818463481327676,-1.1273327991693378,2.8844420127937274,-0.20176959765110164
2.8071901533359824,-1.1636791051773827,2.8824243168172163,-0.19126421308732747
2.795553362284209,-1.2017059023105772,2.880511674686343,-0.1794779280578364
2.783536303261103,-1.241444635923542,2.8787168954057645,-0.16640418348688024
2.7711218569018676,-1.2829238227708777,2.8770528535708957,-0.15204357862133897
2.758292618674159,-1.3261681339503328,2.875532417784682,-0.1364055037453939
2.7450309373346555,-1.371197383436852,2.8741683627472283,-0.1195099389606618
2.731318963500287,-1.4180254289159469,2.8729732633576215,-0.1013894104284524
2.7171387092111274,-1.4666589979495588,2.871959369253337,-0.0820910859516681
2.702472119231632,-1.5170964603205757,2.8711384583938204,-0.06167897999518751
2.6873011546284262,-1.569326576660845,2.8705216685938684,-0.04023622425683323
2.6716078888618178,-1.6233272639515053,2.8701193063513,-0.017867344017390714
2.6553746162223026,-1.6790644297330923,2.8699406329111263,0.005299536620249224
2.6385839719249717,-1.7364909381180869,2.869993628277329,0.029110654748737464
2.621219062543791,-1.7955457808672086,2.8702847348248164,0.05338484388242143
2.603263604735119,-1.8561535344468139,2.870818583263641,0.07791216662271723
2.5847020693906506,-1.9182241874336718,2.8715977049298678,0.10245307327207054
2.565519827516314,-1.9816534200597844,2.8726222356625883,0.12673821252633358
2.5457032933157158,-2.046323407399589,2.8738896177878517,0.15046900684534525
2.5252400592417197,-2.112104198451021,2.8753943078563053,0.17331907857109316
2.5041190172572096,-2.178855694737369,2.8771274986420163,0.19493657267744743
2.482330460309836,-2.2464302148392155,2.8790768643687907,0.21494736926638308
2.459866158161444,-2.314675587679218,2.8812263380614547,0.23295911674009193
2.4367194022846514,-2.3834386711250493,2.8835559292288555,0.24856595029594697
2.412885015573401,-2.4525691484459693,2.886041588731815,0.26135369710300066
2.3883593240889414,-2.521923418851185,2.888655125702845,0.2709053172291851
2.3631400899004293,-2.5913683749730065,2.8913641788751367,0.27680629576673843
2.337226406150699,-2.6607848536967578,2.894132241832804,0.2786496925668304
2.3106185576137315,-2.73007055901976,2.896918738758472,0.2760405744473587
2.2833178520235338,-2.7991422858386374,2.8996791445029455,0.26859959980295034
2.2553264291651476,-2.8679373182677987,2.902365140500975,0.2559655925274398
2.2266470559824696,-2.9364139297349032,2.9049247964262492,0.23779702329408672
2.1972829166851207,-3.004550968017059,2.90730276665919,0.21377240207690096
2.1672374070049503,-3.0723465599697835,2.909440490679959,0.18358966686850178
2.1365139414052523,-3.1398160125054466,2.911276387348644,0.1469647219270995
2.105115781280198,-3.2069890148617937,2.9127460345679146,0.1036293292825528
2.07304589113158,-3.2739062610555294,2.91378232786074,0.053328587466541955
2.040306828521025,-3.3406156114213497,2.914315613735406,-0.004181757763972872
2.0069006724068115,-3.40716790068516,2.914273796157766,-0.0691379316029701
1.9728289933999599,-3.4736124804682245,2.913582416841736,-0.14177045602836513
1.9380928685952776,-3.539992560141158,2.9121647122814527,-0.22230598749857566
1.9026929429938662,-3.606340385012983,2.909941652406467,-0.31096849956695205
1.8666295391437364,-3.67267226788074,2.9068319674107976,-0.4079796724760488
1.829902816464929,-3.73898347122459,2.9027521706860373,-0.5135583789239097
1.792512981752683,-3.805242924382109,2.897616586896798,-0.6279191796331263
1.754460552508862,-3.8713877538771424,2.8913373951004666,-0.7512697643777422
1.7157466749700905,-3.937317606300068,2.883824697456689,-0.8838072948853379
1.6763734989070898,-4.0028887520530265,2.8749866245078355,-1.0257136273132244
1.6363446113865594,-4.067907975036984,2.8647294882347034,-1.1771494159674352
1.5956655316361896,-4.132126278006355,2.852957994075029,-1.3382471289224946
1.554344268856126,-4.19523246576604,2.839575522785804,-1.5091030424914385
1.5123919441984657,-4.25684670835141,2.8244844923608894,-1.6897683271147366
1.4698234771149516,-4.3165142332007616,2.807586809089742,-1.8802393937323745
1.426658334782944,-4.373699347983436,2.7887844151524184,-2.080447737907996
1.3829213413031096,-4.427780052354327,2.7679799377733385,-2.2902495987433307
1.3386435407795663,-4.478043554708387,2.7450774417859054,-2.5094158395621475
1.2938631052324825,-4.5236830651227375,2.7199832833902837,-2.7376225545551196
1.248626274581255,-4.563796282942354,2.6926070578447323,-2.9744430054420867
1.2029883117518316,-4.597386030403387,2.6628626277903114,-3.219341588277035
1.1570144514477978,-4.623363494563723,2.630669211907541,-3.4716706145506935
1.1107808165021607,-4.6405545199067575,2.595952505762034,-3.7306707529433205
1.0643752713030932,-4.647709334093234,2.5586457982326007,-3.995476007607075
1.0178981779621608,-4.643515980522394,2.51869103815653,-4.265124094634149
0.9714630181569368,-4.626617566034532,2.4760397972101886,-4.538573010214987
0.9251968424965915,-4.595633205376136,2.4306540671080388,-4.814724454121199
0.8792405104428301,-4.549182255489549,2.382506822566827,-5.092454576981273
0.8337486878879347,-4.485911088080317,2.3315822767970142,-5.370652262064601
0.7888895770071315,-4.404521262181856,2.2778757541763683,-5.648264843108075
0.7448443643853129,-4.303797553159495,2.2213931057452876,-5.924350820590313
0.7018063888537179,-4.182633904776669,2.1621495975393845,-6.19813880256396
0.6599800498059513,-4.040055040581335,2.100168209513745,-6.469091605912574
0.6195794994001379,-3.875231252180875,2.0354772934546195,-6.736974259319571
0.5808271868783291,-3.6874838329067408,1.9681075508614239,-7.001924597372302
0.5439523485492617,-3.4762788085356506,1.8980883048877009,-7.264525254223098
0.5091895604639052,-3.24120710460167,1.8254430523454699,-7.525876136629089
0.47677748941788844,-2.9819501855393047,1.750184290979179,-7.787666767965342
0.4469579875624954,-2.6982316918258262,1.6723076232995255,-8.052247958065056
0.41997567064423713,-2.3897580771539575,1.591785143718875,-8.32270144554427
0.39607808987269755,-2.056155543341569,1.5085581292634322,-8.602903211052059
0.37551653443928185,-1.6969184500653864,1.4225290971529116,-8.897568525919938
0.35854734993862797,-1.3113994760722871,1.3335534118937122,-9.21224938480769
0.3454333551779051,-0.8989014094891166,1.2414309180456353,-9.553217653334725
0.3364443410830139,-0.4589884940250625,1.145898741512288,-9.927090531828789
0.33185445614276327,0.007753844927583242,1.0466278361940002,-10.339904038039869
0.3319319945920391,0.4980848869089312,0.9432287958136015,-10.795065489537997
0.33691284346112843,1.0028833709539515,0.8352781409182215,-11.289197963494193
0.34694167717066793,1.5014172107177177,0.7223861612832796,-11.804565550566954
0.36195584927784513,1.9529951858623729,0.60434050577761,-12.29775009221875
0.38148580113646885,2.2901059285636745,0.4813630048554225,-12.689846805399688
0.4043868604221056,2.426694407509395,0.35446453680142564,-12.876356821865764
0.42865380449719953,2.298197363408132,0.225700968582768,-12.779095887039315
0.45163577813128086,1.9142221986781645,0.09791000971237485,-12.414286991957336
0.4707780001180625,1.3585854077726722,-0.02623286020719852,-11.889937511038704
0.4843638541957892,0.7288061279653273,-0.14513223531758557,-11.324983064556509
0.49165191547544246,0.08991571193312553,-0.25838206596315066,-10.791252218156478
0.4925510725947737,-0.5277645719393492,-0.36629458814471544,-10.314220993409393
0.4872734268753802,-1.1140961441924304,-0.46943679807880934,-9.893955360228826
0.47613246543345594,-1.6675919776314336,-0.5683763516810976,-9.520546455278657
0.4594565456571416,-2.1895235644504543,-0.6635818162338841,-9.181570864693334
0.4375613100126371,-2.6814634911828557,-0.7553975248808175,-8.865011068608904
0.41074667510080853,-3.1444397723526802,-0.8440476355669065,-8.560196409616962
0.3793022773772817,-3.5787704418607404,-0.9296495996630761,-8.258001436679045
0.3435145729586743,-3.9841678348540994,-1.0122296140298666,-7.9508106031427515
0.30367289461013336,-4.359940555986293,-1.091737720061294,-7.63243629699232
0.26007348905027045,-4.7052208501042685,-1.1680620830312174,-7.298046289522782
0.21302128054922775,-5.019184850333523,-1.2410425459264451,-6.944106464501442
0.1628294320458925,-5.301248684136748,-1.3104836105714597,-6.568327500727695
0.10981694520452502,-5.551229858318722,-1.3761668855787366,-6.169600649025517
0.0543046466213378,-5.76946695745137,-1.4378628920689918,-5.747910030232592
-0.0033900229531759057,-5.956893845674022,-1.4953419923713176,-5.304213635658222
-0.06295896140991614,-6.115067925441436,-1.5483841287278999,-4.840290784622342
-0.1241096406643305,-6.246155500353182,-1.5967870365741232,-4.358559185840966
-0.18657119566786232,-6.352880548853479,-1.6403726284325328,-3.861869263775638
-0.2501000011563971,-6.438445828392909,-1.6789913210702891,-3.353286566338693
-0.31448445944032616,-6.506436856978076,-1.712524186733676,-2.8358746044740304
-0.3795488280101069,-6.560719753504084,-1.7408829327784163,-2.3124903732060678
-0.44515602554514777,-6.605343094090105,-1.764007836510477,-1.7856033303523193
-0.5112094564860488,-6.644451902158538,-1.7818638698140001,-1.2571463186424605
-0.5776539755076342,-6.682218704033807,-1.7944353330004248,-0.7284046657508548
-0.6444761625479722,-6.722792193183022,-1.8017193796579334,-0.19994867259832205
-0.7117040844798025,-6.770258032992191,-1.8037188663839165,0.3283834546591914
-0.7794066648097244,-6.828597534448076,-1.8004350318373246,0.8574380408641276
-0.8476926401542052,-6.901615934576963,-1.7918606514286832,1.3886033015816008
-0.9167087994999749,-6.992788328296884,-1.7779746184128673,1.9235095674588845
-0.9866366827829437,-7.104930970848074,-1.7587395227382785,2.4634539371360353
-1.0576859924914244,-7.239540615599657,-1.7341049833669182,3.008339323699876
-1.130081398647421,-7.395555924279055,-1.7040215901299194,3.5547940769936712
-1.2040369578902115,-7.567231220779433,-1.6684736493599828,4.09305285398125
-1.2797092700980057,-7.740972914504338,-1.6275431208201703,4.602415596940189
-1.357118999243049,-7.891890145397376,-1.5815189648507684,5.046390834608492
-1.4360379006970228,-7.983149577003493,-1.5310550565046834,5.371947188268475
-1.5158693964670578,-7.974059190216002,-1.4773355846219987,5.521284427046875
-1.5956099883692179,-7.839832176871103,-1.42212274035153,5.460233456063344
-1.6740083101379288,-7.5908083631532355,-1.3675204057908965,5.205770369125571
-1.7499163937694613,-7.269132694560083,-1.3154627020996408,4.821219689162868
-1.8226077207150622,-6.923864517212774,-1.267250505208012,4.3804369736211
-1.89184636588719,-6.590295348649725,-1.2234461354718011,3.9377572754394023
-1.9577493193736872,-6.286116542621727,-1.184068562717407,3.522019071541863
-2.0206104847999047,-6.016823670745271,-1.1488483720019884,3.1440227199849216
-2.0807787215073574,-5.7816589740817586,-1.1174081448021391,2.804989390001769
-2.138595311248175,-5.577361011927519,-1.0893582509021214,2.5020035196281087
-2.19436892136745,-5.400040245538497,-1.0643382157058403,2.2308060555824136
-2.248369323822835,-5.245981199523495,-1.0420301551500162,1.9870430590453572
-2.30082913581807,-5.1119235564610275,-1.0221597245595626,1.7667482943453396
-2.3519483713826803,-4.9951151263568985,-1.0044922416161093,1.5664793206110033
-2.401899522646249,-4.893275535020454,-0.9888274484099993,1.3833096032143386
-2.4508322779964535,-4.804532109162215,-0.9749943523778559,1.2147686755007758
-2.498877599088076,-4.727353374583187,-0.9628466656228482,1.0587700523094576
-2.5461511328339075,-4.660489502557551,-0.9522589650997536,0.9135427555823417
-2.592756027859483,-4.602922170083697,-0.9431235375439302,0.7775717944885167
-2.63878524956032,-4.553823559871768,-0.935347819599045,0.6495485094084223
-2.6843234851590374,-4.512523287996828,-0.9288523345049607,0.5283299826884736
-2.7294487180390057,-4.4784818626259195,-0.923569034678076,0.4129062021196902
-2.774233536665265,-4.451269381475866,-0.9194399726568792,0.3023736391946295
-2.8187462304800235,-4.430548368098479,-0.9164162362649328,0.19591406274997394
-2.863051714161008,-4.416059845552953,-0.9144570956374332,0.09277761530718721
-2.9072123126165375,-4.407611920611379,-0.9135293194843613,-0.00773062011807403
-2.9512884318226513,-4.405070294797523,-0.9136066256855421,-0.10626115962910901
-2.9953391347706266,-4.408350231660905,-0.9146692372818331,-0.20342821488478016
-3.0394226370872355,-4.41740959717038,-0.916703519430681,-0.29981567697373535
-3.0835967330589393,-4.4322426569977145,-0.9197016762004183,-0.3959812213752184
-3.1279191596289166,-4.452874365438396,-0.9236614884141705,-0.49245868965365414
-3.1724479032833006,-4.479354919868393,-0.928586075310707,-0.5897588413436126
-3.2172414524819843,-4.511754385448259,-0.9344836637241432,-0.68836852085554
-3.262358996336467,-4.550157220236947,-0.9413673489326986,-0.7887482478168688
-3.3078605685388363,-4.594656553526594,-0.9492548314108673,-0.891328214487881
-3.3538071340741022,-4.64534809225496,-0.9581681135557462,-0.9965026608077481
-3.4002606149966517,-4.702323553635247,-0.9681331401638237,-1.1046225966952337
-3.447283850533004,-4.765663548092632,-0.979179366130776,-1.2159868530634723
-3.4949404860139306,-4.835429866119551,-0.9913392346614108,-1.3308314680598952
-3.543294784675126,-4.911657155989494,-1.0046475493420097,-1.4493174532417659
-3.5924113562350213,-4.99434401579472,-1.0191407238744274,-1.5715170347824297
-3.6423547963929686,-5.083443561417855,-1.0348558942222517,-1.6973985251844832
-3.693189232007147,-5.178853569223538,-1.0518298794740966,-1.8268100477340297
-3.7449777676993823,-5.2804063250033195,-1.070097979951437,-1.9594624040511437
-3.7977818309494156,-5.387858335073013,-1.0896926039919483,-2.094911438568419
-3.8516604143001456,-5.500880067649485,-1.1106417183776325,-2.232540306469362
-3.9066692149766404,-5.619045890161208,-1.132967121442326,-2.371542088661885
-3.9628596738782527,-5.741824350860736,-1.1566825423289449,-2.5109032169510073
-4.02027791738686,-5.868568924708185,-1.1817915744984548,-2.649388178071129
-4.078963606633942,-5.998509312746902,-1.208285456279166,-2.785525967147611
-4.138948699761411,-6.13074336578227,-1.2361407159506421,-2.917598778547824
-4.200256133419233,-6.26422971789726,-1.2653167037361204,-3.0436334829012734
-4.262898430598206,-6.397781289361342,-1.295753038565133,-3.1613965788210217
-4.326876243491819,-6.530059981478725,-1.3273670043533432,-3.268393566119704
-4.392176843306606,-6.659573167780007,-1.3600509400145402,-3.3618741015386298
-4.458772574984406,-6.784673011745389,-1.3936696810299265,-3.438844893936438
-4.5266193051018595,-6.903560223473034,-1.428058129969291,-3.4960930735377795
-4.5956549073365895,-7.014294594796518,-1.4630190607046687,-3.530223683881839
-4.6657978532845545,-7.114815471796477,-1.498321297543487,-3.5377158785991827
-4.736946008002519,-7.202976119137004,-1.5336984563294789,-3.5150031376926805
-4.808975769193889,-7.276596495258385,-1.5688484877064057,-3.458582994179084
-4.881741734146473,-7.333538970947671,-1.6034343176481967,-3.3651608754573776
-4.95507712385595,-7.371810552499042,-1.6370859264027704,-3.2318300871317276
-5.02879522938094,-7.389692720827108,-1.6694042272740877,-3.056285071829671
-5.102692156589211,-7.385895661713017,-1.6999670779923843,-2.8370574917576334
-5.176551113206341,-7.359727383023689,-1.7283376529099608,-2.57375471445248
-5.250148387036578,-7.311260641939257,-1.7540752000544855,-2.2672693941167466
-5.323260993455971,-7.241473403530059,-1.776747893995653,-1.9199199924381007
