th1 (rad),w1 (rad/s),th2 (rad),w2 (rad/s),a1 (rad/s^2),a2 (rad/s^2)
5.988215404554319,-1.8524663973570215,3.7276120855236026,-1.5057931118566128,5.694401945428299,11.690784994912706
5.969690740580749,-1.7955223779027385,3.712554154405036,-1.3888852619074856,5.93644327309358,11.552224357452682
5.951735516801722,-1.7361579451718028,3.698665301785961,-1.2733630183329587,6.154500537993692,11.401553604184919
5.934373937350004,-1.6746129397918659,3.685931671602632,-1.1593474822911096,6.349615823944281,11.240631694775916
5.917627807952085,-1.611116781552423,3.6743381967797206,-1.0469411653433505,6.52285640183135,11.071298925897828
5.901516640136561,-1.5458882175341095,3.663868785126287,-0.9362281760843721,6.675300373017915,10.895361154074347
5.886057757961219,-1.4791352138039304,3.654506503365443,-0.8272745645436287,6.808023459046594,10.714575692091
5.87126640582318,-1.4110549792134646,3.646233757720007,-0.7201288076227187,6.92208694508687,10.530638841696863
5.857155856031045,-1.3418341097625959,3.6390324696437797,-0.6148224192057501,7.018526784641786,10.345175031755046
5.8437375149334185,-1.271648841916178,3.6328842454517223,-0.5113706688881996,7.098343869880135,10.159727529853717
5.831021026514256,-1.2006654032173767,3.6277705387628405,-0.4097733935896624,7.1624954655788855,9.975750687943599
5.819014372482083,-1.129040448561588,3.6236728048269438,-0.3100158867102264,7.211887795559941,9.794603670579635
5.807723967996467,-1.0569215706059885,3.6205726459598413,-0.21206985000443004,7.24736975952605,9.61754559975783
5.797154752290408,-0.984447873010728,3.618451947459797,-0.11589439400685174,7.269727746328918,9.445732035045216
5.7873102735603,-0.9117505955474388,3.6172930035197286,-0.021437073656399575,7.279681497927574,9.28021269337092
5.778192767604826,-0.838953780568163,3.6170786327831648,0.07136505327730963,7.2778809675018765,9.12193030081806
5.769803229799144,-0.7661749708931442,3.617792283315938,0.16258435628549023,7.264904106089484,8.971720459988662
5.762141480090213,-0.6935259298322494,3.619418126878793,0.25230156088537686,7.241255505223759,8.830312411582874
5.75520622079189,-0.6211133747800117,3.6219411424876466,0.3406046850012056,7.207365818663832,8.69833056796374
5.74899508704409,-0.5490397165933734,3.6253471893376585,0.427587990680843,7.163591884527122,8.576296699597442
5.743504689878156,-0.47740379774810215,3.629623069244467,0.5133509576768175,7.110217469889695,8.464632662062163
5.738730651900675,-0.4063016230492052,3.6347565788212353,0.5979972842974391,7.047454563005129,8.363663561339797
5.734667635670183,-0.3358270774191539,3.64073655166421,0.6816339199108371,6.975445143401895,8.27362126777859
5.731309364895991,-0.2660726259851349,3.6475528908633184,0.764370132588623,6.894263366879723,8.194648203832442
5.72864863863614,-0.1971299923163377,3.6551965921892045,0.8463166146269474,6.803918110427297,8.12680134683767
5.726677338712976,-0.12909081121206473,3.663659758335474,0.9275846280953242,6.704355830903453,8.070056405106763
5.725386430600856,-0.06204725290303019,3.6729356046164274,1.0082851921463918,6.595463700542511,8.024312142983215
5.724765958071825,0.003907384102394926,3.683018456537891,1.0885283135762238,6.477072991557044,7.989394847758612
5.724805031912849,0.06867811401796536,3.6939037396736536,1.1684222620538098,6.348962690935032,7.96506294811837
5.725491813053029,0.1321677409273157,3.705587962294192,1.2480728915349935,6.2108633346026165,7.951011809734086
5.726813490462303,0.19427637427334188,3.7180686912095418,1.3275830096323342,6.062461057109192,7.9468787484931935
5.728756254205036,0.2549009848444338,3.731344521305865,1.4070517971172662,5.9034018585677845,7.952248315428895
5.73130526405348,0.31393500343011166,3.745415039277038,1.4865742802715551,5.7332960944436095,7.9666579194973
5.734444614087781,0.37126796437454773,3.7602807820797537,1.5662408594665282,5.551723195631482,7.989603864778854
5.738157293731527,0.42678519633086254,3.775943190674419,1.6461368981143167,5.358236625810761,8.020547887305948
5.742425145694836,0.4803675625889702,3.7924045596555622,1.7263423769873762,5.152369080035858,8.05892428339586
5.747228821320725,0.5318912533893287,3.809667983425436,1.8069316198213348,4.933637922642948,8.104147725963328
5.752547733854619,0.5812276326157583,3.8277372996236494,1.887973097080968,4.701550853579751,8.155621867677969
5.758360010180776,0.6282431411515558,3.846617030594459,1.9695293157577478,4.4556117799723065,8.212748829918628
5.764642441592292,0.6727992589512788,3.8663123237520365,2.0516568040569343,4.195326853950172,8.2749396741964
5.771370434181804,0.7147525274907806,3.886828891792606,2.134406200798898,3.920210618339341,8.34162594806923
5.778517959456712,0.7539546336741739,3.908172953800595,2.2178224602795904,3.6297921787607206,8.41227239063914
5.786057505793454,0.7902525554617811,3.9303511784033907,2.301945184185982,3.323621294009592,8.486390873717005
5.793960031348072,0.823488768401877,3.9533706302452503,2.386809092923152,3.001274246537622,8.563555644028881
5.8021949190320905,0.8535015108672532,3.9772387211744817,2.4724446493634407,2.66235932177428,8.643419919991866
5.810729934140763,0.880125104084996,4.001963167668116,2.558878848563359,2.3065216894544855,8.725733884417773
5.819531185181614,0.9031903209795409,4.027551956153749,2.646136187407537,1.9334474428186352,8.810364103093386
5.828563088391409,0.9225247954077272,4.054013318027824,2.734239828438471,1.5428665135027007,8.897314389917549
5.837788336345486,0.9379534605427543,4.081355716312209,2.8232129723376462,1.1345541423654786,8.986748133823008
5.847167870950914,0.949299001966409,4.109587846035585,2.9130804536758763,0.708330550890675,9.079012103013289
5.856660860970578,0.9563823074753158,4.1387186505723434,3.003870574706009,0.2640584259117265,9.174661750220556
5.866224684045331,0.9590228917344331,4.168757356319404,3.0956171922082145,-0.19836219569090074,9.2744880608814
5.875814912962675,0.9570392697775241,4.199713528241486,3.1883620728170285,-0.6790020735122606,9.379546016239729
5.88538530566045,0.9502492490424015,4.231597148969656,3.2821575329794257,-1.1779143791212008,9.491184786666855
5.894887798150874,0.9384701052511895,4.264418724299451,3.3770693808460943,-1.6951502096789408,9.611079826875962
5.904272499203386,0.9215186031544,4.298189418107912,3.4731801791148538,-2.2307783996886585,9.741267111814803
5.91348768523493,0.8992108191575134,4.3329212198990605,3.5705928502330018,-2.784909973419597,9.884179823562043
5.922479793426505,0.8713617194233174,4.368627148401391,3.669434648468622,-3.357727482756084,10.042687862882785
5.931193410620738,0.8377844445957565,4.405321494886077,3.7698615270974503,-3.949519318067659,10.22014059131245
5.939571255066696,0.7982892514150799,4.443020110157051,3.8720629330105747,-4.5607188323977015,10.420413171336941
5.947554147580846,0.7526820630911029,4.481740739487157,3.976267064723944,-5.191947731626882,10.647956697471542
5.955080968211758,0.7007625857748341,4.521503410134397,4.08274663169866,-5.844062573209182,10.907851890948553
5.962088594069506,0.6423219600427422,4.562330876451384,4.191825150608145,-6.518202249423967,11.205865286767523
5.9685118136699336,0.5771399375485026,4.604249127957465,4.30388380347582,-7.215832788705208,11.548505281896459
5.974283213045418,0.5049816096614504,4.6472879659922235,4.419368856294785,-7.938783333028954,11.94307265943396
5.979333029142033,0.4255937763311609,4.691481654555171,4.5387995828891246,-8.689263158087224,12.397695472984859
5.983588966905345,0.3387011447502887,4.736869650384063,4.662776537618973,-9.469843148402134,12.921330187038414
5.986975978352848,0.24400271326626732,4.783497415760253,4.791989839489357,-10.28337468426243,13.523697628014176
5.98941600548551,0.14116896642364302,4.831417314155146,4.927226815769499,-11.132801961285766,14.215100198046422
5.990827695149746,0.02984094681078535,4.880689582312842,5.069377817749963,-12.020796388433428,15.006030446697471
5.991126104617854,-0.09036701707354894,4.931383360490341,5.219438122216938,-12.94909770463572,15.906421798287361
5.990222434447118,-0.21985799411990614,4.9835777417125104,5.3785023401998115,-13.917376484651545,16.92429672768503
5.9880238545059195,-0.3590317589664216,5.0373627651145085,5.547745307476662,-14.921323684443822,18.063417013894174
5.984433536916256,-0.5082449958108598,5.092840218189275,5.728379477615603,-15.949509205644476,19.319311478308364
5.979351086958147,-0.6677400878673045,5.150124012965431,5.921572592398687,-16.978322604134693,20.672730619362863
5.972673686079474,-0.8375233139086515,5.209339738889418,6.128299898592315,-17.96403495211311,22.07917552690594
5.964298452940387,-1.0171636634297827,5.270622737875341,6.349091653861374,-18.83082115231334,23.452824159537865
5.954126816306089,-1.205471874952916,5.3341136544139545,6.583619895456753,-19.453838596797752,24.64344187170443
5.94207209755656,-1.4000102609208935,5.399949853368522,6.830054314173797,-19.638128451474365,25.407018446073046
5.92807199494735,-1.5963915454356372,5.46825039651026,7.0841244986345275,-19.099113520380786,25.37757335312892
5.912108079492994,-1.787382680639445,5.539091641496605,7.337900232165817,-17.46143285892456,24.06248791316694
5.8942342526866,-1.9619970092286907,5.612470643818264,7.578525111297486,-14.309648620206117,20.90685592545778
5.874614282594313,-2.1050934954307516,5.688255894931238,7.787593670552064,-9.333401507756939,15.485271185502949
5.853563347640005,-2.198427510508321,5.766131831636759,7.942446382407093,-2.571089162909253,7.827639185614126
5.831579072534922,-2.2241384021374135,5.84555629546083,8.020722774263234,5.368132755937262,-1.2835760362484672
5.809337688513548,-2.170457074578041,5.925763523203463,8.00788701390075,13.350793075800063,-10.37901157277312
5.787633117767768,-2.03694914382004,6.00584239334247,7.904096898173018,20.157415489810987,-17.89438328794653
5.767263626329568,-1.8353749889219304,6.0848833623242005,7.7251530652935525,25.031128291896962,-22.900496107203363
5.748909876440348,-1.5850637060029609,6.162134892977136,7.496148104221519,27.888539219430605,-25.36667943110724
5.733059239380318,-1.3061783138086547,6.237096374019351,7.242481309910447,29.114931759625357,-25.866671238967395
5.719997456242232,-1.015028996212401,6.309521187118455,6.983814597520773,29.234812689095445,-25.131002696321108
5.709847166280108,-0.7226808693214466,6.379359333093663,6.732504570557562,28.69996900296631,-23.76952346539904
5.702620357586893,-0.4356811792917835,6.4466843787992385,6.494809335903572,27.824702951961733,-22.194972579789667
5.698263545793975,-0.1574341497721662,6.511632472158274,6.272859610105675,26.800553882561132,-20.650809229930733
5.696689204296254,0.11057138905344516,6.57436106825933,6.066351517806368,25.7327599696087,-19.2645635685701
5.697794918186788,0.36789898874953214,6.635024583437394,5.8737058821206665,24.672881655872914,-18.09331863427036
5.701473908074283,0.6146278053082612,6.6937616422586,5.692772695777963,23.641619981450752,-17.15451359749766
5.707620186127366,0.8510440051227688,6.75068936921638,5.521227559802987,22.643108520412017,-16.444617626610704
5.716130626178594,1.077475090326889,6.805901644814409,5.356781383536879,21.673354259569763,-15.949726701961978
5.726905377081863,1.2942086329225866,6.859469458649778,5.19728411651726,20.725048726597578,-15.651288829284715
5.739847463411089,1.5014591201885623,6.911442299814951,5.040771228224412,19.790237107192976,-15.529052552815468
5.754862054612975,1.699361491260492,6.9618500120971945,4.885480702696258,18.861754285459874,-15.562496988455848
5.771855669525579,1.8879790341150908,7.010704819124157,4.729855732811699,17.933957678209826,-15.731466538375658
5.79073545986673,2.067318610897189,7.058003376452274,4.5725410674279425,17.003057734114087,-16.016414910248052
5.811408645975702,2.23734918823833,7.1037287871265535,4.412376918325462,16.067214344391743,-16.398479769939485
5.833782137858086,2.3980213316822474,7.147852556309808,4.248392120626067,15.12649264145807,-16.859505433369094
5.857762351174909,2.5492862580968283,7.190336477516069,4.079797066292376,14.18273049117872,-17.38207228850756
5.883255213755877,2.6911135630086154,7.2311344481789925,3.9059763434073007,13.239347963442336,-17.949558365570184
5.910166349385963,2.8235070426430386,7.270194211613066,3.726480759751599,12.301117782571007,-18.546239539360297
5.9384014198123936,2.946518220468749,7.307459019210582,3.541018364357996,11.373910347691293,-19.15742412271332
5.967866602017081,3.060257323945662,7.342869202854162,3.349444123130863,10.464424553965976,-19.769611741971957
5.998469175256538,3.1649015694853215,7.376363644085471,3.1517480057111436,9.579914700807285,-20.37066354096941
6.0301181909513915,3.2607007164933943,7.407881124142582,2.9480413703014494,8.727923297940983,-20.949969916463992
6.0627251981163255,3.347979949472804,7.437361537845597,2.7385416711368094,7.916029045787276,-21.498602540597894
6.0962049976110535,3.4271402399306767,7.464746954556965,2.5235556457308306,7.151618401404666,-22.00943897278296
6.130476400010361,3.4986564239447233,7.489982511014273,2.303461256003001,6.441687835221984,-22.477250389791475
6.165462964249808,3.563073302296943,7.513017123574303,2.0786887521050863,5.792682127747488,-22.898745581282807
6.2010936972727775,3.6210001235744183,7.533804011095354,1.8497012962922583,5.210371898202028,-23.272567078492255
6.237303698508522,3.6731038425564386,7.552301024058276,1.6169756255073358,4.699771071500249,-23.59923779992904
6.2740347369340865,3.720101553271441,7.5684707803133495,1.3809832475080452,4.265092242379962,-23.88105857994057
6.311235752466801,3.762752475695241,7.58228061278843,1.1421726617086394,3.9097349133844106,-24.121958033886628
6.348863277223753,3.801849824829085,7.593702339405516,0.9009530813697731,3.6362983200571795,-24.327296003385218
6.386881775472044,3.8382128080296565,7.602711870219213,0.6576801213359209,3.4466068482451853,-24.503619840580676
6.425263903552341,3.8726788765121083,7.609288671432573,0.41264392293011415,3.3417315615850165,-24.658368433337724
6.463990692317462,3.9060961921279587,7.613415110661874,0.1660602385967369,3.321985525098073,-24.799511343675015
6.5030516542387415,3.9393160473789393,7.615075713047841,-0.08193487484001324,3.386862555976276,-24.93509861730073
6.542444814712531,3.973184672938702,7.614256364299441,-0.3312858610130206,3.5348774870902724,-25.07267916960702
6.582176661441918,4.008533447809604,7.6109435056893116,-0.5820126527090907,3.763249284310652,-25.218520074109872
6.622261995920014,4.046165940652711,7.605123379162221,-0.8341978534501895,4.067344347297127,-25.37652303217961
6.662723655326541,4.086839384125682,7.596781400627719,-1.0879630837719856,4.439764075488568,-25.546685411151685
6.703592049167798,4.131237024880567,7.585901769789999,-1.3434299378835024,4.868917832586885,-25.722891241489393
6.744904419416604,4.179926203206437,7.572467470411164,-1.6006588502983963,5.336874399544395,-25.88974930485654
6.786703681448668,4.23329494720188,7.55646088190818,-1.8595563433469617,5.816249599387161,-26.0181461534335
6.829036630920687,4.291457443195752,7.53786531847471,-2.1197378048812965,6.2659122827535025,-26.059218183314517
6.871951205352644,4.354116566023287,7.516667940425897,-2.380329986714442,6.625481339012681,-25.93671761179804
6.915492371012877,4.420371379413414,7.492864640558753,-2.639697162832422,6.809148180013263,-25.53853996153432
6.959696084807011,4.488462861213547,7.466467668930428,-2.895082562447765,6.7006181045193305,-24.70995064566469
7.004580713419147,4.55546904225874,7.437516843305951,-3.142182068904412,6.153254097635308,-23.254258601515012
7.050135403841734,4.617001583235093,7.406095022616907,-3.374724654919562,5.0026530837054795,-20.95107762820992
7.096305419674085,4.667028114072148,7.372347776067712,-3.5842354312016615,3.1009521817753622,-17.60515226800078
7.142975700814806,4.698037635889902,7.336505421755695,-3.7602869538816694,0.37793608628004144,-13.132659156789773
7.189956077173705,4.701816996752703,7.2989025522168784,-3.8916135454495673,-3.0834846795338753,-7.667139664156723
7.236974247141232,4.670982149957364,7.259986416762382,-3.9682849420911346,-6.99884998036955,-1.6264104544465294
7.283684068640806,4.600993650153669,7.220303567341471,-3.9845490466355997,-10.916509655208655,4.338023145143052
7.3296940051423425,4.491828553601582,7.180458076875115,-3.9411688151841693,-14.351278336747445,9.53169990071991
7.374612290678359,4.348315770234108,7.141046388723273,-3.84585181617697,-16.951478439293517,13.454220548687475
7.4180954483807,4.178800985841173,7.1025878705615035,-3.7113096106900954,-18.5943121129821,15.933803684338066
7.459883458239111,3.992857864711352,7.065474774454603,-3.5519715738467146,-19.36447728753414,17.095939690356573
7.499812036886224,3.7992130918360107,7.029955058716135,-3.3810121769431487,-19.461212715857343,17.2305272591388
7.537804167804584,3.6046009646774375,6.9961449369467035,-3.208706904351761,-19.105682253650443,16.659576648843288
7.573850177451359,3.413544142140933,6.964057867903186,-3.042111137863328,-18.486293443295,15.658864915200548
7.607985618872768,3.228681207707983,6.933636756524553,-2.8855224887113224,-17.740994320400763,14.432253110106153
7.640272430949848,3.0512712645039755,6.90478153163744,-2.741199957610261,-16.960754598815637,13.116283728459566
7.6707851435948875,2.881663718515819,6.877369532061337,-2.610037120325665,-16.200577264441673,11.795655742702756
7.699601780780045,2.7196579458714023,6.85126916085808,-2.4920805628986376,-15.490754011975623,10.519180066615682
7.726798360238759,2.564750405751646,6.826348355229094,-2.3868887622324806,-14.845762008554866,9.31246551893798
7.752445864296276,2.4162927856660974,6.802479467606768,-2.293764107043101,-14.270501611843732,8.186866857742233
7.776608792152937,2.2735877695476603,6.779541826536337,-2.2118954384656786,-13.764378415472974,7.145383099644773
7.799344669848414,2.1359439853929305,6.757422872151681,-2.140441607469231,-13.32385546564549,6.18638038937088
7.820704109702343,2.0027054307364756,6.736018456076988,-2.0785778035755222,-12.943993151787668,5.305867739983605
7.840731164009708,1.8732654992185989,6.715232678041233,-2.025519126175686,-12.619346670763553,4.498848877512534
7.859463819001894,1.7470720325109634,6.694977486779476,-1.9805306374005607,-12.344467090207926,3.7600998069958207
7.876934539327003,1.623627361608884,6.67517218040547,-1.9429296393306024,-12.11416313593566,3.0845964577893037
7.893170812943092,1.5024857302495276,6.655742884012164,-1.9120836747527092,-11.923621580744685,2.4677329136939106
7.908195670245587,1.3832495144420807,6.636622047264637,-1.8874063456157701,-11.768446185519851,1.9054168144731276
7.9220281653900075,1.2655650525868822,6.617747983808479,-1.8683521774710388,-11.64465143181656,1.394094635178854
7.934683815915877,1.1491185382687166,6.599064462033768,-1.8544112311192502,-11.548632677781091,0.9307385532869125
7.946175001298564,1.0336322114909056,6.580520349722575,-1.845103845586381,-11.477125462544102,0.5128137159745472
7.956511323413473,0.9188609568654645,6.562069311266711,-1.8399757084266355,-11.427161299828839,0.138236848157005
7.965699932982128,0.8045893438671762,6.543669554182445,-1.8385933399450654,-11.396024075988258,-0.1946676336028362
7.973745826420799,0.6906291031072936,6.525283620782995,-1.8405400162810936,-11.381209258114438,-0.4872107124566163
7.980652117451872,0.5768170105261492,6.506878220620184,-1.8454121234056597,-11.38038700667974,-0.7403794935076635
7.9864202875571335,0.4630131404593518,6.488424099386127,-1.8528159183407364,-11.391369657695053,-0.954874987878264
7.991050418961727,0.3490994438824013,6.469895940202719,-1.8623646682195192,-11.412083698174191,-1.1311469631172657
7.994541413400551,0.23497860690065936,6.451272293520524,-1.8736761378506919,-11.44054618771512,-1.2694261757766725
7.996891199469558,0.12057314502350816,6.432535532142017,-1.8863703996084586,-11.474845506216656,-1.3697544544754412
7.998096930919793,0.0058246899613415976,6.413671828145933,-1.9000679441532131,-11.513126289210325,-1.4320131582068736
7.998155177819407,-0.10930657293076165,6.394671148704401,-1.9143880757352818,-11.553578421217935,-1.455950532854695
