th1 (rad),w1 (rad/s),th2 (rad),w2 (rad/s)
4.48226987657631,0.42749139730222985,1.4765773606862818,-1.5356288257082995
4.486544790549332,0.5170651856569792,1.4612210724291987,-1.5441986733870647
4.491715442405902,0.6076559504417081,1.445779085695328,-1.5513216489606396
4.4977920019103195,0.6993285959471351,1.4302658692057217,-1.556950584236902
4.504785287869791,0.7921239156663215,1.4146963633633527,-1.5610816796211464
4.512706527026454,0.8860543463518974,1.3990855465671412,-1.5637612101560254
4.521567070489973,0.9810999490480525,1.383447934465581,-1.5650920140593034
4.531378069980454,1.0772049085004578,1.367797014324988,-1.5652393529260213
4.542150119065458,1.174274884728894,1.3521446207957277,-1.564435665585396
4.553892867912747,1.2721755730691957,1.3365002641398738,-1.5629836975965856
4.5666146236434395,1.370732822692775,1.320870427163908,-1.5612574892392905
4.580321951870367,1.469734620949491,1.305257852271515,-1.5597007587456575
4.595019298079862,1.5689351676037855,1.2896608446840585,-1.5588223322347605
4.6107086497559,1.6680611400066316,1.2740726213617108,-1.5591884480169442
4.627389261155966,1.7668200947064403,1.2584807368815414,-1.5614119920222116
4.645057462103031,1.8649107767899564,1.2428666169613192,-1.5661389844671034
4.66370656987093,1.9620349346382302,1.227205227116648,-1.5740329081739723
4.683326919217313,2.057910086938569,1.2114648980349083,-1.5857577135406347
4.7039060200866984,2.152282582159941,1.195607320899502,-1.6019605211603707
4.725428845908298,2.244940245151298,1.1795877156878982,-1.6232551432569584
4.747878248359811,2.335723930113986,1.1633551642553286,-1.650207543013624
4.771235487660951,2.4245373933448784,1.1468530888251924,-1.6833242443479766
4.7954808615944,2.5113550526796895,1.1300198463817126,-1.72304450645749
4.8205944121211965,2.5962273956441817,1.1127894013171378,-1.7697368130947109
4.846556686077639,2.679284012685683,1.0950920331861906,-1.8236999300430572
4.873349526204495,2.760734442670003,1.07685503388576,-1.8851684925421397
4.9009568706311955,2.840867205270835,1.0580033489603387,-1.9543228316641612
4.929365542683904,2.920047544866476,1.038460120643697,-2.031302561942661
4.958566018132569,2.998714516225913,1.0181470950242704,-2.11622334918529
4.988553163294828,3.077378104181034,0.9969848615324175,-2.2091962642426624
5.019326944336639,3.1566170948201715,0.9748928988899909,-2.310349203267967
5.050893115284841,3.2370784167874924,0.9517894068573112,-2.4198500088412933
5.0832638994527155,3.3194786636772204,0.9275909067688982,-2.53793114719988
5.116458686089488,3.40460850962288,0.9022115952968994,-2.6649160729279076
5.150504771185717,3.493340757749828,0.8755624345676204,-2.80124773532953
5.185438178763215,3.5866428324078203,0.8475499572143251,-2.9475200472679934
5.221304607087293,3.685594656945146,0.8180747567416452,-3.1045135505746604
5.258160553656745,3.791413062491533,0.7870296212358986,-3.2732369799161645
5.29607468428166,3.9054841568952017,0.754297251436737,-3.4549769559800043
5.335129525850612,4.0294054384499685,0.7197474818769369,-3.6513586206919078
5.375423580235112,4.16503982061437,0.6832338956700179,-3.8644206059967776
5.417073978441255,4.314584005941844,0.6445896896100501,-4.09670812585511
5.460219818500674,4.480653464198907,0.6036226083514991,-4.351387730882647
5.505026353142663,4.6663848011206275,0.5601087310426726,-4.632385226455832
5.551690201153869,4.875551611034725,0.5137848787781143,-4.9445417440490225
5.600445717264217,5.112677516593635,0.46433946133762405,-5.293765756544608
5.651572492430153,5.383099794054642,0.41140180377217794,-5.68711669958178
5.7054034903707,5.692865755247048,0.35453063677636015,-6.132656662536263
5.76233214792317,6.0481819001878785,0.29320407015099753,-6.638680340760769
5.822813966925049,6.453783635785028,0.22681726674338984,-7.2114410036207435
5.8873518032828995,6.908902987962327,0.15470285670718242,-7.849523051286015
5.956440833162523,7.3985029357308685,0.07620762619432227,-8.53159438406215
6.030425862519832,7.877502176096868,-0.009108317646299227,-9.194337078561073
6.1092008842808,8.253020709668167,-0.10105168843190997,-9.707577792901454
6.1917310913774815,8.39450765844218,-0.1981274663609245,-9.88843456314713
6.275676167961903,8.21653524952804,-0.2970118119923958,-9.617156307236796
6.357841520457184,7.777551019335492,-0.39318337506476375,-8.975030151335663
6.435617030650539,7.233361471940076,-0.48293367657812036,-8.17898337743971
6.50795064536994,6.7058430319045605,-0.5647235103525174,-7.398385026811814
6.575009075688985,6.244384757571381,-0.6387073606206356,-6.701702222682322
6.637452923264699,5.855930598497836,-0.7057243828474589,-6.09851890427304
6.6960122292496775,5.532388013295536,-0.7667095718901893,-5.577638213283866
6.751336109382633,5.262754063381656,-0.8224859540230279,-5.123879995793063
6.803963650016449,5.037022777389188,-0.8737247539809585,-4.7234777140963535
6.854333877790341,4.8470203814222845,-0.9209595311219221,-4.3652321933028535
6.902804081604565,4.686291754487476,-0.9646118530549506,-4.040362802016293
6.949666999149439,4.549769083311222,-1.0050154810751135,-3.742064219001842
6.995164689982552,4.433445566156961,-1.042436123265132,-3.465074326665539
7.039499145644122,4.334107999764343,-1.0770868665317874,-3.2053258840712715
7.082840225641765,4.249130479595365,-1.1091401253725002,-2.9596837470416806
7.125331530437719,4.176318535454253,-1.138736962842917,-2.72575164868803
7.1670947157922615,4.113792076494014,-1.1659944793297972,-2.5017310956642422
7.208232636557201,4.059897696974033,-1.1910117902864397,-2.286317677499942
7.248831613526941,4.013143417985652,-1.213874967061439,-2.0786232848497894
7.2889630477067975,3.9721510422408435,-1.2346611999099368,-1.8781154168828407
7.328684558129206,3.9356228466054075,-1.2534423540787651,-1.6845668381241778
7.36804078659526,3.9023203755858473,-1.2702880224600068,-1.498010473116449
7.407063990351118,3.8710537082577745,-1.2852681271911712,-1.318695786303215
7.445774527433696,3.8406798307574728,-1.2984550850542034,-1.147044128852596
7.484181325741271,3.810108735913246,-1.3099255263427294,-0.9836017263706733
7.522282413100403,3.778315677775562,-1.319761543606436,-0.8289901466482342
7.560065569878159,3.744357729930895,-1.3280514450729184,-0.6838551772239321
7.597509147177468,3.7073925376612795,-1.3348899968451577,-0.5488159650632041
7.634583072554081,3.6666970142307855,-1.3403781564957897,-0.42441691322230557
7.671250042696389,3.621683785589436,-1.3446223256280128,-0.3110850966210312
7.707466880552284,3.5719134691145813,-1.347733176594223,-0.2090958050029436
7.743186015243429,3.517101363986817,-1.3498241346442525,-0.11854827008204626
7.778357028883297,3.457117770051673,-1.351009617345073,-0.03935278150601057
7.812928206583814,3.391981844417464,-1.3514031451601332,0.028770609612527615
7.846848025027989,3.3218495492272573,-1.3511154390640079,0.08628259416808717
7.880066520520262,3.2469967550099637,-1.350252613122327,0.13380594328887163
7.912536488070361,3.1677988896593883,-1.3489145536894382,0.17209988136156457
7.944214476966955,3.0847086499651146,-1.3471935548758227,0.20202996426616351
7.975061563466607,2.998233241289321,-1.345173255233161,0.22453591687829327
8.005043895879501,2.9089124245942672,-1.342927896064378,0.24059963696943346
8.034133020125443,2.817298380858577,-1.3405218996946837,0.25121517204273475
8.06230600393403,2.7239381009051784,-1.3380097479742563,0.25736200032256495
8.089545384943081,2.629358713970668,-1.3354361279710307,0.25998246470202846
8.115838972082788,2.5340559083430483,-1.3328363033240105,0.25996376844656643
8.141179531166218,2.438485387000534,-1.3302366656395448,0.25812457397649985
8.165564385036223,2.343057145200042,-1.3276554198997799,0.25520596427003683
8.188994956488223,2.2481322531046146,-1.3251033602570794,0.2518663306857333
8.21147627901927,2.1540217682906584,-1.3225846969502222,0.2486796332276719
8.233016496702176,2.0609873818582685,-1.3200979006179454,0.24613642679140113
8.253626370520758,1.9692434090028368,-1.3176365363500313,0.24464704534334034
8.273318804610787,1.8789597619810308,-1.3151900658965978,0.2445463711582232
8.292108402230596,1.7902655831838454,-1.3127446021850155,0.2460996754602132
8.310011058062434,1.7032532625659709,-1.3102836054304134,0.24950908941630814
8.327043590688094,1.6179826123367649,-1.3077885145362504,0.2549203419922918
8.343223416811462,1.5344850191817032,-1.3052393111163276,0.2624294774634577
8.358568267003278,1.452767438023779,-1.302615016341693,0.2720893361035982
8.373095941383516,1.3728161300309372,-1.2998941229806569,0.28391564415068826
8.386824102683825,1.2946000805365745,-1.29705496653915,0.29789261229254654
8.39977010348919,1.2180740596285193,-1.2940760404162246,0.31397798536037985
8.411950844085476,1.1431813096362717,-1.290936260562621,0.33210752009712624
8.42338265718184,1.0698558601228318,-1.2876151853616495,0.3521988936652375
8.434081215783069,0.9980244829273226,-1.284093196424997,0.37415506410401317
8.444061460612343,0.9276083080266486,-1.280351645783957,0.3978671164584924
8.453337543692609,0.8585241262021677,-1.2763729746193722,0.42321663597935516
8.46192278495463,0.7906854073771719,-1.2721408082595786,0.4500776537455807
8.469829639028402,0.7240030646277096,-1.2676400317221228,0.4783182112691037
8.47706966967468,0.6583859937751921,-1.2628568496094317,0.5078015899389287
8.483653529612432,0.5937414175727259,-1.2577788337100424,0.5383872492421972
8.48959094378816,0.5299750621477324,-1.2523949612176204,0.5699315151188945
8.494890694409637,0.466991191840611,-1.2466956460664314,0.6022880570051801
8.499560606328043,0.4046925271025693,-1.2406727654963796,0.6353081894388202
8.503607531599068,0.34298006885550625,-1.2343196836019914,0.6688410317994617
8.507037332287622,0.2817528518031254,-1.2276312732839967,0.7027335580328748
8.509854860805653,0.22090764871299745,-1.220603937703668,0.7368305672074257
8.512063937292783,0.16033864773465756,-1.2132356320315936,0.7709746055773831
8.51366732377013,0.09993712542508473,-1.2055258859758198,0.8050058715499706
8.514666695024381,0.039591139341207456,-1.19747582726032,0.8387621366052186
8.515062606417793,-0.02081473417807333,-1.189088205894268,0.8720787177943079
8.514854459076012,-0.08139958912381356,-1.180367418716325,0.9047885408892
8.514040463184774,-0.1422862751712845,-1.1713195333074329,0.9367223374559125
8.51261760043306,-0.20360134560011828,-1.1619523099328737,0.9677090238732641
8.51058158697706,-0.26547483101932884,-1.152275219694141,0.9975763153054743
8.507926838666865,-0.32803979931973326,-1.1422994565410862,1.026151632408555
8.504646440673667,-0.39143166017252445,-1.1320379402170007,1.0532633624859615
8.500732124071943,-0.45578717157791815,-1.121505306592141,1.0787425390930387
8.496174252356164,-0.5212431071556617,-1.1107178812012106,1.102425003698457
8.490961821284607,-0.5879345469006997,-1.099693631164226,1.1241541087189253
8.4850824758156,-0.655992761935619,-1.0884520900770367,1.1437840116655624
8.478522548196244,-0.7255426763329386,-1.077014249960381,1.1611835938200417
8.471267121432914,-0.7966999072224203,-1.0654024140221805,1.176241012419569
8.46330012236069,-0.8695674087606126,-1.0536400038979847,1.188868861697927
8.454604448273084,-0.9442317762878896,-1.0417513152810054,1.199009874827236
8.445162130510205,-1.020759303609238,-1.029761216532733,1.2066430462984215
8.434954537474113,-1.0991919273602786,-1.0176947860697487,1.2117899943430914
8.423962618200509,-1.1795432352968134,-1.005576886126318,1.214521319033307
8.41216718584754,-1.2617947563223841,-0.9934316729359849,1.2149626488893703
8.399549238284317,-1.3458927843116792,-0.9812820464470912,1.2133000140847128
8.386090310441201,-1.4317460097418968,-0.969149046306244,1.209784145855037
8.371772850343781,-1.5192242371607525,-0.9570512048476936,1.2047332881457307
8.356580607972173,-1.6081584477342696,-0.9450038719662363,1.1985341267546312
8.34049902349483,-1.6983424214639347,-0.9330185306986899,1.1916404988964595
8.32351559928019,-1.7895360628418293,-0.9211021257097253,1.1845696441548872
8.305620238651771,-1.8814704798782809,-0.9092564292681764,1.1778958932244965
8.286805533852988,-1.9738547563747912,-0.8974774703359314,1.1722418552939613
8.26706698628924,-2.0663842409568196,-0.8857550517829917,1.1682673449969327
8.246403143879672,-2.1587500656455556,-0.8740723783330224,1.1666564685724938
8.224815643223216,-2.2506495138758686,-0.8624058136472975,1.1681034478824082
8.202309148084458,-2.3417967935639723,-0.8507247791684734,1.1732978831843992
8.178891180148819,-2.4319337426068213,-0.8389918003366295,1.1829102278959787
8.154571842722751,-2.52084000528429,-0.8271626980576696,1.1975782636639265
8.129363442669908,-2.6083422670645082,-0.8151869154210304,1.217895321309728
8.103280019999263,-2.6943222168024237,-0.8030079622079331,1.2444008986623245
8.076336797831239,-2.778723010804225,-0.7905639532213099,1.2775741913400156
8.048549567723196,-2.8615541327120075,-0.7777882113079098,1.3178308922253155
8.019934026396076,-2.9428946666055036,-0.7646099023856566,1.3655234462704569
7.9905050797300206,-3.022895119281929,-0.7509546679229521,1.4209447856271296
7.960276128537202,-3.1017780345889667,-0.7367452200666808,1.4843354303508818
7.929258348191312,-3.1798377337124593,-0.721901865763172,1.5558937337597614
7.897459970854188,-3.2574395888941043,-0.7063429284255743,1.6357889874009843
7.864885574965247,-3.335019295193504,-0.6899850385515645,1.724177083803226
7.831535382013312,-3.4130826490091852,-0.6727432677135322,1.8212184683115311
7.7974045555232205,-3.49220637866554,-0.6545310830304168,1.9270981948169479
7.762482491736566,-3.5730406088948077,-0.6352601010822474,2.042048033507617
7.726752085647617,-3.656313586650434,-0.6148396207471712,2.166370761303066
7.690188949781113,-3.742839361097366,-0.5931759131341405,2.3004669979962977
7.65276055617014,-3.8335292079357974,-0.5701712431541776,2.44486523614952
7.614425264090782,-3.929407730528311,-0.5457225907926824,2.600256056064457
7.575131186785499,-4.031634770671217,-0.5197200302320378,2.7675319263437843
7.534814839078787,-4.141534530482647,-0.4920447109686,2.947834471898954
7.4933994937739605,-4.260633644065951,-0.46256636624961045,3.1426116396917916
7.450793157333301,-4.390710316823079,-0.4311402498526925,3.3536877677822154
7.40688605416507,-4.533856978902421,-0.39760337217487035,3.583350034505145
7.361547484376046,-4.692558928605486,-0.3617698718298189,3.8344547839114282
7.314621895089991,-4.869790562433295,-0.3234253239907046,4.110555939341962
7.265923989465659,-5.069127566179265,-0.282319764597285,4.416053122757255
7.215232713803866,-5.2948645593440125,-0.23815923336971243,4.756344552428996
7.162284068210426,-5.552105555347837,-0.19059578784542247,5.137938673869865
7.106763012656948,-5.846742073889016,-0.1392164011067238,5.568404769378747
7.048295591918058,-6.185113077836508,-0.08353235341293636,6.055873592721065
6.986444461139693,-6.572874421202894,-0.022973617485725704,6.607425418342413
6.920715716927664,-7.012060678156569,0.04310063669769843,7.224938709019565
6.850595110146099,-7.49440828832387,0.11535002378789408,7.895689989577665
6.77565102726286,-7.98836991946079,0.19430692368367075,8.574098184569944
6.695767328068253,-8.420784136840862,0.2800479055293702,9.155972000720078
6.611559486699844,-8.671805656619878,0.371607625536571,9.47140927769224
6.524841430133645,-8.62830315061993,0.4663217183134934,9.359860752663277
6.438558398627445,-8.292083480197537,0.5599203258401262,8.822174885873407
6.35563756382547,-7.79624810358515,0.6481420746988602,8.043677545778822
6.277675082789618,-7.283094447759164,0.7285788501566485,7.223169702962511
6.204844138312026,-6.825560408428478,0.8008105471862735,6.462884088631281
6.136588534227742,-6.4421985233944685,0.8654393880725864,5.789195837288932
6.072166548993797,-6.1286842858453765,0.9233313464454757,5.196475395194796
6.010879706135343,-5.8746303424082456,0.9752961003974236,4.670516914048276
5.952133402711261,-5.6696644632462965,1.0220012695379064,4.197044391872157
5.895436758078798,-5.505041226330482,1.063971713456628,3.7640116446149694
5.840386345815493,-5.37376089760727,1.1016118299027777,3.361826967491518
5.78664873683942,-5.270284085115231,1.135230099577693,2.983014589346001
5.733945895988268,-5.190194127397574,1.165060245471153,2.6218019758498947
5.682043954714292,-5.129904768871745,1.1912782652296519,2.2737682512836463
5.630744907025575,-5.0864293560974305,1.2140159477424883,1.9355752334715541
5.5798806134646,-5.057204995100402,1.233371700077204,1.6047699217526428
5.529308563513596,-5.039961109519992,1.2494193992947304,1.2796407412676079
5.478908952418396,-5.032623221349173,1.2622158067074065,0.9591109676165158
5.428582720204904,-5.033245145113488,1.2718069163835717,0.642655608719976
5.378250268753769,-5.039964795704914,1.2782334724707713,0.33023092256201486
5.32785062079672,-5.050980126709808,1.2815357816963915,0.022208398765144244
5.277340819529622,-5.064542341486268,1.281757865684043,-0.2806924901825374
5.226695396114759,-5.078963576424612,1.2789509407822175,-0.5774760470034329
5.1759057603505125,-5.092635928664706,1.2731761803121833,-0.8669475310523619
5.124979401063865,-5.104058211475785,1.2645067050016596,-1.1477944734729424
5.073938818949108,-5.111866404521606,1.25302876026693,-1.418668999752223
5.022820154903892,-5.114863631543703,1.2388420702694078,-1.678266798356142
4.971671518588455,-5.112045780941545,1.2220594022858464,-1.925397922659921
4.920551060779039,-5.1026196153265495,1.2028054230592473,-2.1590450024442025
4.869524864625774,-5.086011309940778,1.1812149730348054,-2.3784055682653094
4.818664751526366,-5.061864642584741,1.1574309173521522,-2.582916811208543
4.7680461051005185,-5.030029315557131,1.1316017492400667,-2.7722628845182147
4.717745811944948,-4.990540927952022,1.1038791203948846,-2.9463664771179947
4.667840402665427,-4.943594804403496,1.0744154556237047,-3.105367604360931
4.618404454621392,-4.889516180046553,1.0433617795800953,-3.2495932418418962
4.569509292820927,-4.8287291770475385,1.0108658471616765,-3.3795215719146996
4.521222001050451,-4.761726675941036,0.9770706314425295,-3.4957443139797837
4.47360473429104,-4.689042697562623,0.9421131883027316,-3.5989300145827365
4.4267143073154145,-4.611228374608044,0.9061238881569043,-3.6897904358780136
4.380602023569334,-4.528832087467226,0.8692259837981241,-3.7690514315789683
4.335313702694662,-4.4423839176789945,0.8315354694823345,-3.8374290294125837
4.290889863517871,-4.352384255949264,0.7931611791882086,-3.895610898313477
4.247366020958379,-4.259296190073976,0.7542050702050739,-3.944242982595647
4.204773059057639,-4.1635411776126645,0.7147626403791174,-3.9839208256110257
4.163137647281513,-4.065497458845367,0.6749234321230071,-4.0151849599523315
4.122482672693059,-3.965500666626767,0.6347715825234838,-4.038519683068408
4.082827666026792,-3.863846122811343,0.5943863856927997,-4.054354539886456
4.044189204798679,-3.7607923614030576,0.553842840293935,-4.0630678751671345
4.006581281184648,-3.6565654760589923,0.5132121615422637,-4.064991880432158
3.970015626424058,-3.5513639473369305,0.4725622427379421,-4.0604186310711174
3.9345019869506888,-3.4453636593837764,0.43195805642723095,-4.049606680749556
3.900048350356851,-3.3387228650386533,0.3914619896197354,-4.03278784807459
3.8666611217064646,-3.2315869024135115,0.3511341111389895,-4.010173892696214
3.8343452526823296,-3.1240925055566984,0.3110323722120274,-3.9819628343239786
3.8031043276267624,-3.016371587766182,0.27121274386878763,-3.9483447191174217
3.7729406117491004,-2.9085544094459173,0.2317292966776134,-3.909506684519854
3.7438550676546414,-2.800772073799088,0.19263422983241488,-3.8656372167751556
3.7158473469166506,-2.693158323476627,0.15397785766466332,-3.8169295357494337
3.6889157636818846,-2.58585063951162,0.11580856230716899,-3.7635840795338353
3.6630572572867686,-2.4789906700844884,0.07817272151183063,-3.705810096479908
3.6382673505859238,-2.372724040238251,0.04111462054703155,-3.643826384313451
3.6145401101835413,-2.267199613824772,0.0046763567038970374,-3.5778612440538793
3.5918681140452935,-2.162568294946922,-0.031102255736641757,-3.5081517398183593
