th1 (rad),w1 (rad/s),th2 (rad),w2 (rad/s)
3.306386397228761,-1.9099737102525363,2.040188519629286,-1.2059352662041847
3.2872866601262354,-1.8921441232702523,2.028129166967244,-1.2638824635019557
3.268365218893533,-1.8765289041230637,2.015490342332224,-1.322521666517684
3.249599929852302,-1.8631946377550581,2.0022651256670474,-1.381709656670215
3.2309679834747516,-1.8522098594221603,1.9884480291003452,-1.4413050603748532
3.21244588488053,-1.8436445948840872,1.9740349784965967,-1.5011681008170312
3.194009438931689,-1.8375699111515547,1.9590232974884263,-1.5611603162297738
3.1756337398201735,-1.8340574768964275,1.9434116943261286,-1.621144238685818
3.1572931650512093,-1.8331791312345616,1.9272002519392704,-1.6809830282174025
3.1389613737388635,-1.8350064592594555,1.9103904216570964,-1.7405400578861225
3.120611309146269,-1.8396103724514605,1.892985021078235,-1.7996784462405786
3.1022152054217544,-1.847060691923136,1.8749882366158293,-1.858260534424736
3.083744598502523,-1.857425732396791,1.856405631271582,-1.916147306043168
3.065170341178555,-1.8707718848559134,1.8372441582111503,-1.9731977487623003
3.046462622329996,-1.8871631959795683,1.8175121807235273,-2.02926815754319
3.0275909903702005,-1.906660942770974,1.7972194991480954,-2.0842113803759665
3.008524380942491,-1.9293232012434511,1.7763773853443356,-2.1378760084332527
2.9892311489300565,-1.955204408646229,1.7549986252600032,-2.190105513692406
2.969679104843594,-1.9843549195190437,1.733097570123079,-2.2407373383040725
2.9498355556484035,-2.016820556880074,1.7106901967400383,-2.2896019413128665
2.929667350079603,-2.052642161100142,1.6877941773269096,-2.3365218097646894
2.9091409284686014,-2.0918551405216017,1.6644289592292627,-2.3813104427567486
2.8882223770633852,-2.1344890296668675,1.6406158548016951,-2.423771318583943
2.8668774867667164,-2.180567062971154,1.6163781416158558,-2.4636968567810063
2.845071816137005,-2.2301057743851884,1.5917411730480457,-2.5008673885120447
2.822770758393153,-2.2831146359394836,1.5667324991629252,-2.535050150360016
2.799939612033758,-2.3395957514477543,1.541381997659325,-2.5659983180411876
2.7765436545192803,-2.3995436249492794,1.5157220144789132,-2.5934500978143875
2.7525482182697876,-2.462945027232965,1.4897875135007692,-2.617127894247279
2.727918767997458,-2.529778987820832,1.4636162345582964,-2.6367375733893623
2.7026209781192496,-2.6000169440724523,1.4372488588244028,-2.651967840101231
2.6766208086785253,-2.6736230835463357,1.4107291804233906,-2.662489747088148
2.649884577843062,-2.7505549203467594,1.3841042829525092,-2.6679563508393778
2.6223790286395943,-2.830764150809832,1.3574247194441154,-2.6680025259120983
2.5940713871314958,-2.9141978384463605,1.3307446941849943,-2.662244943529008
2.564929408747032,-3.0007999824632536,1.3041222447497043,-2.650282212981572
2.5349214089223997,-3.0905135283349026,1.2776194226198885,-2.6316951745538164
2.5040162736390505,-3.183282882707853,1.2513024708743503,-2.6060473203451475
2.472183444811972,-3.27905699833213,1.2252419976708988,-2.572885304284111
2.4393928748286506,-3.377793097681016,1.1995131446280578,-2.531739484717005
2.4056149438518406,-3.479461106428951,1.1741957497808877,-2.4821244223468506
2.370820332787551,-3.5840488699852235,1.1493745055574192,-2.4235392334084773
2.334979844087699,-3.6915682277558366,1.1251391132233344,-2.3554676736702382
2.2980641618101405,-3.8020620204860633,1.101584436486632,-2.277377804729253
2.2600435416052798,-3.9156121052957333,1.0788106584393395,-2.1887210727818025
2.2208874205523226,-4.03234844945215,1.0569234477115215,-2.0889306159918815
2.1805639360578013,-4.1524593646468135,1.0360341415516026,-1.9774186169074524
2.139039342411333,-4.2762029229716125,1.016259955382528,-1.853572542777986
2.096277313181617,-4.4039195535536075,0.9977242299547482,-1.7167501883271947
2.052238117646081,-4.5360457361309985,0.9805567280714762,-1.566273584380121
2.006877660284771,-4.673128551382656,0.964893992227675,-1.401422114930234
1.9601463747709444,-4.815840559061853,0.9508797710783727,-1.221425684170216
1.9119879691803259,-4.964993952329308,0.9386655142366706,-1.0254596445204303
1.8623380296570329,-5.121552005241651,0.9284109177914662,-0.8126446911487326
1.8111225096046164,-5.2866341923912135,0.9202844708799789,-0.5820574745460725
1.7582561676807043,-5.461508516874723,0.9144638961345182,-0.3327619860404597
1.703641082511957,-5.647559725265075,0.9111362762741135,-0.06387896566974671
1.6471654852593063,-5.846213970824285,0.910497486617416,0.2252776111480772
1.5887033455510635,-6.0587874024141755,0.9127502627288968,0.5349491814012581
1.5281154715269218,-6.286206394754163,0.9180997545429094,0.8644907488383025
1.4652534075793802,-6.528521004363984,0.9267446620312924,1.2116268919038713
1.3999681975357403,-6.784109257852218,0.9388609309503311,1.5712627744786969
1.332127104957218,-7.048479863133899,0.9545735586951181,1.933727612006212
1.261642306325879,-7.312706889203401,0.9739108348151801,2.2825183222393104
1.188515237433845,-7.561920993221412,0.9967360180375733,2.592184474468764
1.1128960275016309,-7.775050448079652,1.022657862782261,2.828109107116003
1.0351455230208344,-7.927778705371736,1.0509389538534208,2.951049585808313
0.955867735967117,-7.9999658522550865,1.080449449711504,2.92824879877141
0.8758680774445662,-7.984946830184009,1.109731937699218,2.7473680326759142
0.796018609142726,-7.8937880271783065,1.1372056180259773,2.4231692909912796
0.717080728870943,-7.750009250840399,1.1614373109358902,1.9902475445182493
0.639580636362539,-7.579082726784997,1.1813397863810726,1.4878217601556427
0.5637898090946891,-7.400636655907822,1.1962180039826291,0.9480685258718363
0.4897834425356109,-7.226287138254392,1.2056986892413475,0.3924894427047385
0.41752057115306696,-7.061021859662221,1.2096235836683948,-0.16646182599165316
0.34691035255644476,-6.905465508720823,1.2079589654084784,-0.7222995075140749
0.27785569746923655,-6.757737446453613,1.2007359703333376,-1.2718916554573343
0.2102783230047004,-6.614662094735148,1.1880170537787642,-1.8137301672197808
0.14413170205734893,-6.472476936760494,1.1698797521065665,-2.3469268201805455
0.07940693268974398,-6.327228538489611,1.146410483904761,-2.8706888028800037
0.01613464730484787,-6.174996118525655,1.1177035958759611,-3.384085033940039
-0.04561531388040868,-6.012027165328338,1.0838627455365608,-3.885984171302988
-0.10573558553369206,-5.834830896386855,1.045002903823531,-4.375094436389818
-0.1640838944975606,-5.6402515564395745,1.0012519594596327,-4.850064616767478
-0.22048641006195635,-5.425529692159416,0.952751313291958,-5.309621435073814
-0.2747417069835505,-5.188351753200723,0.8996550989412198,-5.752726515193488
-0.32662522451555775,-4.926884328813085,0.8421278337892849,-6.1787401701086235
-0.3758940678036886,-4.639787790888662,0.7803404320881987,-6.587581422928795
-0.4222919457125752,-4.326204457108149,0.7144646178589107,-6.9798752853610155
-0.46555399028365674,-3.985718325265179,0.6446658650053005,-7.357079860002253
-0.5054111735363085,-3.6182868942885418,0.571095066405278,-7.721587171633306
-0.5415940424791938,-3.2241507889681236,0.4938791946889449,-8.076791916176264
-0.5738355503688751,-2.8037346064530886,0.4131112755271823,-8.427119670235152
-0.601872896433406,-2.3575645104054606,0.3288400788248308,-8.777996960539944
-0.6254485415374607,-1.886248748450293,0.24106010921943133,-9.135723352027501
-0.6443110290219636,-1.3906045881540345,0.1497028756991563,-9.507158372989458
-0.6582170749035039,-0.8720834759120706,0.05463129196926171,-9.899042982986002
-0.6669379096626246,-0.3337659188547336,-0.04435913786059831,-10.31660636767333
-0.6702755688511719,0.2176199854773898,-0.14752520153733162,-10.760843649615184
-0.668099368996398,0.7680289106788519,-0.25513363803348343,-11.223576434233724
-0.6604190798896095,1.2903798012090208,-0.36736940237582066,-11.679650281652512
-0.6475152818775193,1.738216462377452,-0.4841659051923458,-12.078006616144902
-0.6301331172537448,2.0453933173534296,-0.6049459713537948,-12.340391796804944
-0.6096791840802105,2.1445128032076863,-0.7283498893218443,-12.384799142143672
-0.5882340560481336,2.006897797556239,-0.8521978807432811,-12.177474577058486
-0.5681650780725712,1.6703082772484006,-0.973972626513866,-11.76826745051679
-0.5514619953000872,1.2153633097158625,-1.091655301019034,-11.258199542411841
-0.5393083622029285,0.7169332195742131,-1.2042372964431525,-10.736180136395744
-0.5321390300071864,0.22078219924568948,-1.31159909780711,-10.251067978758552
-0.5299312080147295,-0.2522967940208695,-1.4141097775946954,-9.819501090742309
-0.5324541759549382,-0.6955184823478231,-1.5123047885021184,-9.44124000960864
-0.5394093607784164,-1.1083128142808079,-1.6067171885982048,-9.109403547476846
-0.5504924889212245,-1.4923133852552353,-1.6978112240729732,-8.815433370970476
-0.5654156227737769,-1.8495965936894434,-1.785965557782678,-8.551100454613405
-0.5839115887106713,-2.182008648393782,-1.871476562328812,-8.309166888137474
-0.6057316751946091,-2.4909707206918728,-1.9545682312101869,-8.083506535330347
-0.6306413824015279,-2.7774804896448178,-2.0354032965634903,-7.869035248967606
-0.6584161872979761,-3.0421867125105813,-2.1140936490531663,-7.661591694234496
-0.688838054423082,-3.285484344295039,-2.1907095659955114,-7.4578200799809204
-0.7216928978660324,-3.50760840468541,-2.2652877667953204,-7.255069536388832
-0.7567689819128866,-3.708717805731982,-2.3378384621592088,-7.051310920244168
-0.7938561599702064,-3.888965810251639,-2.4083515713616506,-6.845067256737373
-0.8327458180727229,-4.048556102903901,-2.4768022439290243,-6.635353251214287
-0.8732313791017619,-4.1877845186030465,-2.543155776441167,-6.421619975664867
-0.9151092242877923,-4.3070670720096755,-2.6073719761978156,-6.203701959719702
-0.958179895007889,-4.4069553644387875,-2.6694089957950125,-5.981765068904171
-1.0022494486522768,-4.488140797326385,-2.729226646484054,-5.756254550119742
-1.0471308566255406,-4.551449298360185,-2.7867891919852514,-5.527843391544766
-1.0926453496091424,-4.597828448322713,-2.842067625900699,-5.297381663052948
-1.1386236340923694,-4.628328968115658,-2.8950414425312285,-5.065847788155716
-1.184906923773526,-4.644082484298667,-2.945699920412786,-4.834302783676715
-1.2313477486165125,-4.646277349901475,-2.994042948249553,-4.60384843391054
-1.2778105221155274,-4.636134077732062,-3.0400814325886585,-4.3755901900871805
-1.324171862892848,-4.614881673452957,-3.0838373344895302,-4.1506053488960175
-1.3703206796273777,-4.583735863038818,-3.12534338797849,-3.9299168041147934
-1.4161580382577659,-4.543879918150025,-3.164642556019638,-3.7144724127352027
-1.461596837439266,-4.496448512349655,-3.20178728014699,-3.505129792014497
-1.5065613225627625,-4.442514803854398,-3.236838578067135,-3.302646179081667
-1.5509864706013066,-4.383080743933037,-3.269865039857952,-3.1076728458600056
-1.5948172780406369,-4.319070456743941,-3.300941768316552,-2.920753469816255
-1.6380079826080762,-4.251326425340849,-3.3301493030147147,-2.7423258124759045
-1.6805212468614847,-4.180608146264653,-3.3575725611394738,-2.572726047444003
-1.7223273283241314,-4.107592876489546,-3.383299821613914,-2.412195101148978
-1.7634032570890268,-4.03287808560077,-3.4074217726254035,-2.260886415395078
-1.8037320379450346,-3.956985236824749,-3.430030636779354,-2.1188746037988673
-1.843301890313282,-3.8803645470138117,-3.4512193828173428,-1.9861645475203418
-1.8821055357834202,-3.803400412552954,-3.4710810282925464,-1.8627005534353904
-1.9201395399089498,-3.7264172307961707,-3.4897080338269,-1.748375275134879
-1.9574037122169115,-3.6496853912942426,-3.507191786578249,-1.6430381701179284
-1.993900566129854,-3.5734272548532657,-3.523622168279428,-1.5465033326440174
-2.0296348386783865,-3.4978229792978235,-3.5390872016058683,-1.4585565993270098
-2.0646130684713646,-3.4230160873738815,-3.553672767599138,-1.3789618729851951
-2.0988432293451034,-3.3491187038012926,-3.56746238632899,-1.307466649498579
-2.132334416383116,-3.2762164148503823,-3.580537052823976,-1.243806762975843
-2.16509658053162,-3.2043727251104213,-3.5929751204537346,-1.187710387244314
-2.197140307782724,-3.1336331027271886,-3.604852224326178,-1.1389013475784204
-2.2284766388099957,-3.064028616850609,-3.616241237801962,-1.0971018067714091
-2.259116924978502,-2.995579179963128,-3.627212255869676,-1.062034395202487
-2.2890727167781333,-2.9282964137812715,-3.637832599821701,-1.0334238564432956
-2.318355680915946,-2.8621861611361634,-3.648166838386134,-1.0109982790511343
-2.3469775425273074,-2.797250668189811,-3.6582768211766457,-0.9944899822460137
-2.3749500492092057,-2.733490462009845,-3.6682217209991057,-0.9836361187665299
-2.4022849538293043,-2.670905948307906,-3.678058082186771,-0.9781790528260721
-2.4289940133123835,-2.6094987533712506,-3.687839872715032,-0.9778665651209147
-2.455089000846096,-2.5492728331357766,-3.697618538366241,-0.9824519305635463
-2.480581729177454,-2.4902353711468366,-3.7074430576718767,-0.9916939080484635
-2.5054840828889224,-2.432397485957729,-3.717359996752361,-1.0053566752729794
-2.5298080577485,-2.3757747673994425,-3.727413563505091,-1.0232097355649594
-2.5535658054224943,-2.3203876601519187,-3.7376456608607405,-1.0450278179193855
-2.5767696820240134,-2.2662617121567727,-3.7480959390399344,-1.0705907861040984
-2.599432299145581,-2.2134277046103668,-3.7588018469009756,-1.099683567834985
-2.6215665761916846,-2.1619216795258214,-3.7697986825793253,-1.1320961107017895
-2.6431857929869427,-2.1117848801077517,-3.7811196436863432,-1.1676233677927403
-2.6643036417880204,-2.0630636183997138,-3.7927958773642705,-1.2060653128481253
-2.6849342779720176,-2.0158090838037377,-3.8048565304927515,-1.2472269822799618
-2.705092368810055,-1.9700771051074164,-3.817328800315551,-1.290918539516623
-2.7247931398611294,-1.9259278775744755,-3.8302379857107174,-1.3369553558360183
-2.744052418636874,-1.883425665462332,-3.8436075392690774,-1.3851581010863931
-2.7628866752914973,-1.8426384890421457,-3.8574591202799415,-1.4353528373895212
-2.781313060181919,-1.8036378038426963,-3.8718126486538367,-1.4873711089922848
-2.799349438220346,-1.7664981784573357,-3.8866863597437593,-1.5410500217855867
-2.8170144200049196,-1.7312969758860743,-3.902096859961615,-1.5962323065475121
-2.8343273897637804,-1.6981140420755607,-3.9180591830270903,-1.6527663605970917
-2.8513085301845362,-1.6670314041071514,-3.9345868466330614,-1.710506263181499
-2.8679788442256076,-1.638132979398634,-3.951691909264876,-1.769311760492539
-2.884360174019594,-1.6115042963492174,-3.9693850268698014,-1.829048216664959
-2.900475216983086,-1.5872322260790404,-3.987675509036451,-1.8895865274160424
-2.9163475392438762,-1.5654047242903324,-4.006571374310611,-1.9508029931296431
-2.9320015864867797,-1.5461105817929264,-4.026079404241908,-2.012579148173369
-2.947462692304709,-1.5294391818679702,-4.046205195723641,-2.0748015430861213
-2.9627570841233886,-1.5154802623597248,-4.066953211154503,-2.1373614760182016
-2.977911886746986,-1.5043236801518798,-4.0883268259146845,-2.2001546694894345
-2.9929551235485046,-1.4960591754673476,-4.110328372609579,-2.2630808881979974
-3.007915715303178,-1.4907761331974723,-4.132959181491558,-2.326043493309434
-3.022823476635153,-1.4885633381924286,-4.156219616424653,-2.388948928423783
-3.037709110017077,-1.4895087211119373,-4.18010910570889,-2.451706132294832
-3.0526041972281965,-1.4936990910368964,-4.204626167031838,-2.514225873387682
-3.0675411881385655,-1.5012198505815597,-4.229768425765715,-2.5764200015295544
-3.0825533866443813,-1.5121546887370756,-4.255532625781011,-2.638200612247421
-3.097674933531752,-1.5265852461457894,-4.281914631903485,-2.6994791199020587
-3.1129407859932097,-1.5445907469868838,-4.308909423102505,-2.7601652364257747
-3.1283866934630784,-1.56624759119149,-4.336511075466762,-2.8201658533534952
-3.1440491693749935,-1.5916289003504818,-4.364712734000297,-2.879383825909359
-3.1599654583784984,-1.6208040104878363,-4.3935065722593905,-2.9377166591828003
-3.1761734984833767,-1.653837904908403,-4.422883738851218,-2.9950550979149377
-3.1927118775324606,-1.690790580656362,-4.452834289830368,-3.051281623140815
-3.2096197833390243,-1.7317163428071716,-4.483347106061776,-3.1062688609260336
-3.226936946767096,-1.7766630219305068,-4.514409794671037,-3.159877910734307
-3.244703576986401,-1.825671111674011,-4.54600857377838,-3.2119566036064056
-3.2629602881031414,-1.878772825596176,-4.578128139814444,-3.2623377033622964
-3.2817480163591033,-1.9359910751871052,-4.610751516848067,-3.31083706749403
-3.3011079271109742,-1.997338374518842,-4.643859887523007,-3.3572517883233512
-3.3210813108561625,-2.062815681214254,-4.677432405406241,-3.4013583393627997
-3.3417094676683052,-2.1324111884538954,-4.711445988799869,-3.4429107566225197
-3.363033579552844,-2.206099088573732,-4.7458750963660945,-3.4816388897896418
-3.3850945704385813,-2.2838383354374465,-4.780691485263991,-3.5172467636668934
-3.407932953792956,-2.365571440156114,-4.81586395290066,-3.5494110958255707
-3.431588668194517,-2.4512233427943246,-4.851358063858916,-3.5777800218666993
-3.4561009016224604,-2.540700411313929,-4.887135864077583,-3.6019720846716448
-3.4815079057355995,-2.6338896279745887,-4.923155584924299,-3.6215755481455196
-3.5078468020153455,-2.7306580324799565,-4.959371340405754,-3.636148098700218
-3.535153382340145,-2.830852500007301,-4.995732821392757,-3.645216998473578
-3.5634619073402183,-2.9342999404980437,-5.032184991377493,-3.6482797523229182
-3.5928049067451986,-3.040808012768815,-5.068667788900722,-3.6448053451625033
-3.6232129868728866,-3.1501664526350734,-5.1051158423523475,-3.6342360963636122
-3.6547146513992375,-3.262149117810486,-5.141458203315984,-3.615990162792412
-3.687336142577342,-3.376516853360596,-5.177618104943908,-3.5894647007177114
-3.721101311110948,-3.4930212795203475,-5.213512751951085,-3.554039668429935
-3.7560315239061515,-3.6114095984328882,-5.249053148635385,-3.5090822152541996
-3.7921456198904804,-3.7314305077400993,-5.284143970787927,-3.453951558203252
-3.8294599249678813,-3.85284129716103,-5.3186834863699595,-3.3880041945896577
-3.8679883379394915,-3.975416189842539,-5.352563528315856,-3.310599237687289
-3.9077424998379167,-4.098955974477485,-5.385669520692729,-3.2211035936776247
-3.9487320595826914,-4.2232989586949286,-5.417880556629505,-3.118896622890219
-3.9909650491696405,-4.348333261464484,-5.449069522858408,-3.003373848643485
-4.034448381784285,-4.474010455377098,-5.479103261344843,-2.873949195392435
-4.079188486338056,-4.600360572473142,-5.5078427532987675,-2.7300551577027115
-4.125192092062788,-4.727508503995697,-5.5351433048757945,-2.571140226931619
-4.172467177102745,-4.85569185911669,-5.56085470714511,-2.3966628386772593
-4.221024095693912,-4.985280403163097,-5.584821335531883,-2.206081058289001
-4.270876899725543,-5.116797271798445,-5.606882146114773,-1.998837205189032
-4.322044872443528,-5.250942246757198,-5.626870518166664,-1.7743366488799366
-4.3745542949111,-5.388617460180055,-5.644613884655463,-1.5319201269979725
-4.428440469512901,-5.530955920970475,-5.659933085925443,-1.2708292105205787
-4.483750028722605,-5.679353129529992,-5.672641378030649,-0.9901651156502753
-4.540543560017905,-5.835501570042679,-5.682543029187152,-0.6888422174938457
-4.598898575718332,-6.0014266550081565,-5.689431451362091,-0.3655399109046647
-4.658912842268413,-6.179519988260176,-5.693086850471137,-0.018660970023167744
-4.720708042151015,-6.372560139686171,-5.693273460171369,0.3536866237148813
-4.784433643547877,-6.583699659296986,-5.68973659393422,0.7536502724567984
-4.850270640140847,-6.816374487253564,-5.682200091209652,1.183468700449132
-4.9184343850133825,-7.074048760471452,-5.670365404205161,1.6450541384511244
-4.989174872618097,-7.359629284318093,-5.65391486282065,2.1390798552228407
-5.062771165461278,-7.674253196018271,-5.632524064268422,2.6631487207346582
-5.139513697421461,-8.014980443128042,-5.605892577061075,3.208382148561493
-5.219663501852741,-8.370856143547776,-5.5738087555754605,3.7536938613037107
-5.303372063288219,-8.717407727384426,-5.536271816962423,4.257905395139463
