th1 (rad),w1 (rad/s),th2 (rad),w2 (rad/s),a1 (rad/s^2),a2 (rad/s^2)
5.445558293996713,-2.074694775803867,1.5097470697795312,-1.4882641988265055,4.729895685828824,-9.537200366049843
5.424811346238674,-2.0273958189455787,1.4948644277912662,-1.5836362024870039,5.101371351445939,-9.090250573325962
5.404537388049218,-1.9763821054311193,1.4790280657663961,-1.6745387082202634,5.475867800436266,-8.638933749566354
5.384773566994907,-1.9216234274267565,1.4622826786841934,-1.7609280457159269,5.851241464361249,-8.185641521519301
5.365557332720639,-1.863111012783144,1.4446733982270341,-1.84278446093112,6.2254681658228685,-7.732749356417849
5.346926222592808,-1.8008563311249153,1.426245553617723,-1.9201119544952985,6.5966443531927625,-7.282610556687667
5.328917659281559,-1.7348898875929877,1.40704443407277,-1.992938060062175,6.962985643692827,-6.837555619192677
5.3115687604056285,-1.6652600311560595,1.3871150534721481,-2.0613136162541017,7.322823877950704,-6.399895350212691
5.2949161600940675,-1.5920317923765523,1.3665019173096071,-2.1253125697562285,7.674603905561889,-5.971926029398556
5.278995842170302,-1.5152857533209334,1.3452487916120448,-2.1850318300502143,8.016881248070566,-5.555934946720118
5.263842984637092,-1.4351169408402278,1.3233984733115427,-2.2405911795174154,8.348321634170636,-5.1542047860077895
5.24949181522869,-1.3516337244985215,1.3009925615163684,-2.2921332273774935,8.667703186530344,-4.769015581337431
5.235975477983705,-1.264956692633218,1.2780712292425935,-2.339823383190868,8.973921778029082,-4.402643307789951
5.223325911057373,-1.1752174748529272,1.2546729954106848,-2.3838498162687674,9.265999787045425,-4.0573545619887295
5.211573736308844,-1.0825574769824728,1.2308344972479972,-2.4244233618886546,9.543098187742356,-3.7353972137054208
5.2007481615390185,-0.9871264951050492,1.2065902636291106,-2.461777334025709,9.804531633402965,-3.43898733984545
5.190876896587968,-0.8890811787710196,1.1819724902888535,-2.4961672074241634,10.04978594932365,-3.170293158561033
5.181986084800258,-0.788583319277783,1.157010818214612,-2.527870139009774,10.278537264992107,-2.9314170382614924
5.17410025160748,-0.685797946627862,1.1317321168245142,-2.557184309392389,10.490671898163674,-2.724376941856479
5.167242272141201,-0.5808912276462252,1.1061602737305904,-2.5844280788109537,10.686306066090546,-2.551088864301662
5.161433359864739,-0.4740281669853198,1.0803159929424808,-2.6099389674539704,10.865804545852049,-2.41335192233601
5.156693078194885,-0.3653701215267993,1.0542166032679412,-2.6340724866773306,11.029797534522663,-2.3128377585094406
5.153039376979617,-0.2550721461815727,1.027875878401168,-2.657200864262425,11.179195162768266,-2.251085835259841
5.150488655517801,-0.14328019455389002,1.0013038697585437,-2.6797117226150236,11.315199379168455,-2.2295060352370455
5.149055853572262,-0.030128200762205473,0.9745067525323935,-2.702006782967394,11.439313230254125,-2.2493897745676326
5.14875457156464,0.08426493154033578,0.9474866847027196,-2.7245006807130703,11.553347894387123,-2.311930604539698
5.149597220880044,0.199798410484207,0.9202416778955889,-2.747619986758467,11.659428168183426,-2.418255055036142
5.151595204984886,0.31639269216604127,0.8927654780280042,-2.7718025373088286,11.759997436825296,-2.569464290765242
5.154759131906546,0.43399266653429425,0.8650474526549159,-2.797497180216481,11.857823473329564,-2.7666870374792474
5.159099058571889,0.5525709012675899,0.8370724808527511,-2.825164050591274,11.956006701141725,-3.0111442143675147
5.164624767584565,0.6721309682790071,0.8088208403468383,-2.855275492734949,12.057992819610229,-3.3042257996276065
5.171346077267355,0.7927108964751094,0.7802680854194888,-2.888317750731225,12.167591938391574,-3.6475806713423276
5.179273186232106,0.9143868158590251,0.7513849079121765,-2.9247935574446484,12.289006603357416,-4.0432205101152014
5.188417054390697,1.0372768818925993,0.72213697233773,-2.9652257625458005,12.4268713317103,-4.493639318599538
5.198789823209623,1.1615455952097022,0.692484714712272,-3.0101621557317957,12.586306510477554,-5.00195068682742
5.21040527916172,1.2874086603144779,0.662383093154954,-3.06018166260007,12.772989737459643,-5.572045567428855
5.223279365764865,1.4151385576890743,0.6317812765289533,-3.1159021182743585,12.993247851776951,-6.208773933370472
5.237430751341756,1.5450710362068438,0.6006222553462097,-3.1779898576080634,13.254172904898915,-6.918154101798837
5.252881461703824,1.677612765255833,0.5688423567701291,-3.247171398626052,13.563764938900642,-7.70761339460293
5.269657589356382,1.8132504146448394,0.5363706427838686,-3.3242475325720813,13.931103228574447,-8.586262552403017
5.287790093502831,1.9525614469305839,0.5031281674581478,-3.4101101580961113,14.366544773792949,-9.565202764707081
5.307315707972136,2.096226894668513,0.4690270658771867,-3.505762185743182,14.881942731841367,-10.657856156025192
5.328277976918821,2.2450463219869268,0.43396944401975485,-3.612340747303434,15.49086523297034,-11.880294025731612
5.350728440138691,2.39995497431663,0.3978460365467205,-3.73114368756075,16.20877118329145,-13.251504522955816
5.374727989881857,2.5620426861495447,0.360534599671113,-3.863658732790308,17.053054108176607,-14.793478667053567
5.400348416743353,2.7325732272313106,0.3218980123432099,-4.011593519460844,18.042779070646155,-16.53087454082382
5.427674149015666,2.913001017937772,0.2817820771486015,-4.1769022648690814,19.19777672193005,-18.48979587197376
5.456804159195044,3.1049787851570727,0.24001305449991067,-4.361800223588819,20.53646031229821,-20.6948057900077
5.487853947046615,3.310343388280055,0.19639505226402248,-4.5687482814888964,22.071187767693903,-23.162537220329803
5.520957380929415,3.531055265956994,0.15070756944913352,-4.800373653692194,23.799028905194458,-25.88891446586338
5.556267933588985,3.7690455550089386,0.10270383291221158,-5.059262798350828,25.684195605960433,-28.824750831124252
5.5939583891390745,4.025887511068543,0.0521112049287033,-5.34751030666207,27.62606339282634,-31.831202879336853
5.63421726424976,4.302148144996806,-0.001363898137917395,-5.665822335455438,29.404481224575527,-34.60337870320765
5.677238745699729,4.596192957242562,-0.058022121492471775,-6.011856122487514,30.596098349824405,-36.553121491622164
5.723200675272154,4.902153940740806,-0.11814068271734691,-6.377387337403736,30.474841799751605,-36.668967930161436
5.772222214679562,5.206902358738322,-0.1819145560913843,-6.74407701670535,27.974152022952918,-33.46139130118362
5.824291238266945,5.486643878967851,-0.24935532625843781,-7.078690929717186,21.915823312250396,-25.27976264314274
5.879157677056624,5.705802112090355,-0.32014223555560967,-7.331488556148614,11.771188526728935,-11.373507944135858
5.936215698177528,5.823513997357645,-0.3934571211170958,-7.445223635589972,-1.235673765207831,6.567476541574037
5.994450838151105,5.811157259705566,-0.4679093574729955,-7.379548870174232,-13.952525695484109,24.16750235609396
6.05256241074816,5.671632002750725,-0.5417048461747378,-7.137873846613292,-23.131394860322747,36.92009671111487
6.109278730775667,5.440318054147498,-0.6130835846408708,-6.768672879502144,-27.594096988515997,43.198826879613705
6.163681911317142,5.1643770842623375,-0.6807703134358922,-6.336684610706007,-28.267001240930416,44.294132002470704
6.215325682159765,4.881707071853033,-0.7441371595429523,-5.893743290681299,-26.744878627726425,42.41217430037364
6.264142752878295,4.614258285575769,-0.8030745924497653,-5.469621547677563,-24.282458032604158,39.27947778505907
6.310285335734053,4.371433705249727,-0.8577708079265409,-5.0768267698269725,-21.601781071683437,35.882438953027886
6.353999672786551,4.155415894532893,-0.9085390756248106,-4.718002380296694,-19.043293639390356,32.68048459023482
6.395553831731879,3.964982958138989,-0.9557190994277776,-4.391197534394346,-16.736778712274845,29.843825913993296
6.4352036613132695,3.7976151710162407,-0.999631074771721,-4.092759275254413,-14.711063301792777,27.40506204787997
6.473179813023432,3.6505045379983128,-1.040558667524265,-3.8187086547756133,-12.952048906304867,25.338882269019354
6.509684858403415,3.520984048935264,-1.0787457540720211,-3.56531983208542,-11.430541122228497,23.600007104753264
6.544894698892768,3.406678637712979,-1.1143989523928752,-3.3293197610378873,-10.114657061834096,22.139927123447123
6.578961485269898,3.305532067094638,-1.1476921500032542,-3.107920489803416,-8.974863107421582,20.913579140519204
6.612016805940844,3.2157834360204225,-1.1787713549012884,-2.898784698398224,-7.98564773495596,19.881471983033904
6.644174640301048,3.1359269586708627,-1.2077592018852705,-2.6999699785678852,-7.125735164904777,19.009870841603988
6.675533909887757,3.064669607021815,-1.2347589016709495,-2.5098712701518453,-6.377721050281572,18.270238966055263
6.706180605957975,3.0008923965189993,-1.259857614372468,-2.3271688804912927,-5.727525209306351,17.63846955391588
6.736189529923165,2.943617144425936,-1.283129303177381,-2.150784184952134,-5.163829626089525,17.094131746700313
6.765625701367425,2.8919788481650404,-1.3046371450269023,-1.9798428674851307,-4.677566104052677,16.61981396355822
6.794545489849075,2.845203187124514,-1.3244355737017537,-1.8136447278495484,-4.261471890107807,16.200585620440094
6.82299752172032,2.8025884682234357,-1.3425720209802492,-1.6516388716451476,-3.909712436439724,15.82357232117858
6.851023406402555,2.7634913438590383,-1.3590884096967006,-1.4934031484333619,-3.617563659000999,15.477630029114541
6.878658319841145,2.727315707269028,-1.3740224411810342,-1.3386268481422166,-3.3811447162447945,15.153101286595838
6.905931476913835,2.69350426010658,-1.3874087096624563,-1.1870958352762582,-3.197193239800509,14.841636997524677
6.932866519514901,2.661532327708575,-1.3992796680152189,-1.0386794653010114,-3.0628765963384748,14.536068741113775
6.959481842791987,2.6309035617451904,-1.409666462668229,-0.8933187778898737,-2.97563445739984,14.230318271005823
6.985790878409438,2.601147217171192,-1.4185996504471277,-0.7510155951798154,-2.933049397271341,13.919332513566046
7.01180235058115,2.5718167231984785,-1.4261098063989257,-0.6118222700441549,-2.932743307724551,13.599033975580317
7.037520517813135,2.542489290121233,-1.4322280290993672,-0.4758319302883517,-2.9722980839527193,13.2662780474984
7.062945410714348,2.5127663092817056,-1.4369863484022507,-0.34316914981336766,-3.0491993204103776,12.918810295217282
7.088073073807165,2.4822743160776017,-1.4404180399003843,-0.21398104686119485,-3.160801713132812,12.555218497488019
7.112895816967941,2.4506662989462735,-1.4425578503689962,-0.08842886188631466,-3.304314574061886,12.174875895392281
7.137402479957404,2.4176231532056547,-1.4434421389878593,0.033319897067608156,-3.4768054155946064,11.777873824960663
7.161578711489461,2.3828550990497086,-1.4431089400171833,0.1510986353172148,-3.675219058959614,11.364943524993167
7.185407262479957,2.3461029084601126,-1.4415979536640111,0.26474807056714644,-3.8964092533539283,10.93736835648845
7.208868291564558,2.307138815926573,-1.4389504729583396,0.37412175413203097,-4.137179445397684,10.49688884774362
7.231939679723824,2.2657670214725965,-1.4352092554170193,0.47909064260946715,-4.3943291692518365,10.04560381908348
7.25459734993855,2.2218237297800782,-1.4304183489909246,0.5795466808003019,-4.664702567549862,9.585871303295129
7.27681558723635,2.1751767041045795,-1.4246228821829217,0.6754053938332532,-4.945235803576048,9.120213059358806
7.298567354277396,2.125724346068819,-1.417868828244589,0.7666075244268412,-5.233000560774041,8.651226211929131
7.3198245977380845,2.0733943404610784,-1.4102027530003207,0.8531197865461325,-5.525241401353278,8.181505001646277
7.340558541142696,2.0181419264475458,-1.4016715551348593,0.9349348365625954,-5.819405414365286,7.713574886187643
7.360739960407171,1.9599478723038928,-1.3923222067692334,1.0120705854244718,-6.113163265188319,7.24984038126869
7.380339439130211,1.8988162396520096,-1.3822015009149886,1.0845689892371588,-6.404421407992374,6.792547162971569
7.399327601526731,1.8347720255720859,-1.371355811022617,1.1524944608668746,-6.6913257964190604,6.343758143066425
7.417675321782452,1.7678587676078952,-1.3598308664139482,1.2159320422975388,-6.972257895408003,5.905342533604318
7.435353909458531,1.698136188653815,-1.347671545990973,1.2749854676335821,-7.245824143509021,5.478976370958734
7.452335271345069,1.6256779472187248,-1.3349216913146371,1.3297752313431694,-7.51084023804009,5.066152587346164
7.468592050817256,1.5505695448383239,-1.3216239390012054,1.3804367572166312,-7.766311723412832,4.66819849733337
7.48409774626564,1.4729064276041957,-1.307819571429039,1.427118742189965,-8.011412371202374,4.286298493130325
7.498826810541682,1.392792303892172,-1.2935483840071393,1.4699817271212683,-8.245461768112774,3.9215197931128922
7.5127547335806035,1.310337686211044,-1.2788485667359266,1.509196925052397,-8.467903394745512,3.574839237250385
7.525858110442714,1.225658652263589,-1.2637565974854026,1.544945317424901,-8.678284302637962,3.2471693452846613
7.53811469696535,1.1388758092372093,-1.2483071443111535,1.5774170108777477,-8.876237295529952,2.9393821253937698
7.549503455057722,1.0501134362819098,-1.232532974202376,1.6068108321316854,-9.061466306369216,2.6523294230797365
7.560004589420541,0.9594987732182176,-1.2164648658810593,1.6333341263624828,-9.2337354443869,2.3868589164721996
7.569599577152723,0.8671614187743486,-1.2001315246174344,1.6572027155272047,-9.392861974404244,2.1438251830182424
7.578271191340467,0.7732327990303062,-1.1835594974621624,1.678640967357387,-9.538713289298148,1.924095574304376
7.58600351933077,0.6778456661373247,-1.1667730877885885,1.6978819231004307,-9.671207751028188,1.7285509331031295
7.5927819759921436,0.5811335886270428,-1.1497942685575842,1.715167432431462,-9.790319109984562,1.5580814632984759
7.598593311878414,0.48323039752719715,-1.1326425942332696,1.7307482470644469,-9.896084070586411,1.4135783132350528
7.603425615853686,0.384269556821333,-1.1153351117626251,1.7448840301967974,-9.988612456865171,1.2959216505233573
7.607268311421899,0.2843834322526813,-1.0978862714606572,1.757843246702031,-10.068099348827994,1.205966185857043
7.610112145744426,0.18370243876440137,-1.080307838993637,1.7699029085606015,-10.134838511863233,1.1445252398664736
7.61194917013207,0.08235405364576905,-1.0626088099080309,1.7813481609592663,-10.189236429628608,1.1123545363394844
7.612772710668528,-0.019538310650517032,-1.0447953282984381,1.7924717063226612,-10.231826276816005,1.1101369447785312
7.612577327562023,-0.12185657341867707,-1.0268706112352115,1.8035730757704465,-10.263281231402589,1.1384693849368788
7.611358761827836,-0.22448938573270297,-1.0088348804775071,1.8149577696198151,-10.284426624202283,1.1978530480695169
7.6091138679705095,-0.3273336519747258,-0.990685302781309,1.8269363001005103,-10.296250552696804,1.28868798947786
7.605840531450762,-0.43029615750169387,-0.9724159397803038,1.8398231799952889,-10.299912740702597,1.411273012778616
7.601537569875745,-0.5332952849087198,-0.9540177079803509,1.853935910123075,-10.296751598787226,1.5658116090797045
7.596204617026658,-0.636262800896592,-0.9354783488791202,1.8695940262138722,-10.288289625383703,1.7524245468847048
7.5898419890176925,-0.7391456971504291,-0.9167824086169815,1.8871182716827193,-10.276237478397839,1.9711695454383495
7.582450532046188,-0.8419080719344075,-0.8979112259001543,1.9068299671371027,-10.262497235873377,2.222068320333696
7.574031451326844,-0.9445330442931413,-0.8788429262287832,1.9290506503404397,-10.249165547739766,2.5051411803501358
7.564586120883913,-1.047024699770539,-0.8595524197253789,1.954102062143941,-10.23853755681667,2.8204492927528504
7.554115873886207,-1.1494100753387058,-0.8400113991039395,1.9823065550714696,-10.23311263672497,3.1681447335965984
7.5426217731328205,-1.2517412017059555,-0.8201883335532248,2.0139880024074355,-10.23560316066755,3.548528511595525
7.530104361115761,-1.3540972333126309,-0.8000484535291504,2.0494732875233908,-10.248947684628469,3.962116909317445
7.516563388782635,-1.4565867101589156,-0.7795537206539165,2.0890944566165652,-10.27633011060575,4.409716733379911
7.501997521681046,-1.5593500112649732,-0.7586627760877508,2.1331916239503643,-10.321206601654174,4.892510414846812
7.486404021568396,-1.6625620772815148,-0.7373308598482472,2.1821167280988325,-10.387342264069842,5.4121523603659325
7.469778400795581,-1.7664354999222132,-0.7155096925672588,2.236238251702492,-10.478859906662374,5.970878530534742
7.4521140457963595,-1.871224098988837,-0.6931473100502339,2.2959470370078394,-10.600303544284042,6.571631917511932
7.433401804806471,-1.9772271344316774,-0.6701878396801555,2.3616633561829588,-10.756719737339264,7.218207402575252
7.413629533462155,-2.08479433180507,-0.6465712061183259,2.433845430208711,-10.953760339767372,7.915420368651429
7.392781590144104,-2.1943319352027437,-0.6222327518162387,2.5129996338952254,-11.197810720842385,8.669304350989453
7.370838270792076,-2.3063100424111678,-0.5971027554772864,2.59969267740512,-11.496147921254654,9.487343770109732
7.347775170367965,-2.4212715216237144,-0.5711058287032352,2.6945661151062175,-11.85713326388999,10.37874806892868
7.323562455151728,-2.539842854262614,-0.544160167552173,2.798353595795504,-12.290443181960365,11.354772696266199
7.2981640266091015,-2.662747286082218,-0.516176631594218,2.9119013227581663,-12.807339500908748,12.42908901860144
7.2715365537482795,-2.790820681091305,-0.48705761836663636,3.0361922129441807,-13.420974271874746,13.618196836357093
7.243628346937366,-2.925030423810053,-0.4566956962371945,3.1723741813077515,-14.146710954364574,14.941854790813956
7.214378042699265,-3.0664975333536986,-0.424971954424117,3.321792729215891,-15.002416474913996,16.423466086119348
7.183713067365728,-3.2165216981028384,-0.3917540271319581,3.4860273900770844,-16.008624402163523,18.090281420774822
7.151547850384699,-3.3766079421244735,-0.35689375323118727,3.6669302042848324,-17.188363241245458,19.973132995992135
7.117781770963455,-3.548491574536928,-0.320224451188339,3.866661534244754,-18.566238286481646,22.105126687653243
7.082296855218085,-3.7341539574017446,-0.28155783584589145,4.087712801121286,-20.16596191899955,24.51816976603121
7.044955315644068,-3.93581357659174,-0.2406807078346786,4.332894498781599,-22.00478527672367,27.235173918164527
7.0055971798781504,-4.155861429358977,-0.19735176284686262,4.605246237963244,-24.081924706196077,30.253869515369136
6.964038565584561,-4.396680676420937,-0.15129930046723017,4.907784933116935,-26.355726535189334,33.514871355783605
6.9200717588203515,-4.66023794177283,-0.10222145113606082,5.242933646674771,-28.700757935039576,36.841638510756475
6.873469379402623,-4.947245521123226,-0.0497921146693131,5.611350031782336,-30.83243914762684,39.83492318955361
6.823996924191391,-5.255569912599494,0.006321385648510258,6.009699263677872,-32.190023988615984,41.70869362511471
6.771441225065396,-5.577470152485654,0.06641837828528899,6.426786199929019,-31.801130933073658,41.099818303879886
6.7156665235405395,-5.895481461816391,0.13068624028457917,6.8377843829678175,-28.26002637547158,36.03660969736307
6.6567117089223755,-6.178081725571106,0.19906408411425736,7.198150479941448,-20.154649859441232,24.53600311290276
6.594930891666665,-6.3796282241655184,0.2710455889136718,7.4435105110704765,-7.287031663867387,6.313173407580451
6.53113460942501,-6.452498540804192,0.3454806940243766,7.506642245146281,7.93968394235404,-15.274970668295625
6.466609624016968,-6.3731017013806515,0.4205471164758394,7.353892538463325,21.126042803567604,-34.07691780752348
6.402878607003162,-6.161841273344975,0.49408604186047267,7.01312336038809,29.014956738936434,-45.53779749545448
6.341260194269712,-5.871691705955611,0.5642172754643535,6.557745385433545,31.507924508841196,-49.51266707996068
6.282543277210157,-5.556612460867199,0.629794729318689,6.062618714633938,30.459703801658726,-48.57772573483682
6.226977152601485,-5.2520154228506115,0.6904209164650283,5.57684145728557,27.75352396620024,-45.34579996807014
6.174456998372979,-4.974480183188609,0.7461893310378841,5.123383457604869,24.566173510049076,-41.44585298508048
