th1 (rad),w1 (rad/s),th2 (rad),w2 (rad/s)
3.0106065078388946,2.746674299164469,5.647822082165242,1.7312851327763557
3.0380732508305393,2.7530659875581507,5.665134933493006,1.758582589676255
3.0656039107061206,2.7626690162314413,5.682720759389769,1.7864279808629102
3.093230600868435,2.7754202172585343,5.700585039198398,1.8146181237658907
3.1209848030410203,2.791255138092025,5.718731220436057,1.8429435261438791
3.1488973544219405,2.8101075711314345,5.737160655697496,1.8711879747582025
3.176998430133255,2.831909028047961,5.755872535445078,1.899128050313016
3.2053175204137347,2.8565881706945597,5.7748638159482075,1.9265325882057334
3.2338834021206804,2.8840702103101714,5.794129141830265,1.9531621041604854
3.262724104223782,2.9142762869887457,5.813660762871869,1.9787682038527512
3.2918668670936695,2.9471228420418467,5.833448444910397,2.003092996167295
3.321338095514088,2.9825209969502913,5.85347937487207,2.0258685307481104
3.351163305483591,3.0203759540842134,5.8737380601795515,2.0468162819703912
3.381367065024433,3.0605864362744786,5.894206222999255,2.065646703345927
3.411972929387178,3.1030441846336383,5.914862690032715,2.0820588785965213
3.443003371233514,3.147633536728286,5.93568327881868,2.095740298094822
3.474479706600797,3.1942311102515006,5.9566406817996285,2.1063667919360927
3.5064220177033123,3.242705620659382,5.977704349718989,2.113602653372574
3.538849073909906,3.2929178647068467,5.998840376252715,2.117100988453949
3.5717782525569746,3.34472090528564,6.020011386137254,2.1165043291370327
3.605225461609831,3.3979604962182495,6.041176429428624,2.111445547434604
3.6392050665720137,3.4524757884209514,6.06229088490297,2.101549106858299
3.673729824456223,3.508100360781572,6.083306375971554,2.0864326838798575
3.708810828064039,3.5646636198096164,6.104170702810352,2.065709185725101
3.744457464262135,3.621992611172629,6.124827794667603,2.0389891808222815
3.7806773903738615,3.679914283182232,6.145217686475825,2.005883743956488
3.8174765332056837,3.738258236713218,6.16527652391539,1.9660076990194864
3.854859115572816,3.7968599875945745,6.184936600905584,1.9189832177459805
3.8928277154487616,3.8555647560341946,6.204126433083045,1.8644437028308913
3.9313833630091035,3.9142317832207483,6.222770870111353,1.8020378485679998
3.970525680841311,3.972739158339141,6.240791248597033,1.731433732395094
4.010253072424702,4.030989120751016,6.258105585920984,1.6523227478351146
4.0505629636322125,4.088913783476331,6.274628813399335,1.5644231452806463
4.091452101466976,4.146481207388904,6.290273044852142,1.4674829044484385
4.132916913540865,4.203701743285968,6.304947873896626,1.3612816240940009
4.174953930973724,4.260634554247592,6.3185606901375655,1.2456310837599394
4.2175602765162,4.317394236790836,6.331017000975165,1.1203741115804484
4.260734218884108,4.374157479612933,6.342220742090969,0.9853813831459464
4.304475793680238,4.43116973633843,6.352074555922429,0.8405457791856503
4.348787491043622,4.4887519462676035,6.360480013714286,0.6857739421312044
4.393675010506298,4.547307416620504,6.3673377531355975,0.5209746884930543
4.439148084672503,4.607329082434406,6.372547500020528,0.34604394738240074
4.485221375496847,4.669407486835245,6.376007939494352,0.16084589442317596
4.5319154503652,4.7342399754665525,6.377616398438584,-0.03481007884398196
4.579257850119865,4.802641775388474,6.3772682976501445,-0.24119699234759218
4.62728426787375,4.875559832445571,6.374856327726668,-0.4587030648265977
4.676039866198206,4.954090514053908,6.370269297078402,-0.687870426373432
4.725580771338745,5.039502547070761,6.363390592814668,-0.929440799958081
4.775975796809452,5.13326684585646,6.354096184815088,-1.1844095386171
4.8273084652680165,5.23709516497408,6.342252089428917,-1.4540897617377784
4.8796794169177575,5.352989701219569,6.327711191811539,-1.7401885694996628
4.933209313929953,5.483305662381213,6.310309306116542,-2.0448971090634163
4.988042370553765,5.630827924932243,6.2898603350259075,-2.3709948940734686
5.0443506498030874,5.798860104382727,6.266150386085172,-2.721964626246666
5.1023392508469145,5.991317167320128,6.238930739822706,-3.1021032722423447
5.162252422520115,6.212795612846845,6.207909707100282,-3.5165904964922627
5.224380378648584,6.4685562227091955,6.17274380213536,-3.9714197760111327
5.289065940875676,6.764267904379343,6.133029604375248,-4.472974729273574
5.35670861991947,7.105176465674284,6.088299857082513,-5.02677218194875
5.427760384576213,7.493994480672566,6.038032135263025,-5.634375877987547
5.502700329382939,7.926191451995216,5.98168837648315,-6.286620067132412
5.581962243902891,8.380816975658309,5.918822175811825,-6.950528192170451
5.665770413659474,8.806576972497805,5.849316893890121,-7.5495911130090185
5.753836183384452,9.112552251258837,5.77382098276003,-7.9507821705712125
5.844961705897041,9.192940362414092,5.6943131610543185,-7.999961231890944
5.936891109521182,9.005080026277414,5.614313548735409,-7.6329648099560945
6.026941909783956,8.623780396063777,5.537983900635848,-6.953492277133828
6.113179713744594,8.177707634325698,5.46844897786451,-6.14391473753416
6.194956790087851,7.75754882609124,5.4070098304891685,-5.334891585699521
6.272532278348763,7.399164231089223,5.353660914632173,-4.580212093034502
6.346523920659655,7.107257207724139,5.307858793701828,-3.889377623033437
6.417596492736896,6.874970201692504,5.268965017471494,-3.2551037661267244
6.486346194753821,6.692845685729756,5.2364139798102265,-2.6661167939601236
6.553274651611119,6.551924405891246,5.209752811870625,-2.1117421660313775
6.618793895670032,6.4445030396798595,5.188635390210311,-1.5831731182218278
6.683238926066831,6.36410375734109,5.172803659028093,-1.0735927288073002
6.746879963640241,6.305234207177362,5.162067731740019,-0.5779658048617501
6.809932305712015,6.263133157057633,5.156288073691401,-0.09277762936527129
6.872563637282591,6.233559029010552,5.155360297397749,0.38420016947932534
6.934899227572696,6.212631978447828,5.159202299092542,0.8541039653207376
6.9970255473571745,6.1967259275121584,5.167743338745749,1.3171407486423685
7.058992806632296,6.18240349143371,5.180914746232173,1.7727311198354179
7.120816841546633,6.166386394790524,5.198642057430527,2.2196430924101356
7.182480705494538,6.1455542258902,5.220838488354628,2.6561236732086413
7.243936247753441,6.116964561874676,5.247399725086715,3.0800314451765844
7.305105893372187,6.077887624488394,5.278200039538481,3.488970053440787
7.365884769617071,6.0258488971331206,5.313089740072889,3.8804199902910836
7.426143258588402,5.958673725307462,5.3518939399758,4.251864622133266
7.485729995841477,5.87452889194596,5.394412586197133,4.60090605125465
7.544475284760937,5.7719574194292305,5.440421646709679,4.925367004464618
7.6021948589552295,5.64990420375226,5.489675316754325,5.223376163067766
7.658693900992752,5.507731298645225,5.541909078385003,5.493435779223585
7.7137712139792045,5.3452225490667695,5.596843436177239,5.7344716731436165
7.7672234394698725,5.1625777437951115,5.6541881529086755,5.94586651310277
7.818849216907823,4.960396565855542,5.713646818039703,6.12747757084456
7.868453182566379,4.7396525243495375,5.774921593748149,6.279640024373904
7.915849707809874,4.501656958261076,5.837717993991888,6.403156575814632
7.960866277392485,4.248013296914438,5.9017495597500345,6.499273924074048
8.00334641036163,3.980562145892406,5.966742298990775,6.569646684467715
8.043152031820554,3.701318430203953,6.032438765835453,6.6162897658786815
8.080165216122595,3.412402647599256,6.0986016634942395,6.641520948013411
8.114289242598588,3.1159690724078812,6.165016872974373,6.647896280779041
8.145448933322667,2.8141343004424995,6.231495835782163,6.638141732400141
8.173590276327092,2.508909683143485,6.297877253106165,6.615085033844832
8.198679373158527,2.2021409000966834,6.364028103444613,6.581591768694975
8.220700782159494,1.8954572031532662,6.429844021131563,6.540509408827387
8.239655354191026,1.5902318585549577,6.4952491152198375,6.49462226878531
8.255557672776575,1.2875541886990587,6.5601953379076905,6.44661938904763
8.268433214663567,0.9882125473740911,6.624661531798167,6.399076330718046
8.278315340137308,0.6926866918183161,6.6886522951053475,6.354450923692762
8.285242207055491,0.40114742902587025,6.752196804342275,6.315092258614773
8.28925368134575,0.11346114809098962,6.815347726928422,6.283261683083346
8.29038829282666,-0.17080309159358437,6.878180343759256,6.261164213199661
8.288680261910725,-0.4523658613589176,6.940791985891253,6.250988481430162
8.284156603297136,-0.7322302384791277,7.003301870705554,6.254952892243441
8.276834300912345,-1.011675151414174,7.065851399627989,6.275354682254725
8.266717549398203,-1.2922469182156928,7.128604946450536,6.314616460576062
8.253795080216046,-1.5757429343588467,7.191751111056297,6.375320452700943
8.238037650872457,-1.8641747782541676,7.255504315583306,6.460212170522712
8.219395903089914,-2.159686046174942,7.320106437288533,6.572139249006944
8.197799042628166,-2.464379141563471,7.385827829778603,6.713862247250166
8.173155251212531,-2.7799695540456844,7.452966452251105,6.887624470573358
8.145355555672074,-3.107131074717926,7.521842696956838,7.094290191891059
8.114284244924894,-3.4443277222418143,7.592785598875749,7.331763661896921
8.079840967702475,-3.7859013995911783,7.6661032354947185,7.592358217607113
8.041981953706564,-4.119380545484789,7.74202681767079,7.859048238517627
8.000788148251717,-4.422800387124972,7.820617300055966,8.101674251938942
7.956560144380467,-4.664671075323555,7.901634042575355,8.27673748874172
7.909913433627231,-4.810993966746235,7.984401417462773,8.336896410258248
7.861803493959769,-4.840723353023177,8.067770381565355,8.252150835638385
7.8133962604295375,-4.760162443946642,8.15029188992174,8.029600860687173
7.765794635990071,-4.6011036598812804,8.230587898528611,7.710852497789669
7.719783599391258,-4.4032867841431536,8.307696423506508,7.347996520258268
7.675750731549827,-4.198334459506914,8.381176388709092,6.981834839971906
7.633767386954758,-4.004976772027185,8.450994737108811,6.635651349810535
7.593717619234486,-3.8317633267811724,8.517351250606916,6.319112209554418
7.555399985966674,-3.6812264364011313,8.58054237270246,6.0339974547316455
7.518587721602663,-3.5529374239213296,8.640882347249777,5.77833096499682
7.48305834736345,-3.445256335272594,8.698665656899745,5.54869760873285
7.448605784010724,-3.3562097656332646,8.754152632987074,5.341372393796372
7.415043686354391,-3.2838886626501327,8.807566356925037,5.152806719948375
7.38220479972789,-3.2266058132887654,8.859094424124521,4.979799746490673
7.349938741595002,-3.1829404930989624,8.908892421589428,4.819526847175703
7.318109336664013,-3.1517335994082045,8.957087690061185,4.669509363295629
7.2865920006699305,-3.1320633066713945,9.003782783694142,4.527565112363573
7.255271367603217,-3.123214749685188,9.049058434817777,4.391757420559103
7.224039220106365,-3.1246491896566924,9.092976009023367,4.260350348486875
7.192792728209797,-3.135974218417846,9.135579512508237,4.131773344586262
7.161432986025619,-3.1569146421410896,9.1768972459541,4.0045968611046465
7.129863839604208,-3.1872827020472316,9.216943214565147,3.877520079936447
7.097991012583735,-3.2269457396056214,9.25571841536451,3.749372115469641
7.065721555187679,-3.27578909330669,9.293212136519207,3.6191285045871737
7.032963664254612,-3.3336718894753594,9.329403421565079,3.4859451863952806
6.999626945359858,-3.4003735490079126,9.364262873429032,3.34921223448717
6.965623209869779,-3.475529468173591,9.397754995773903,3.208628974283849
6.930867915188044,-3.558555725128905,9.429841285516742,3.064300338439608
6.895282357936755,-3.6485651334875104,9.460484288901139,2.916850871044375
6.85879670660188,-3.7442807493532806,9.489652797611582,2.7675472797340315
6.821353899108347,-3.843957979875193,9.517328270408923,2.6184128759501752
6.7829143193095955,-3.9453320745832934,9.543512399168424,2.472308562025062
6.743460998563763,-4.045612441252522,9.568235484788675,2.332947522094077
6.703004874151238,-4.141546418622399,9.591564960009615,2.204808245849932
6.661589409965013,-4.229569986988646,9.613613042468113,2.09291747521128
6.619293710095127,-4.306049496485223,9.634542217220226,2.0024943581635632
6.576233215130275,-4.367597686732089,9.65456716080186,1.9384786975376198
6.532557238262954,-4.411423847709954,9.673951947777237,1.9050027511458407
6.488442999785854,-4.435659929885853,9.693001975288695,1.904895295208905
6.444086400486996,-4.439599861072863,9.712050928240783,1.9393155593749871
6.399690401876267,-4.4238023377048545,9.731444083834534,2.0075959453231684
6.355452378499218,-4.3900353210121645,9.751520043287766,2.1073293885037727
6.311552025289097,-4.341074822708807,9.772593337172804,2.234682999751838
6.268141277062009,-4.280400494504414,9.794940167170322,2.3848717427042274
6.225337272116965,-4.211847448845554,9.818788884597364,2.5526987386415634
6.183218797628509,-4.139274273904777,9.84431587198378,2.73306817975796
6.141826054889461,-4.066293729432934,9.871646553781359,2.921398946079126
6.1011631175951315,-3.9960914453584957,9.90086054324215,3.113901338145633
6.061202203141547,-3.9313364222775213,9.931999556623605,3.307713761550524
6.0218888389187715,-3.874170847962475,9.96507669423911,3.500921723922648
5.983147130439146,-3.8262581330114425,10.000085911478337,3.692494480720408
5.944884549109032,-3.788866590106407,10.03701085628554,3.8821763128279096
5.906995883207968,-3.7629695485264603,10.07583261941382,4.070363659633557
5.8693661877227035,-3.7493482755654486,10.116536256010155,4.257990477706779
5.831872704967049,-3.748689820760241,10.159116160787223,4.446435485079121
5.794385806759447,-3.7616766525821275,10.203580515638015,4.637458118117198
5.756769040233626,-3.7890683291049485,10.249955096819187,4.833165553171458
5.718878356942576,-3.8317774982049175,10.298286752350903,5.0360107374393905
5.680560581960527,-3.890943471293985,10.348646859725296,5.2488203694464355
5.641651147247587,-3.968006566057741,10.40113506341976,5.474851317565427
5.60197108158701,-4.064785131942159,10.455883576595415,5.717872942486535
5.561323230267588,-4.183553718430513,10.51306230602028,5.982269373164215
5.519487693083283,-4.3271128645424355,10.572884999751922,6.273146433335063
5.476216564437859,-4.49882317186447,10.635616464085272,6.596405174695968
5.431228332719215,-4.7025371868815675,10.701580515832232,6.958691909419075
5.384202960850399,-4.942278187431137,10.771167434926422,7.367019910924295
5.334780178976088,-5.221338772651967,10.844837634035665,7.827615541835735
5.282566791249568,-5.54013051797429,10.923113789454023,8.343067306698662
5.227165486069826,-5.891567541401338,11.00654446252101,8.906087942314999
5.168249810655812,-6.252367839082849,11.09560534194416,9.487622976702438
5.105726132264984,-6.570422714759085,11.190481571711183,10.019448771409378
5.040021905117393,-6.757700254733502,11.290676059425277,10.384297879665882
4.972444902570058,-6.7158032637343466,11.394519038221935,10.451039988669821
4.905286869932715,-6.40866282994176,11.499029438108632,10.174720922120928
4.841200241633297,-5.908841990114686,11.600776647329841,9.659141590022468
4.78211182173215,-5.33634865272923,11.697368063230066,9.070877264237124
4.728748335204858,-4.7752108090151175,11.788076835872436,8.524744566705477
4.680996227114707,-4.258721355483204,11.87332428153949,8.065229579630257
4.638409013559875,-3.791186777698562,11.953976577335792,7.6974819897524185
4.60049714578289,-3.3660218955165986,12.030951397233316,7.41240484246529
4.566836926827723,-2.974143311958563,12.105075445657969,7.198060528656978
4.537095493708137,-2.606939713471906,12.177056050944538,7.0435734237606
4.511026096573418,-2.257047172625163,12.247491785182143,6.9400449514650875
4.488455624847166,-1.918374598894762,12.316892234696795,6.88046900684877
4.469271878858218,-1.585925186876257,12.385696924765282,6.859383953009114
4.453412626989456,-1.2556005246670632,12.454290764295374,6.872504431595245
4.440856621742785,-0.9240429372873988,12.523015808611326,6.916399415589345
4.431616192369911,-0.5885267213171604,12.59217980276722,6.988224290015473
4.425730925156739,-0.24689490336631176,12.662062045667374,7.085498224969659
4.423261976123077,0.10246546553422459,12.732917027917072,7.205916033593445
4.424286630778419,0.46061714778205887,12.804976188253006,7.347186334344668
4.4288928022562395,0.8280437637240904,12.878448051596452,7.506891865309972
4.437173239893481,1.2046071183987976,12.953516970249552,7.682372155076512
4.449219311077469,1.5895015983421494,13.030340691800317,7.870633000828933
4.46511432706089,1.981218533562274,13.109047021808607,8.068290907172496
4.4849265123965125,2.3775352445606908,13.189729930880333,8.271563124886884
4.508701864842119,2.775544040012699,13.272445562129201,8.476314252324123
4.536457305242246,3.1717345306166336,13.357208704652443,8.67816748810881
4.568174650548412,3.5621372818042616,13.443990379533531,8.872681837569761
4.603796023366455,3.94252774101123,13.532717197909228,9.055586063766768
4.643221300776568,4.308677489817167,13.623273058546896,9.223047554534263
4.68630807567474,4.656627636902465,13.715503534092239,9.371942701009848
4.732874352043765,4.982950140148724,13.809222961102337,9.500088857485663
4.782703853445252,5.284960511908965,13.904223849677194,9.606399855831825
4.835553458564341,5.56085155151427,14.000287848235512,9.690938394846771
4.891161974079484,5.8097314660853625,14.09719723218398,9.75485706840931
4.949259288740338,6.031567214286744,14.194745802868074,9.80024018069307
5.009574960883206,6.2270500447483705,14.292748204675004,9.82987490145979
5.071845461330689,6.39741070073897,14.391046953689601,9.846988522900572
5.1358195683380785,6.544214724884017,14.489516838918608,9.854987598551334
5.201261715586918,6.669164533734522,14.588066714904121,9.85722666297792
5.267953360924263,6.773927057223392,14.6866389815339,9.85682277629199
5.335692631496497,6.859996776515032,14.78520720929682,9.85652094364452
5.404292599261647,6.928596272699369,14.883772418733265,9.858606917144964
5.473578561988641,6.980611100363389,14.982358487904715,9.864858867843589
5.543384672992275,7.016553086372727,15.081007076583152,9.876527632384816
5.613550203856002,7.03654556578054,15.179772352907,9.89433583025464
5.683915659513808,7.040324922306966,15.278715711209546,9.918488162377171
5.754318908736877,7.0272544600189075,15.377900592833319,9.948687873240461
5.824591453337066,6.9963486059765305,15.477387471565724,9.984157179603569
5.894554939396832,6.946307391496977,15.57722904336176,10.023662145850158
5.964018013311802,6.875562838714807,15.67746566482026,10.065544843323126
6.03277364169895,6.78234007432733,15.778121113253492,10.10776751066205
6.100597042442223,6.664736467022256,15.879198788360114,10.147974619547263
6.167244407112445,6.520821566727088,15.980678534555587,10.18357894165045
6.232452622779716,6.348758843629091,16.08251432397209,10.211876543468149
6.295940211216007,6.14694701921786,16.184633089406773,10.230192783963313
6.3574096814081855,5.914174248417251,16.286935017246407,10.2360567547369
6.416551423892358,5.649773080865168,16.389295584793775,10.227395524191365
6.47304915470101,5.353759060793202,16.491569540035687,10.202732982465985
6.526586745308942,5.026932525055039,16.59359686986035,10.161372606430346
6.576856070559492,4.670923226792894,16.695210595924653,10.103540971039603
6.623565302827421,4.288161943697446,16.796246005635048,10.030470942336448
6.666446922264395,3.881772176019977,16.896550715058414,9.944410793033052
6.705264644024595,3.4553868556562493,16.995994822988745,9.848557020855932
6.739818512581158,3.0129068710174107,17.094480393197305,9.746921938037447
6.769947581291332,2.5582269690330266,17.19194961257768,9.644158869988793
6.795529850981662,2.094957803799732,17.28839120127757,9.54537518423591
6.816479429019659,1.6261698122232275,17.38384495311993,9.455964970081459
6.832741127141891,1.1541763206126805,17.478404602820746,9.381489515596762
6.844282890348018,0.6803622099157421,17.572219497976715,9.327626830344773
6.851086512447176,0.20505326942856977,17.665495766280163,9.300204008857664
6.8531370451414615,-0.2725878376247101,17.75849780636874,9.305320503177988
