th1 (rad),w1 (rad/s),th2 (rad),w2 (rad/s)
4.733524401630832,-2.402841163785942,2.848689780307767,-3.0280507849360134
4.7094959899929725,-2.3414251983448904,2.818409272458407,-2.9824622851127924
4.686081738009523,-2.2792665613629595,2.788584649607279,-2.9419809667489876
4.6632890723958935,-2.216602237915249,2.759164839939789,-2.9065487713704927
4.641123050016741,-2.153653397911408,2.730099352226084,-2.8760947218019095
4.619586516037627,-2.0906266444682866,2.7013384050080647,-2.8505369434871515
4.5986802495929435,-2.027715259087557,2.672833035573193,-2.8297846332430407
4.578403097002068,-1.9651004226930482,2.6445351892407625,-2.813739957647021
4.558752092775138,-1.9029523960941197,2.6163977896642923,-2.802299868299377
4.539722568814197,-1.8414316474574746,2.5883747909812986,-2.795357825289407
4.521308252339622,-1.7806899178449787,2.5604212127284045,-2.792805423398792
4.503501353161172,-1.7208712187858362,2.5324931584944164,-2.7945339179692206
4.486292640973314,-1.6621127581893467,2.504547819314724,-2.800435649022599
4.469671513391421,-1.6045457926697435,2.476543462824498,-2.8104053632240333
4.453626055464723,-1.5482964055512094,2.448439409192258,-2.8243414336835184
4.438143091409211,-1.4934862104521358,2.4201959948554226,-2.8421469774508212
4.42320822930469,-1.4402329804112488,2.3917745250809146,-2.8637308699002144
4.408805899500577,-1.3886512020042887,2.3631372163819124,-2.8890086540368354
4.394919387480535,-1.3388525527868336,2.334247129841544,-2.917903341069517
4.381530861952666,-1.2909462986502795,2.305068096430849,-2.9503460963437016
4.368621398966163,-1.245039605239961,2.275564635467412,-2.986276801840364
4.356171002913764,-1.2012377543823187,2.2457018674490086,-3.025644482817824
4.344158625369941,-1.1596442524040314,2.21544542262083,-3.068407581662668
4.3325621828459004,-1.1203608121766904,2.1847613468042035,-3.1145340564458914
4.321358574724133,-1.0834871845358303,2.1536160062397447,-3.164001274834012
4.310523702878775,-1.049120807226932,2.1219759934914046,-3.2167956656272123
4.300032494806505,-1.0173562305257593,2.0898080368351324,-3.2729120799984335
4.2898589325012475,-0.9882842679567085,2.057078916035148,-3.332352802175915
4.27997608982168,-0.96199080788874,2.023755388013389,-3.3951261345311043
4.270356181742793,-0.9385552070622601,1.989804126668078,-3.4612444645217213
4.26097062967217,-0.9180481702250549,1.9551916820228608,-3.530721700508475
4.25179014796992,-0.9005290011438646,1.919884465017776,-3.6035699401187777
4.242784857958481,-0.8860420897325566,1.8838487656165883,-3.679795208921256
4.233924437061155,-0.8746124788200997,1.8470508135273758,-3.759392079621179
4.225178312272955,-0.8662403338656991,1.809456892731164,-3.8423369546081645
4.216515908934298,-0.8608941225558291,1.7710335231850824,-3.928579770661142
4.207906967708739,-0.8585023031733048,1.731747725478471,-4.018033869095351
4.199321944677006,-0.8589433276602055,1.6915673867875174,-4.110563775539812
4.190732511400404,-0.862033797127614,1.6504617490321192,-4.205970662472384
4.182112173429128,-0.8675146775949918,1.6084020424073953,-4.303975340878929
4.173437026653178,-0.8750356095120312,1.565362288998606,-4.4041987665988325
4.164686670558058,-0.8841375476203368,1.5213203013326178,-4.50614027912699
4.155845295081854,-0.894234271854365,1.4762588985413478,-4.6091541467514086
4.146902952363311,-0.9045937376346506,1.4301673570738338,-4.712425502202352
4.137857014986964,-0.9143207982514314,1.3830431020518104,-4.814947438146494
4.128713807004449,-0.9223435243307427,1.3348936276703454,-4.915501887565084
4.119490371761142,-0.9274061165821402,1.2857386087946945,-5.012647888311208
4.11021631059532,-0.9280721464269981,1.2356121299115823,-5.104721795873221
4.10093558913105,-0.9227423698355731,1.18456491195285,-5.189854732259548
4.091708165432695,-0.9096913586894011,1.1326663646302546,-5.266012696511505
4.082611251845801,-0.887126335609025,1.0800062376651396,-5.331063883401038
4.073739988489711,-0.8532695580812573,1.0266955988311293,-5.382875443293214
4.065207292908899,-0.8064622210316887,0.9728668443981972,-5.4194379412930775
4.057142670698582,-0.7452833396952155,0.9186724649852663,-5.4390103393738904
4.04968983730163,-0.6686721633764696,0.8642823615915274,-5.440272266829557
4.043003115667865,-0.5760386092403986,0.8098796389232318,-5.4224651565177915
4.037242729575461,-0.46734451200074334,0.7556549873580538,-5.38550135894957
4.032569284455454,-0.343140400714001,0.7017999737685581,-5.330022164744576
4.029137880448315,-0.20454835618653147,0.6484997521211123,-5.2573922533998205
4.02709239688645,-0.05319026315619385,0.5959258295871142,-5.169628338986867
4.026560494254888,0.108929733406114,0.5442295461972455,-5.069271158530322
4.027649791588948,0.2795721355163405,0.4935368346119423,-4.959219340770021
4.0304455129441115,0.4564181892618877,0.4439446412042421,-4.842548646534934
4.03500969483673,0.6372157948135846,0.39551915473889276,-4.72233970010895
4.041381852784866,0.8199003773685646,0.34829575773780325,-4.601532480152898
4.049580856558552,1.0026823603979709,0.30228043293627427,-4.482818507622332
4.059607680162531,1.184099427641838,0.25745224786005094,-4.36857408770304
4.071448674438949,1.3630369360957464,0.21376650698302055,-4.260831826517837
4.085079043799907,1.538723002742286,0.17115818871784216,-4.161283764401101
4.10046627382733,1.7107059829198945,0.12954535107383114,-4.071307852026382
4.117573333656528,1.8788217617903078,0.08883227255356732,-3.99200964528466
4.136361551274431,2.043157100774467,0.04891217610072072,-3.9242723366142336
4.156793122282176,2.2040137587736264,0.00966945273457838,-3.8688099624938297
4.178833259869912,2.3618766242845797,-0.02901864689035992,-3.826220389809143
4.202452026112758,2.517387861950153,-0.06728085078845135,-3.7970362368541086
4.2276259047322595,2.671328176498195,-0.10525121315699243,-3.781773128549769
4.2543391864972415,2.8246057252044716,-0.14306894444249013,-3.780975619979556
4.282585243749287,2.978252921007218,-0.1808787006422857,-3.7952617992108117
4.312367772959359,3.1334313012174952,-0.2188313186343938,-3.8253680678097397
4.343702085971533,3.2914447289640427,-0.2570849993124912,-3.8721959560291457
4.376616533261174,3.4537613827328597,-0.29580695887278263,-3.9368630930022825
4.411154147088503,3.622045196156148,-0.3351755898028055,-4.020760603075525
4.447374599050065,3.7981975109352226,-0.3753831958335607,-4.125619124965875
4.485356574159417,3.9844094586993126,-0.41663938708321946,-4.25358504960379
4.52520066874641,4.18322448831795,-0.4591752375792574,-4.4073067569132105
4.56703291362959,4.397607431968987,-0.5032483051483895,-4.5900261025102145
4.61100898794928,4.631009278260945,-0.5491485661734916,-4.805659959246299
4.657319080731889,4.887400586626956,-0.5972051657659546,-5.058833491379848
4.706193086598159,5.171211256313584,-0.647793500679753,-5.354776994913543
4.757905199161295,5.487040220448165,-0.7013412706288885,-5.69889353797986
4.812775601365776,5.838849197092771,-0.7583302060086872,-6.095594117741355
4.871164093336704,6.228078539463622,-0.8192861471861007,-6.5456083517183234
4.93344487873134,6.649713540903175,-0.884742230703284,-7.040401981947758
4.999942014140371,7.085118361705434,-0.9551462505227615,-7.552034860919333
5.070793197757426,7.491999306734631,-1.0306665991319548,-8.018966670331658
5.145713190824772,7.798843945552762,-1.1108562658352714,-8.338151807653729
5.223701630280299,7.923538740646529,-1.1942377839118088,-8.391173058429013
5.302937017686764,7.827715555105772,-1.278149514496099,-8.120738734281323
5.381214173237821,7.558524284605166,-1.3593569018389122,-7.5897251620737
5.456799416083873,7.212973044979832,-1.4352541534596492,-6.931581485860171
5.528929146533672,6.870587866718894,-1.504569968318251,-6.256060354498097
5.597635025200861,6.570485887004269,-1.567130571863232,-5.616882316618133
5.663339884070904,6.323812823247803,-1.6232993950294134,-5.028843446614749
5.726578012303382,6.129071084106676,-1.6735878294955608,-4.48907204435036
5.787868723144449,5.980645335198178,-1.7184785499390645,-3.9888881171208386
5.8476751764964305,5.872351006385261,-1.7583674311102728,-3.5187765903780193
5.9063986865602836,5.798625044039642,-1.793555197014053,-3.070102882207785
5.96438493700068,5.754777499961158,-1.824256225836131,-2.6355374071446027
6.021932712000291,5.73691317839162,-1.850611599907577,-2.209034074989479
6.079301843784207,5.741759695171256,-1.8727019406574716,-1.785690654987539
6.13671944073592,5.76648670922501,-1.8905588472073471,-1.3616076399059738
6.19438430782817,5.808543317323851,-1.904174923606407,-0.9337803640161244
6.252469741001409,5.865520161414366,-1.9135127272465682,-0.5000284174239635
6.311124942615553,5.935036707955556,-1.9185130114208078,-0.05895523289126858
6.370475309695109,6.014653293239027,-1.9191025637497205,0.3900731708763287
6.430621842627499,6.101808220804148,-1.9152018320409572,0.8469424375695914
6.49163992483554,6.193780901453853,-1.9067324076652612,1.310809057048687
6.553577733850078,6.2876820487892955,-1.8936243170947744,1.7801351175229359
6.616454554337971,6.380471003622864,-1.8758229659195451,2.252746716731278
6.680259264374199,6.46899838324053,-1.8532954987522323,2.725920304654772
6.744949248206605,6.5500697519282935,-1.8260362957056846,3.196496417089198
6.810449945725888,6.620523458239738,-1.7940713315347927,3.661015138779489
6.876655180308285,6.677313888239737,-1.7574611801469977,4.115863203909117
6.943428319190683,6.717590781891073,-1.7163025481079066,4.557419942328092
7.010604227009593,6.738766302057802,-1.6707283486846256,4.98218905195304
7.077991890030171,6.738564143627375,-1.6209064581650952,5.386905573279707
7.145377531466445,6.715048595041919,-1.5670374024322982,5.768611932221728
7.212528017416864,6.666635302552545,-1.5093512831100808,6.124702442804086
7.27919437044239,6.592088687462998,-1.44810425868204,6.452940956746604
7.34511525731702,6.490512873314266,-1.383574849114574,6.751460302132486
7.410020386050163,6.361343271898588,-1.3160602460932491,7.0187540671516055
7.473633818769149,6.204344684091867,-1.2458727054217331,7.253670952605842
7.535677265610068,6.019619206838955,-1.1733359958956746,7.455419572231674
7.595873457678458,5.807623900728408,-1.0987818001733578,7.623587767592891
7.653949696685742,5.569194666085968,-1.022545922497429,7.758175952943726
7.709641643346601,5.305569742024365,-0.9449641629679917,7.859639530682572
7.762697340766845,5.018404299922157,-0.866367767661166,7.928931840505438
7.812881383766067,4.709767249073997,-0.7870784492561116,7.9675371499025935
7.859979056256807,4.382112861909372,-0.7074030777570857,7.977483351144291
7.903800184875901,4.038223045667484,-0.6276282442456428,7.961326406185328
7.944182415332576,3.6811204988864725,-0.5480149801837895,7.922102796328062
7.980993620321441,3.3139577021453483,-0.46879395222050885,7.863251446885574
8.014133197342895,2.939890666038521,-0.39016143775165313,7.788511688896691
8.04353210400328,2.5619487064468283,-0.3122763208626862,7.701807694966318
8.069151591067747,2.182911762990882,-0.23525824391302302,7.607131728956037
8.090980708697657,1.805204988905548,-0.15918692662346265,7.508438265831648
8.109032758586713,1.4308170703888765,-0.08410254396514616,7.409558908776047
8.1233409292906,1.0612448029202537,-0.01000695487738569,7.3141447820368635
8.133953377319804,0.6974626882952184,0.06313449294298294,7.225639559703723
8.140928004202756,0.3399133367988622,0.13539088854002018,7.147283227987282
8.144327137570745,-0.011487426416295132,0.20686372081989302,7.082144516965219
8.144212263306581,-0.3573376177529304,0.2776851659895452,7.033178798637775
8.140638887129052,-0.6987349758962486,0.3480169539759229,7.00330796201197
8.13365153737009,-1.0372673160228825,0.41805003359604265,6.995518927640484
8.123278864209862,-1.375011187174065,0.4880052228724475,7.012977373781413
8.109528752338122,-1.7145396336412175,0.5581349966102617,7.059151793847318
8.09238335600171,-2.058934428670839,0.6287265145487348,7.1379381514216735
8.071794011715001,-2.4117875725526026,0.7001058960629516,7.253763133529387
8.047676135989475,-2.777155339300128,0.7726435273982455,7.411616191136595
8.019904582596473,-3.159384039885628,0.8467596893096114,7.6169008696269795
7.9883107421976165,-3.562637840418879,0.9229286980058813,7.874873299493872
7.952684363793428,-3.989789331771556,1.00167743100082,8.189198883955699
7.912786470475712,-4.440048253223219,1.0835694198403771,8.558756083754512
7.86838598794348,-4.9043765597128015,1.1691569806779223,8.971346102590488
7.819342222346352,-5.357957219594796,1.2588704417038272,9.393241363271756
7.765762650150404,-5.751741842229666,1.3528028553365448,9.75729960114153
7.708245231728108,-6.013379315236048,1.45037585134796,9.96386860419824
7.648111438575747,-6.075721342660191,1.5500145373899425,9.919746904197195
7.587354225149145,-5.928400721264001,1.6492120064319145,9.609028864873626
7.528070217936505,-5.634932364935212,1.7453022950806507,9.116281786839318
7.471720894287153,-5.2842583578767774,1.836465112949044,8.559749264984598
7.4188783107083855,-4.939657120519981,1.9220626055988899,8.021896796419618
7.369481739503185,-4.6300339360428175,2.002281573563086,7.5384539465529645
7.323181400142757,-4.362978007243545,2.0776661130286156,7.116764445569336
7.279551620070322,-4.136747625364847,2.148833757484309,6.752170819982672
7.238184143816674,-3.9465936812800453,2.2163554656841358,6.436474850381404
7.198718207003873,-3.787399828902168,2.2807202141879497,6.161359238687893
7.160844208714852,-3.6545996333841915,2.3423338065748287,5.9194993863669545
7.12429821238101,-3.5443964036729896,2.401528800438498,5.704766503060454
7.08885424834428,-3.453731283681876,2.4585764654691027,5.512119850303158
7.054316935507461,-3.3801769475059453,2.5136976639721342,5.337420717568474
7.020515166032402,-3.3218222449824637,2.567071871147819,5.177251149514187
6.987296943582577,-3.277168584564885,2.618844382642961,5.028762661568862
6.954525257736928,-3.245041809057398,2.6691320092586497,4.8895593538919435
6.9220748396463545,-3.224517196435865,2.718027602797569,4.7576134264994785
6.889829667681996,-3.2148532869230126,2.765603737062564,4.631210101663731
6.857681134812766,-3.2154298583584504,2.811915838079201,4.508919789093485
6.825526836229181,-3.225685594500896,2.8570050359701358,4.389596499223472
6.793269980284172,-3.2450516084442556,2.9009010009623704,4.272402268437819
6.760819464199729,-3.272878166067959,2.9436250236467485,4.156857117397689
6.728090682539049,-3.308354093929493,2.9851935948207253,4.042912171262819
6.6950071415997545,-3.350421932396971,3.0256227165333534,3.9310393316416787
6.661502922275785,-3.3976972373733276,3.06493310984977,3.8223238328923017
6.627525949902052,-3.448407283974554,3.1031563481786932,3.718536502358516
6.593041877062306,-3.5003713241859824,3.1403417132022784,3.6221526664015613
6.558038163820446,-3.551048340852461,3.176563239866294,3.536278980939323
6.522527680411922,-3.597674350453157,3.2119260296756873,3.464454733175786
6.48655093690739,-3.637495626903482,3.246570577007445,3.410316539289714
6.450175980638355,-3.6680766494680115,3.2806737424003423,3.3771553093870628
6.413495214143675,-3.687629432978015,3.3144452954942127,3.367441500432652
6.376618919813895,-3.6952885229278696,3.348119710498539,3.3824281478699083
6.339666034584616,-3.691258020319267,3.3819439919772383,3.421939167871418
6.302753454381423,-3.6767883106435493,3.4161633836559524,3.4844054183415927
6.265985571274988,-3.653989736394706,3.4510074378393685,3.567138676877539
6.229445673911041,-3.6255365586746517,3.486678824608144,3.6667659589943034
6.1931903083242945,-3.594337848202895,3.523346484198087,3.7797123013540332
6.157246929842265,-3.563246434870908,3.5611436072116276,3.9026284418196986
6.121614465493556,-3.5348510869225516,3.6001698916298244,4.032698451517105
6.086265954624331,-3.511365619321631,3.6404968761449954,4.167809082181044
6.051152298431115,-3.494603984623693,3.682174966966806,4.306599002184266
6.0162062585848775,-3.4860177552712197,3.7252409569886487,4.448424586649267
5.981346081032165,-3.4867705674954284,3.7697252028551413,4.593281444577849
5.946478375357211,-3.497828847494869,3.81565801730092,4.741713833143386
5.9115000868822625,-3.520055257936665,3.8630751556323535,4.894733882920544
5.876299534302896,-3.5542980124532546,3.912022494461559,5.053763263207473
5.8407565541783635,-3.601474295778967,3.9625601270936337,5.220603303328625
5.804741811220574,-3.662649338069847,4.01476616012692,5.397435795826173
5.768115317839876,-3.7391145314395535,4.068740518085181,5.586855099564998
5.7307241725254805,-3.8324686809670907,4.124609069080831,5.79193181594562
5.69239948571581,-3.944706107104645,4.182528387240287,6.016308146309687
5.652952424644763,-4.078313310297491,4.242691468703384,6.264323513800395
5.612169291541788,-4.236370512996316,4.305334703841388,6.541163296643197
5.5698055864118245,-4.422641298786607,4.37074633680782,6.853007459754319
5.525579173423958,-4.641602871262785,4.4392764114053636,7.2071157995496264
5.479163144711331,-4.898299044941415,4.51134756940086,7.611691843217854
5.430180154261916,-5.197740526323706,4.587464487833038,8.07515215428709
5.378202748998679,-5.543240180899504,4.668216009375909,8.603962622030643
5.322770347189684,-5.932423471234385,4.754255635596215,9.197301368574676
5.26344611247734,-6.34874515541329,4.846228649281962,9.83552633510641
5.199958660923207,-6.746548423678988,4.944583912633027,10.459659140653152
5.132493176686418,-7.034878474011616,5.049180504039558,10.948985164319188
5.062144391946301,-7.088523877522468,5.15867035568275,11.136122196000331
4.991259153171076,-6.82708889026095,5.270031577642753,10.915879626485946
4.922988264268467,-6.306805868304024,5.379190373907612,10.370579136567592
4.859920205585427,-5.67565488950936,5.482896165273288,9.705754402850133
4.803163656690333,-5.049712031917179,5.5799537093017895,9.079769638701192
4.752666536371161,-4.476160878327844,5.670751405688802,8.555356344560208
4.707904927587883,-3.9613155461343768,5.756304969134404,8.139831011586121
4.66829177212654,-3.4967556679159144,5.837703279250265,7.821322134259348
4.633324215447381,-3.0710685062266743,5.915916500592859,7.584681598544832
4.602613530385114,-2.6736999850410474,5.991763316578307,7.4165011678742685
4.575876530534704,-2.295818770430656,6.06592832825705,7.306083442063293
4.552918342830398,-1.9302498782051858,6.138989162677683,7.245185791387374
4.533615844048346,-1.5711954654244704,6.211441020591557,7.2274979550737966
4.517903889394101,-1.213965762629365,6.283716000142294,7.24813850261906
4.505764231767808,-0.8547767528242618,6.3561973851684845,7.303233085781842
4.497216464239565,-0.4906194929534157,6.4292297160263026,7.389571444928063
4.492310269310031,-0.11919206743288085,6.503125430475583,7.504325415697976
4.491118348635702,0.2611173952030832,6.578168684632563,7.644811394184079
4.493729522587732,0.651208367174255,6.654616798574404,7.808286458137044
4.500241606259475,1.051218623118542,6.732699663155774,7.991774158955947
4.51075379249066,1.4604623367194884,6.812617404745334,8.19192288163069
4.525358415857855,1.8773729311784506,6.894536633561641,8.404906064452005
4.544132145169639,2.2994712872916865,6.978585694206161,8.626378627648227
4.567126858042556,2.7233819147885074,7.064849480482643,8.851506289786048
4.5943606771904415,3.1449185116479623,7.153364543380503,9.075082264897954
4.625809862306921,3.559254024388168,7.244115366029483,9.291737533694075
4.661402402550803,3.961177801102198,7.337032741366424,9.496236075494684
4.701014180561825,4.3454245873661,7.431995102121371,9.683827077030335
4.7444684264354855,4.707040558904531,7.528833372891674,9.850607031598429
4.791538832024531,5.041736250064824,7.627339443207658,9.993832665335438
4.84195619452518,5.346171412445877,7.727277769861012,10.112127079763965
4.895417908649638,5.618126136849861,7.828399040658652,10.205538732465005
4.951599170018137,5.856534498075822,7.930454427983301,10.275442103807517
5.010164514998896,6.06138489345055,8.033208849021376,10.324301076634498
5.070778363933401,6.233516169518783,8.136451859787721,10.355340851632809
5.133113525628589,6.374353378419924,8.24000526830405,10.372184769889952
