th1 (rad),w1 (rad/s),th2 (rad),w2 (rad/s),a1 (rad/s^2),a2 (rad/s^2)
5.22838117970524,1.4941054499533002,1.6905409907991582,2.207017804480846,7.97011301580551,-3.2388656082644474
5.243322234204773,1.5738065801113552,1.7126111688439667,2.1746291483982017,7.7365717159896175,-3.4830596117232777
5.259060300005887,1.6511722972712515,1.7343574603279488,2.139798552280969,7.4943486682376035,-3.737284918101065
5.275572022978599,1.7261157839536274,1.7557554458507585,2.102425703099958,7.243066052250549,-4.00194114803073
5.2928331808181355,1.798546444476133,1.776779702881758,2.062406291619651,6.982271328242312,-4.277580633562902
5.310818645262897,1.8683691577585562,1.7974037657979545,2.0196304852840217,6.711463956123135,-4.56486364462401
5.329502336840482,1.9354837973197876,1.8176000706507947,1.9739818488377816,6.43012655784502,-4.8645080723364735
5.348857174813681,1.9997850628982379,1.8373398891391726,1.925336768114417,6.137759891435844,-5.177234546160835
5.368855025442663,2.061162661812596,1.8565932568203167,1.8735644226528085,5.833920983039506,-5.503708018297553
5.389466652060789,2.119501871642991,1.8753289010468448,1.818527342469833,5.5182637187681145,-5.84447694333021
5.410661670777219,2.1746845088306723,1.8935141744715431,1.7600825730365308,5.190581120769008,-6.199911325277895
5.432408515865526,2.2265903200383623,1.9111150002019084,1.698083459783752,4.850848415125616,-6.570141102755063
5.45467441906591,2.2750988041896183,1.928095834799746,1.6323820487562013,4.499265841680502,-6.954996592326634
5.477425407107806,2.3200914626064235,1.9444196552873079,1.562832082832935,4.136299962310168,-7.353952997563525
5.50062632173387,2.361454462229525,1.9600479761156373,1.4892925528572998,3.762722006270393,-7.766081293672369
5.524240866356165,2.399081682292229,1.9749409016442103,1.411631739920576,3.3796415682406193,-8.190008081179277
5.548231683179088,2.432878097974635,1.9890572190434161,1.3297316591087833,2.9885337736754507,-8.623887223107964
5.572560464158834,2.46276343571139,2.002354535634504,1.2434927868777037,2.591257881242453,-9.065386186157323
5.597188098515948,2.4886760145238145,2.014789463503281,1.1528389250161304,2.1900652431325227,-9.511689940529427
5.622074858661186,2.51057666695514,2.0263178527534422,1.0577220256108362,1.7875946326993977,-9.959524979259895
5.647180625330738,2.528452613282134,2.0368950730095507,0.9581267758182372,1.3868532143167123,-10.40520544913422
5.672465151463559,2.5423211454253014,2.0464763407677333,0.854074721326895,0.9911819024181779,-10.844702513366144
5.697888362917812,2.552232964449483,2.0550170879810024,0.7456276961932335,0.6042045485346557,-11.273736892501809
5.7234106925623065,2.5582750099348295,2.0624733649429348,0.6328903272682155,0.2297612955936727,-11.687893095000462
5.7489934426616545,2.560572622890766,2.068802268215617,0.5160113963182109,-0.12817249367560068,-12.082752238641323
5.774599168890562,2.55929089795401,2.073962382178799,0.39518387393179766,-0.4655791670866029,-12.454038710193233
5.800192077870102,2.5546351062831443,2.077914220918117,0.27064348682986533,-0.778499856707965,-12.797774383584951
5.825738428932934,2.5468501077160646,2.0806206557864155,0.14266574299401583,-1.0631389706887708,-13.110432907012495
5.851206930010094,2.536218718009177,2.0820473132163557,0.011561413923890873,-1.315966639003985,-13.389085863385139
5.876569117190186,2.523059051619137,2.082162927355595,-0.12232944470996052,-1.5338132998091616,-13.631532557473584
5.9017997077063775,2.5077209186210454,2.0809396329084953,-0.25864477028469635,-1.7139507374571887,-13.836405872821386
5.926876916892588,2.4905814112464735,2.0783531852056485,-0.39700882901291024,-1.8541545108532684,-14.00324806879567
5.951782731005053,2.4720398661379406,2.0743830969155193,-0.5370413097008669,-1.952743806344911,-14.1325524510493
5.976503129666432,2.4525124280744914,2.0690126838185106,-0.6783668342113599,-2.0085962119292775,-14.225769353574364
6.001028253947177,2.432426465955199,2.062229015476397,-0.8206245277471036,-2.021136584745294,-14.285277557484871
6.025352518606729,2.412215100107746,2.0540227701989258,-0.9634773033219524,-1.9903008858884932,-14.314324853234998
6.0494746696078066,2.392312091248861,2.0443879971657064,-1.1066205518543024,-1.91647739718657,-14.316943659237573
6.073397790520295,2.3731473172769952,2.0333217916471633,-1.249789988446678,-1.8004289515939231,-14.297849230106287
6.097129263693065,2.355143027761056,2.0208238917626966,-1.392768480747741,-1.6432005896123862,-14.262328900345407
6.120680693970676,2.338711021864932,2.0068962069552194,-1.535391769751195,-1.4460173483798244,-14.216130993972769
6.144067804189325,2.324250848381134,1.9915422892577075,-1.6775530796909226,-1.2101767111114616,-14.165361562088917
6.167310312673136,2.3121490812700194,1.9747667584607982,-1.8192066953118118,-0.9369396596664954,-14.116396136840738
6.190431803485836,2.3027796846733546,1.95657469150768,-1.9603706566802193,-0.6274233863175087,-14.075812401535243
6.21345960033257,2.2965054508101796,1.9369709849408778,-2.101128780695572,-0.28249765378864805,-14.050348270961548
6.236424654840672,2.293680474272293,1.9159596971339221,-2.2416322634051875,0.09731433364734565,-14.046888529384393
6.259361459583395,2.2946536176087666,1.8935433744998702,-2.3821011486990313,0.5119307621989195,-14.07248201719562
6.282307995759482,2.299772925230756,1.8697223630128799,-2.5228259688709875,0.9618028934841371,-14.134390461158908
6.30530572501179,2.3093909541655973,1.84449410332417,-2.6641698734825767,1.4480054650715104,-14.240169406081565
6.3283996345534455,2.323871008816312,1.8178524045893443,-2.806571567543392,1.972328072375394,-14.397781241746083
6.351638344641609,2.343594289540066,1.7897866889139102,-2.950549379960853,2.5373697663621786,-14.615739834167892
6.37507428753701,2.3689679872036877,1.7602811951143018,-3.096706778302532,3.1466384222487944,-14.903285413649813
6.398763967409047,2.4004343714261758,1.7293141273312764,-3.24573963243903,3.8046547172448584,-15.270586537596813
6.422768311123309,2.4384809185986245,1.696856731006886,-3.3984454978149983,4.517057086361614,-15.728962087091334
6.447153120309295,2.4836514894622406,1.662872276028736,-3.5557351186859116,5.290697508757404,-16.291108544348052
6.471989635203918,2.5365584645498145,1.6273149248418768,-3.718646204129392,6.133706081880676,-16.971303003913025
6.497355219849416,2.5978955253686213,1.590128462800583,-3.8883592341685222,7.055480895948137,-17.785524751547904
6.523334175103102,2.6684503343281025,1.5512448704588977,-4.066214481684002,8.066521297960016,-18.751387569748836
6.550018678446383,2.7491155473077025,1.5105827256420576,-4.25372835738149,9.177954084200897,-19.887683028390487
6.577509833919461,2.8408950881497113,1.4680454420682427,-4.452605187665395,10.400480500664306,-21.21316998259585
6.6059187848009575,2.944899893156354,1.4235193901915888,-4.664736887491354,11.74225799267794,-22.743952636189313
6.635367783732521,3.0623224730831335,1.3768720213166752,-4.892176413853247,13.20486103764008,-24.488279717466817
6.665991008463353,3.1943710834595342,1.3279502571781427,-5.137059211027915,14.775848614306602,-26.436740568409867
6.697934719297948,3.3421295696026,1.2765796650678636,-5.401426616712014,16.415506720460932,-28.544491373203215
6.731356014993974,3.5062846368072096,1.2225653989007434,-5.686871530444046,18.034065879910177,-30.700348541086147
6.766418861362046,3.6866252956063112,1.165696683596303,-5.993875015854908,19.45473578329991,-32.67617349418767
6.8032851143181094,3.8811726534393105,1.1057579334377539,-6.320636750796784,20.35972749914998,-34.05235014891759
6.842096840852503,4.08476992843081,1.042551565929786,-6.66116025228596,20.228010878672038,-34.13098086220952
6.882944540136811,4.28705003721753,0.9759399634069263,-7.002470060908055,18.308622715281505,-31.8968639239007
6.925815040508986,4.470136264370345,0.9059152627978457,-7.321438700147063,13.741417076746856,-26.180824551251057
6.97051640315269,4.607550435137814,0.8327008757963751,-7.583246945659573,5.984779800756355,-16.246491557646102
7.016591907504068,4.667398233145377,0.7568684063397794,-7.745711861236034,-4.472156999137142,-2.7692852784107025
7.063265889835522,4.622676663154006,0.679411287727419,-7.773404714020141,-15.70968785808708,11.620051744454091
7.109492656467062,4.465579784573135,0.6016772405872176,-7.6572041965756,-25.149481362535433,23.412448862257996
7.154148454312794,4.214084970947781,0.5251051986214617,-7.42307970795302,-31.13638830760255,30.40007173403949
7.1962893040222715,3.902721087871755,0.4508744015419315,-7.119078990612625,-33.67334876995869,32.66159514195447
7.2353165149009895,3.5659876001721678,0.3796836116358052,-6.7924630391930805,-33.78348878189498,31.65379323327094
7.270976390902711,3.228152712353218,0.3117589812438744,-6.475925106860371,-32.586520483163746,28.933935803722402
7.303257918026244,2.9022875075215806,0.24699973017527072,-6.1865857488231475,-30.870617135202913,25.58243643973011
7.33228079310146,2.593581336169551,0.18513387268703924,-5.930761384425846,-29.076697080231128,22.194414839124818
7.358216606463156,2.30281436536724,0.12582625884278076,-5.708817236034598,-27.412464580443768,19.044293187717265
7.381244750116828,2.0286897195628026,0.06873808648243478,-5.518374304157425,-25.9561758531025,16.231569374952425
7.4015316473124555,1.7691279610317776,0.013554343440860525,-5.356058610407901,-24.72201239237246,13.771356763220005
7.419222926922774,1.521907837108053,-0.040006242663218484,-5.218345042775701,-23.695538114409324,11.642848004614882
7.434442005293854,1.2849524559639598,-0.0921896930909755,-5.101916562729553,-22.851403882738065,9.813127385958717
7.447291529853493,1.056438417136579,-0.14320885871827102,-5.003785288869966,-22.161633323234316,8.248047780835643
7.457855914024859,0.8348220839042358,-0.19324671160697068,-4.921304811061609,-21.599198779603682,6.91671207798326
7.466204134863901,0.6188300961081991,-0.24245975971758676,-4.8521376902817765,-21.13934146598007,5.792928734730503
7.4723924358249825,0.40743668144839834,-0.29098113662040453,-4.794208402934472,-20.7598641014152,4.855306091156838
7.476466802639466,0.19983804043424633,-0.3389232206497492,-4.7456553420229035,-20.440995229720308,4.086783895437458
7.4784651830438085,-0.004571911862956746,-0.38637977406997825,-4.704787503068529,-20.165110300563278,3.473973103107585
7.478419463925179,-0.20622301486858952,-0.43342764910066356,-4.670047772037453,-19.916440044490137,3.006468297889638
7.476357233776493,-0.4053874153134909,-0.4801281268210381,-4.639983089058557,-19.68082144968823,2.676199325225172
7.472303359623359,-0.6021956298103732,-0.5265279577116236,-4.613221095806305,-19.445510420819314,2.4768442240303488
7.466281403325255,-0.7966507340185663,-0.5726601686696867,-4.5884526535660015,-19.19905796637083,2.4033067959556913
7.45831489598507,-0.9886413136822747,-0.6185446952053467,-4.564419585606444,-18.931243674626796,2.4512556272623787
7.448428482848247,-1.1779537504285427,-0.6641888910614111,-4.53990702933382,-18.633056510763584,2.6167203902945375
7.436648945343962,-1.3642843155361786,-0.7095879613547493,-4.513739825430875,-18.29671133135575,2.895742472042136
7.423006102188601,-1.547251428849736,-0.7547253596090581,-4.484782400710453,-17.915688956737373,3.284078732788397
7.407533587900104,-1.7264083184171097,-0.7995731836161626,-4.451941613382569,-17.48478777059757,3.7769586446966805
7.390269504715932,-1.9012561961230854,-0.8440925997499883,-4.414172026935603,-17.00017551489177,4.368895795210967
7.371256942754702,-2.071257951272003,-0.8882343200193443,-4.370483068983493,-16.459431199859832,5.053554622368652
7.350544363241982,-2.2358522632706013,-0.9319391507091792,-4.319947522759806,-15.861568832798723,5.823672319586882
7.328185840609276,-2.3944679515985885,-0.9751386259367772,-4.261710799563938,-15.207036905719411,6.671034287194072
7.30424116109329,-2.546538320655783,-1.0177557339324166,-4.1950004566919965,-14.497690112630501,7.586499602478774
7.278775777886732,-2.6915152217820877,-1.0597057384993365,-4.119135460667208,-13.736732362279195,8.560071075708207
7.251860625668911,-2.8288825454048796,-1.1008970931060085,-4.033534749910126,-12.928632541579738,9.581002908289816
7.223571800214862,-2.958168870820677,-1.1412324406051098,-3.9377247208272284,-12.079016404136722,10.637938066366306
7.193990111506655,-3.078959034862044,-1.180609687813382,-3.831345340163565,-11.194539199741076,11.719067409536217
7.163200521158035,-3.190904426859455,-1.2189231412150177,-3.714154666068203,-10.282744119034568,12.812303395058406
7.13129147688944,-3.2937318680498007,-1.2560646878756996,-3.586031632117619,-9.351911326967022,13.90546266777145
7.0983541582089416,-3.387250981319471,-1.2919250041968757,-3.4469770054399045,-8.410901456103314,14.986453748840741
7.064481648395747,-3.471359995880504,-1.3263947742512747,-3.297112467951497,-7.468996191809492,16.043467955747193
7.029768048436941,-3.5460499577985987,-1.3593658989307897,-3.136677788394025,-6.535737332843495,17.065173199219792
6.994307548858956,-3.6114073311270336,-1.39073267681473,-2.966026056401827,-5.6207647795864055,18.040911046736543
6.958193475547685,-3.667614978922898,-1.420392937378748,-2.7856169459344615,-4.733653549933593,18.960897191745286
6.921517325758456,-3.714951514422234,-1.4482491068380927,-2.5960079740170086,-3.883750291923915,19.8164241939707
6.884367810614234,-3.753789017341473,-1.4742091865782627,-2.3978437320773014,-3.0800108409544666,20.60006324982698
6.846829920440819,-3.7845891257510176,-1.4981876238990357,-2.1918430995790317,-2.3308419869017323,21.305859205333583
6.808984029183309,-3.807897545620035,-1.520106054894826,-1.9787845075256958,-1.6439524678625472,21.929510570613555
6.770905053727108,-3.8243370702986605,-1.5398938999700829,-1.7594894018195602,-1.0262199082139811,22.46852451532027
6.732661683024121,-3.8345992693808,-1.5574887939882784,-1.5348041566663575,-0.4835815794275367,22.922336232145515
6.694315690330313,-3.8394350851750754,-1.572836835554942,-1.3055807943449023,-0.02095716703822776,23.292382989266258
6.655921339478563,-3.839644656845458,-1.585892643498391,-1.0726569644522397,0.35778899610679266,23.582125733853665
6.617524892910108,-3.83606676688439,-1.5966192131429136,-0.836835707113703,0.6498405096877468,23.797015050350137
6.579164225241264,-3.8295683617875125,-1.6049875702140506,-0.5988655566102017,0.8533731344107781,23.9444031502236
6.540868541623389,-3.8210346304434046,-1.6109762257801525,-0.35942152510796566,0.9674505285979559,24.03340872662351
6.502658195318955,-3.811360125157425,-1.6145704410312323,-0.11908743784173056,0.9918744166514716,24.074746240590972
6.464544594067381,-3.8014413809909104,-1.6157613154096495,0.12166002456417915,0.9269948020384671,24.080534874405064
6.426530180257472,-3.792171432970526,-1.6145447151640078,0.3624653733082298,0.7734878344276809,24.06410451717375
6.388608465927766,-3.784436554626249,-1.6109200614309254,0.6031064184799673,0.5321101006524859,24.039816473466267
6.350764100381504,-3.779115453619724,-1.6048889972461258,0.84350458321463,0.20343850699041918,24.02291502754566
6.312972945845306,-3.77708106854982,-1.5964539514139795,1.0837337334900865,-0.21239511805497524,24.029422554050154
6.275202135159808,-3.7792050197303695,-1.5856166140790786,1.3240279590305881,-0.7159654319623167,24.07608543827283
6.237410084962504,-3.7863646740499926,-1.5723763344887727,1.5647888134133163,-1.3088004318209974,24.18037017524677
6.199546438222004,-3.7994526783682026,-1.5567284463546396,1.806592515165784,-1.9935992070360602,24.360497392798024
6.161551911438322,-3.8193886704385633,-1.5386625212029816,2.0501974890937644,-2.774396938876699,24.635483511019935
6.123358024733936,-3.8471326398273304,-1.518160546312044,2.296552324203964,-3.6566352047775226,25.02513017509211
6.084886698335663,-3.8836989918751055,-1.4951950230700044,2.546803625954885,-4.647061229443141,25.549851114265635
6.046049708416912,-3.930169604169537,-1.4697269868104557,2.8023021370975414,-5.753317165445336,26.23013805582614
6.006748012375216,-3.98770277582399,-1.4417039654394803,3.0646035176558026,-6.982969073249205,27.085312846982266
5.9668709846169765,-4.0575324665564825,-1.4110579302629223,3.335456646125625,-8.341530144003503,28.13094319814436
5.926295659951411,-4.140947767996518,-1.377703363801666,3.616766078107069,-9.828698262984467,29.37383644269939
5.884886182271446,-4.239234750626363,-1.3415357030205954,3.9105044425340627,-11.431475692306156,30.802758811670312
5.8424938347651825,-4.353549507549424,-1.3024306585952548,4.218532030650766,-13.111990875877876,32.371846511850684
5.798958339689689,-4.484669416308202,-1.260245338288747,4.542250495769273,-14.786741573300326,33.972134241221795
5.754111645526606,-4.632536832041206,-1.2148228333310545,4.8819718381814905,-16.293187690149274,35.3855050737947
5.7077862772061945,-4.795468708942699,-1.1660031149492396,5.235826888919437,-17.34130598978831,36.217675944609134
5.6598315901167675,-4.968881768840582,-1.1136448460600452,5.598003648365529,-17.457839767210103,35.82089904672818
5.610142772428362,-5.143460166512683,-1.0576648095763899,5.9562126388328105,-15.96115374029529,33.25913157700953
5.558708170763235,-5.303071703915636,-0.9981026831880617,6.288803954602906,-12.063074803458836,27.450042694025935
5.505677453724078,-5.423702451950224,-0.9352146436420327,6.5633043815431655,-5.237800218496655,17.679101960780812
5.451440429204576,-5.476080454135191,-0.869581599826601,6.740095401150974,4.146146207472549,4.478956586157154
5.396679624663224,-5.434618992060466,-0.8021806458150913,6.7848849670125455,14.421207556671988,-9.812600053349168
5.34233343474262,-5.290406916493747,-0.7343317961449658,6.686758966479053,23.220072631987197,-21.898928148679214
5.289429365577682,-5.058206190173875,-0.6674642064801752,6.467769684992262,28.889001044645262,-29.499551418941152
5.238847303675943,-4.769316179727422,-0.6027865096302526,6.1727741708028505,31.28148999925669,-32.44575846042449
5.191154141878669,-4.456501279734855,-0.5410587679222241,5.848316586198606,31.285670073673906,-32.00569623056636
5.14658912908132,-4.143644578998116,-0.48257560206023803,5.528259623892942,29.964569096902995,-29.679191436541146
5.105152683291339,-3.8439988880290863,-0.4272930058213086,5.23146770952753,28.101145830157577,-26.566028612962306
5.0667126944110485,-3.5629874297275106,-0.37497832872603326,4.965807423397908,26.14766706382518,-23.30001405259715
5.031082820113774,-3.301510759089259,-0.3253202544920542,4.732807282871936,24.32356810043984,-20.18854348157353
4.998067712522881,-3.0582750780848604,-0.27799218166333484,4.530921848056201,22.7154020183974,-17.353431632990084
4.9674849617420325,-2.8311210579008863,-0.23268296318277282,4.3573875317263,21.34269155747086,-14.823276715242338
4.939173751163024,-2.6176941423261777,-0.1891090878655098,4.209154764573876,20.19458284512901,-12.584725655750628
4.912996809739762,-2.4157483138748876,-0.14701754021977104,4.08330750801637,19.248477705491876,-10.608483222026631
4.888839326601013,-2.2232635368199687,-0.10618446513960733,3.977222675796104,18.47888060667382,-8.86165012864578
4.866606691232813,-2.0384747307532303,-0.06641223838164628,3.888606174509646,17.861269656018038,-7.313128188489696
4.846221943925281,-1.8598620341930499,-0.02752617663654982,3.8154748926247493,17.37354685042982,-5.935661459322816
4.82762332358335,-1.6861265656887516,0.010628572289697671,3.756118278031521,16.99636294750605,-4.706317305938551
4.810762057926463,-1.516162936213691,0.048189755070012885,3.7090551049721356,16.712954895164856,-3.606292565151662
4.795600428564327,-1.3490333872620424,0.08528030611973425,3.672992179320619,16.50880191512427,-2.6204671848169636
4.782110094691706,-1.1839453681107996,0.12201022791294044,3.6467875074724496,16.371242042736142,-1.7368989157521557
4.770270641010598,-1.0202329476834382,0.15847810298766493,3.629418518314928,16.289110913553582,-0.9463413097301391
4.760068311533764,-0.8573418385479024,0.1947722881708142,3.6199551052176266,16.25242646705578,-0.24181424511489075
4.751494893148284,-0.6948175738773446,0.23097183922299047,3.617536962766478,16.252125745798978,0.3817681302704178
