th1 (rad),w1 (rad/s),th2 (rad),w2 (rad/s)
2.6812289212466816,1.9492020180109861,6.2680084243585625,2.7228987621977696
2.700720941426791,1.862401824400844,6.2952374119805405,2.6624074165915905
2.7193449596707997,1.776734758235013,6.321861486146457,2.5993751639728706
2.73711230725315,1.692253333020525,6.347855237786185,2.5339613543236705
2.7540348405833552,1.6090055962848309,6.373194851329422,2.4663227677431
2.7701248965462035,1.5270348026755425,6.397858079006853,2.3966132938968037
2.785395244572959,1.446379049803843,6.421824211945821,2.3249835166416237
2.7998590350709973,1.3670709033281017,6.445074047112237,2.2515802406065917
2.813529744104278,1.2891370342715536,6.467589849518303,2.1765459929249387
2.8264211144469935,1.212597887709307,6.489355309447553,2.100018529077254
2.8385470933240864,1.137467397951524,6.5103554947383255,2.0221303671816706
2.8499217673036017,1.0637527613770954,6.530576798410142,1.9430083702920409
2.8605592949173726,0.9914542742940915,6.550006882113062,1.8627733915506723
2.8704738376603136,0.9205652397464238,6.568634616028569,1.7815399925653592
2.879679490057778,0.8510719441433248,6.586450015954222,1.6994162412802585
2.888190209499211,0.7829537020184377,6.603444178367025,1.6165035919866386
2.8960197465193955,0.716182965156031,6.619609214286891,1.532896847034899
2.903181576170956,0.6507254907529352,6.63493818275724,1.4486841972912035
2.909688831078485,0.5865405621932757,6.649425024730151,1.3639473364285206
2.915554236700418,0.5235812553585207,6.663064498094436,1.278761642726514
2.9207900492540033,0.4617947431253621,6.675852114521701,1.1931964211330883
2.925407996685257,0.401122630759072,6.687784078733032,1.1073151978554634
2.9294192229928475,0.34150131522827404,6.698857230711587,1.0211760596363169
2.9328342361451303,0.28286236198761766,6.70906899130795,0.9348320300640587
2.9356628597650065,0.22513289344057136,6.71841731160859,0.8483314757000542
2.9379141886994122,0.16823598405412302,6.726900626365591,0.7617185354178314
2.9395965485399533,0.11209105790616025,6.734517811719769,0.6750335670840297
2.940717459119015,0.05661428526766991,6.74126814739061,0.5883136065190574
2.941283601971692,0.0017189756259848726,6.747151283455801,0.5015928345155559
2.9413007917279517,-0.052684034680586245,6.752167211800956,0.41490304853069987
2.940773951381146,-0.10668600133871922,6.756316242286263,0.32827413647701115
2.9397070913677585,-0.16037989792833426,6.759598983651033,0.2417345507950722
2.938103292388475,-0.21386004869852934,6.762016329158984,0.15531178168523085
2.9359646919014897,-0.26722176767704586,6.763569446975836,0.06903282899380639
2.9332924742247193,-0.32056100312658536,6.764259775265774,-0.01707532721395265
2.9300868641934534,-0.3739739860239045,6.764089021993635,-0.10298525691011302
2.926347124333214,-0.4275568809722353,6.763059169424533,-0.18866861033948173
2.922071555523492,-0.48140543776030276,6.761172483321139,-0.27409564710310946
2.917257501145889,-0.5356146416477962,6.758431526850107,-0.3592347627603707
2.911901354729411,-0.5902783603833229,6.754839179222504,-0.4440520115012676
2.905998571125578,-0.6454889859425419,6.750398659107491,-0.5285106233975334
2.8995436812661524,-0.7013370690075524,6.745113552873516,-0.6125705147696016
2.8925303105760767,-0.75791094429025,6.73898784772582,-0.6961877903019811
2.884951201133174,-0.8152963449290984,6.7320259698228,-0.7793142356971382
2.876798237683883,-0.8735760043576882,6.724232827465829,-0.8618967998724094
2.8680624776403065,-0.9328292442517203,6.715613859467105,-0.9438770659701559
2.858734185197789,-0.9931315474058245,6.706175088807403,-1.0251907107623173
2.848802869723731,-1.054554114669871,6.69592318169978,-1.1057669523803195
2.8382573285770323,-1.1171634053828736,6.684865512175977,-1.1855279866831474
2.8270856945232037,-1.1810206610776375,6.673010232309145,-1.2643884129832994
2.815275487912427,-1.2461814125870745,6.660366348179312,-1.3422546502753363
2.8028136737865563,-1.3126949710596556,6.646943801676558,-1.4190243455483202
2.7896867240759597,-1.3806039037829774,6.632753558221075,-1.4945857762062487
2.77588068503813,-1.4499434961178563,6.617807700459013,-1.5688172490662435
2.7613812500769517,-1.5207412012591042,6.60211952796835,-1.6415864988525193
2.7461738380643608,-1.593016079964006,6.5857036629798245,-1.712750089559306
2.7302436772647205,-1.666778232830048,6.568576162084232,-1.7821528225284333
2.71357589493642,-1.742028228169293,6.550754633858947,-1.8496271555956723
2.696155612654727,-1.8187565290346162,6.53225836230299,-1.9149926382326456
2.6779680473643808,-1.8969429235280877,6.513108435920664,-1.978055368288415
2.6589986181291,-1.976555963200042,6.49332788223778,-2.0386074767703417
2.6392330584970995,-2.0575524151768874,6.472941807470076,-2.0964266481653824
2.618657534345331,-2.1398767346978578,6.451977540988422,-2.1512756851725694
2.5972587669983525,-2.2234605660707256,6.430464784136697,-2.2029021284893497
2.575024161337645,-2.3082222817615525,6.408435762851803,-2.2510379445713804
2.5519419385200295,-2.3940665715112806,6.385925383406089,-2.295399297171374
2.5280012728049166,-2.480884096124299,6.362971390434375,-2.335686422052574
2.5031924318436736,-2.5685512239992825,6.3396145262138495,-2.371583628636946
2.4775069196036807,-2.6569298726531776,6.31589868992748,-2.402759457513171
2.450937620877149,-2.7458674824758775,6.291871095352349,-2.4288670286505365
2.42347894605239,-2.835197155744186,6.267582425065843,-2.4495446216953907
2.395126974494948,-2.9247380004397474,6.243086978848889,-2.4644165365825166
2.3658795944905506,-3.0142957254711686,6.218442813483064,-2.473094289412518
2.335736637235839,-3.1036635411728675,6.193711870588938,-2.4751782044497803
2.30470000182411,-3.1926234259527226,6.1689600885444404,-2.470259467255425
2.272773767564583,-3.280947826006593,6.144257493871886,-2.4579227051876242
2.239964289304517,-3.3684018592262133,6.11967826682001,-2.4377491583126703
2.206280270712255,-3.4547460957191727,6.0953007752368835,-2.409320494482438
2.171732809755063,-3.539739984502548,6.071207570292059,-2.372223305119297
2.1363354099100373,-3.6231459876205117,6.047485337240866,-2.326054291299601
2.1001039500338323,-3.704734467930735,6.02422479432787,-2.2704261114838657
2.063056605354525,-3.7842893541250944,6.001520533213032,-2.2049738117075384
2.025213711813274,-3.861614575732552,5.979470795095957,-2.1293616961552964
1.9865975660559485,-3.9365412222444727,5.958177178134404,-2.043290422063749
1.9472321538335038,-4.00893533557588,5.937744273913767,-1.946504020806267
1.907142800477745,-4.0787061966911535,5.918279233705704,-1.838796461732536
1.8663557385108336,-4.145814919785402,5.8998912690883785,-1.7200172937428821
1.8248975893129795,-4.210283126834635,5.88269109615095,-1.5900758301558904
1.7827947580446333,-4.272201448717233,5.866790337849391,-1.4489432944607172
1.740072743557461,-4.331737594152868,5.852300904904784,-1.2966523268316854
1.6967553676159324,-4.389143751759028,5.8393343816364665,-1.1332932704443315
1.652863930098342,-4.444763149520726,5.8280014489320235,-0.9590067152205161
1.6084162986031347,-4.499035693327913,5.818411381779819,-0.7739718713652058
1.5634259416698555,-4.552502742064082,5.810671663066167,-0.5783904656105519
1.5179009142492146,-4.605811247569283,5.804887758410061,-0.3724659818017092
1.4718428017735217,-4.659717687146671,5.801163098592044,-0.15637818029405637
1.4252456249020549,-4.715092435925933,5.799599316789103,0.06974710071353887
1.3780947005427955,-4.772925458412902,5.800296787796238,0.30587286372691924
1.3303654459586665,-4.834334437454349,5.803355516433507,0.5520906975898195
1.2820221015841229,-4.900576703133785,5.808876423409406,0.8086656835544304
1.2330163345527851,-4.973066576025629,5.816963080244951,1.0760871512813837
1.1832856687925288,-5.053400000718583,5.827723951757765,1.3551264514999461
1.132751668785343,-5.14338860676596,5.841275216272765,1.6469034689058901
1.0813177827176834,-5.245105547094538,5.857744250961823,1.9529641279304848
1.028866727246738,-5.360945483370245,5.877273892241128,2.2753713949393095
0.9752572724130355,-5.493700543538174,5.900027606190521,2.6168116846695035
0.9203202669776538,-5.646652089755972,5.926195723037216,2.9807158555143998
0.863853746080094,-5.823672688696422,5.95600288159236,3.371386253797384
0.8056170191931298,-6.029319220267891,5.989716744130334,3.794102115876795
0.7453238269904509,-6.268866448683039,6.027657765289102,4.255130787443195
0.6826351625036204,-6.548158415275299,6.070209073163534,4.761470512370085
0.6171535783508675,-6.872996256107987,6.117823778287235,5.3199268708707
0.5484236157897876,-7.247448883231685,6.171023046995942,5.934658060861265
0.47594912695747077,-7.669856640613929,6.230369627604555,6.601459824599177
0.39925056055133146,-8.124502039676557,6.296384225850546,7.2959496394913455
0.3180055401545659,-8.567384504330171,6.36934372224546,7.953484346552493
0.23233169511126417,-8.911772454224584,6.448878565710984,8.448880123869733
0.14321397056901833,-9.040503429960824,6.5333673669496815,8.6140465150791
0.05280893626941009,-8.880199191990643,6.6195078321004726,8.343136500086954
-0.03599305565049635,-8.483998418406516,6.702939197101342,7.709821046854403
-0.1208330398345615,-7.99058062686785,6.780037407569886,6.910026621245062
-0.20073884610324,-7.511555277414674,6.849137673782337,6.1030188007989965
-0.2758543988773867,-7.094859828517944,6.9101678617903275,5.358919808782831
-0.34680299716256613,-6.748877132399097,6.963757059878156,4.691936619083759
-0.41429176848655713,-6.466927176442714,7.0106764260689935,4.0946241536649275
-0.4789610402509843,-6.238859172908111,7.051622667605643,3.5542723103324647
-0.5413496319800654,-6.055060540307436,7.087165390708967,3.0586955002803067
-0.6019002373831397,-5.907444513819764,7.117752345711771,2.597764250987653
-0.6609746825213373,-5.7894389488452624,7.143729988221647,2.1635065325411205
-0.7188690720097899,-5.6957141247308565,7.165365053547059,1.7498173649389455
-0.7758262132570984,-5.621890259860913,7.1828632271964485,1.352118892085173
-0.8320451158557076,-5.5642913518141395,7.1963844161173,0.9670670151235898
-0.887688029373849,-5.519755288666585,7.2060550862685355,0.5923192749567636
-0.9428855822605149,-5.485494010317605,7.211978279018103,0.22635472476827168
-0.9977405223636909,-5.4589945381280955,7.214241826265786,-0.13166813844426684
-1.0523304677449719,-5.437952506885605,7.212925144881344,-0.48202796554428134
-1.106709992813828,-5.420231299252678,7.208104865225901,-0.8245413492139245
-1.1609123058063548,-5.403841084056667,7.199859451733762,-1.158654466254949
-1.2149507166469216,-5.386932847375023,7.188272907071213,-1.4835294740865994
-1.2688200451206717,-5.36780298469175,7.173437612330347,-1.7981272537853465
-1.3224980749675892,-5.344904364177565,7.155456339792494,-2.1012862795525713
-1.3759471186093648,-5.316860134082881,7.134443476996968,-2.391796147066376
-1.4291157199501936,-5.282477040542912,7.110525515526304,-2.6684636495630705
-1.4819404903556228,-5.240755687993198,7.0838408790306735,-2.930169235946955
-1.5343480472355548,-5.190895987204681,7.054539186671204,-3.1759121343771883
-1.5862570071076016,-5.132296916819068,7.022780065327432,-3.4048432264445836
-1.6375799762757923,-5.064550567369623,6.9887316330629865,-3.6162857201980034
-1.6882254819494886,-4.98743113935218,6.952568775861007,-3.80974460204685
-1.7380997933430105,-4.900880054580148,6.914471329840539,-3.984906590463791
-1.787108593888812,-4.8049885810554915,6.874622263935901,-4.14163277156672
-1.835158479699367,-4.699979378027345,6.833205936220234,-4.279946239569465
-1.8821582734796405,-4.586188186375162,6.7904064738245395,-4.400016924953563
-1.9280201553433922,-4.464046585899508,6.746406304575004,-4.502145441612632
-1.9726606212023874,-4.334066385294422,6.7013848501588775,-4.586747310543443
-2.0160012850553315,-4.196825863837327,6.655517377053443,-4.654338409342166
-2.0579695436937047,-4.0529577917769215,6.6089739929600215,-4.705522025769801
-2.0984991216114737,-3.90313894642201,6.561918772702324,-4.740977509792285
-2.1375305110756937,-3.7480807232532873,6.514508997604401,-4.761450248439793
-2.1750113183082265,-3.5885204121173397,6.466894495120003,-4.767742537763045
-2.2108965224293997,-3.4252127536319783,6.4192170697423725,-4.760704886356831
-2.2451486499657194,-3.2589214899612813,6.371610020878804,-4.741227334752631
-2.2777378648653324,-3.0904107540108634,6.324197747531278,-4.710230487752021
-2.308641972405441,-2.920436279090359,6.277095442653757,-4.668656103915622
-2.3378463351963443,-2.749736537258273,6.2304088816146015,-4.617457241003639
-2.365343700568927,-2.5790240136382367,6.184234309204565,-4.557588095571654
-2.3911339407053096,-2.408976886477727,6.138658428248848,-4.489993782680328
-2.415223709570087,-2.2402314051805283,6.093758490422045,-4.415600368295698
-2.4376260236218923,-2.073375243131669,6.049602486739088,-4.335305489859918
-2.458359776053209,-1.9089420554271135,6.006249431840489,-4.2499698831000305
-2.47744919660748,-1.747407403049271,5.963749733009489,-4.1604100832436375
-2.494923270637973,-1.5891861251512025,5.9221456321770525,-4.067392496821867
-2.510815131889485,-1.4346311600355424,5.881471707208834,-3.9716289572721393
-2.5251614434898406,-1.284033741581496,5.841755417636112,-3.8737737938586108
-2.5380017809056556,-1.1376248373293412,5.803017679697526,-3.774422367293072
-2.549378029278949,-0.9955776505833029,5.7652734560245955,-3.6741109626007407
-2.559333805784782,-0.8580109826867552,5.728532346398588,-3.5733178833274266
-2.5679139156116495,-0.7249932420088964,5.6927991675653145,-3.4724655618587645
-2.5751638480317385,-0.596546890721349,5.658074511946727,-3.371923487303648
-2.5811293169389518,-0.4726531359324473,5.624355277073691,-3.2720117527287322
-2.585855848298276,-0.35325669476059923,5.591635159546403,-3.1730050345133094
-2.589388415245882,-0.2382704902335312,5.55990510920127,-3.075136835059156
-2.5917711201482176,-0.12758016372741235,5.529153740850679,-2.978603843075995
-2.5930469217854917,-0.021048317836513966,5.499367702419919,-2.8835702906369707
-2.593257404963857,0.08148157045656008,5.4705319995135495,-2.790172211164369
-2.5924425892592913,0.18018160362611235,5.442630277401906,-2.6985215260216164
-2.59064077322303,0.2752363026120592,5.41564506214169,-2.608709908519869
-2.5878884101969093,0.3668398337196156,5.3895579630564905,-2.5208123923908468
-2.584220011859713,0.45519361429626665,5.364349839132582,-2.4348907069611267
-2.5796680757167505,0.540504279469243,5.340000932062971,-2.3509963334578177
-2.574263032922058,0.6229819864271163,5.3164909687283926,-2.2691732863119536
-2.568033213057787,0.702839029265321,5.293799235865273,-2.1894606303264905
-2.561004822765134,0.7802887358289281,5.271904629562008,-2.1118947495029308
-2.5532019354068445,0.8555446178545965,5.2507856820669785,-2.0365113865393876
-2.5446464892282985,0.9288197466659697,5.230420568201585,-1.963347473866165
-2.535358291761639,1.000326328398096,5.2107870934629235,-1.892442777878008
-2.525355028477658,1.0702754549577609,5.191862665684144,-1.8238413780152083
-2.51465227392808,1.1388770094599021,5.173624251903992,-1.7575930017504002
-2.503263503833481,1.2063397075510964,5.156048321886488,-1.6937542355173925
-2.49120010675797,1.2728712587097566,5.139110779531315,-1.6323896302885945
-2.4784713941708727,1.3386786341948183,5.122786883228429,-1.5735727189381596
-2.4650846078289246,1.4039684307111713,5.107051156039047,-1.5173869607422814
-2.451044923521813,1.468947320986419,5.091877286431624,-1.4639266263411999
-2.4363554503119484,1.5338225842181918,5.077238020168212,-1.4132976341406973
-2.4210172244697663,1.5988027106421467,5.0631050438268055,-1.3656183463219844
-2.4050291973633446,1.6640980751389636,5.049448860363586,-1.3210203291363358
-2.388388216611955,1.7299216746372543,5.036238657072222,-1.2796490776597609
-2.3710889998655826,1.796489922785963,5.023442166295625,-1.2416646992102744
-2.353124100637723,1.864023492549412,5.011025519303522,-1.2072425415347432
-2.3344838657122287,1.9327481924319434,4.998953093888175,-1.1765737407446057
-2.315156383787909,2.0028958541355797,4.987187356480729,-1.1498656485560728
-2.295127425246553,2.0747051974247817,4.975688699995168,-1.1273420769203406
-2.2743803732723054,2.1484226201857473,4.964415279225965,-1.1092432681997046
-2.252896147070448,2.2243028358638437,4.953322846543967,-1.0958254573504123
-2.2306531187118095,2.302609243544255,4.942364591970463,-1.0873598346261155
-2.207627026276367,2.3836138637237085,4.931490993624202,-1.0841306371124635
-2.18379088763913,2.467596599770884,4.920649687253077,-1.086431987075276
-2.159114921641421,2.554843484097668,4.909785367382324,-1.0945629446724725
-2.1335664868004445,2.6456434305236085,4.8988397379355995,-1.1088200400466721
-2.107110052495208,2.740282830591508,4.887751537535133,-1.12948628209536
-2.0797072241892933,2.839037092853936,4.876456674714179,-1.1568152968433554
-2.051316853260754,2.942157926522679,4.864888521745745,-1.1910088236730318
-2.0218952739955274,3.0498548239996586,4.852978433509015,-1.2321853094559714
-1.9913967257555307,3.1622688399497316,4.840656580414455,-1.2803368494486294
-1.9597740373560335,3.279436494406485,4.827853211919969,-1.3352713742068938
-1.9269796724119685,3.4012416413293005,4.8145004981779,-1.3965370644484998
-1.8929672559986754,3.527353797773594,4.800535127533415,-1.4633270097127287
-1.8576937180209394,3.6571532900535213,4.785901857436287,-1.534364934445379
-1.8211221851204042,3.789647413110507,4.770558208091834,-1.6077785078479943
-1.7832257109892993,3.9233883924747714,4.754480423013354,-1.6809764395096023
-1.7439918270645516,4.0564134618756125,4.737670658618258,-1.7505594784787584
-1.7034276924457954,4.186238217406885,4.720165063833471,-1.812311239008818
-1.6615653102717265,4.309941645192275,4.702041951443382,-1.8613253337710551
-1.6184658938198038,4.424375989996764,4.683428698105672,-1.8923178210011689
-1.5742221339198361,4.526507252686329,4.66450551989566,-1.9001344507461364
-1.5289570613929728,4.613840980747071,4.645504175388199,-1.880388165854397
-1.4828186515855022,4.6848306122112175,4.626700293729655,-1.8300786565854033
-1.43597034546339,4.739138228491857,4.608399507163801,-1.7480045768870875
-1.3885789631784715,4.777651850221907,4.59091946139493,-1.6348263341626883
-1.3408024446762525,4.802252814038155,4.574571198053303,-1.4927648332301704
-1.2927799165358709,4.815420786222943,4.5596435497210015,-1.3250575984217
-1.2446257086736414,4.819807232132879,4.5463929737367845,-1.135358633766278
-1.1964276363523125,4.817885945530689,4.535039387399122,-0.9272396829859486
-1.1482487768970056,4.811731048204758,4.525766990569262,-0.7038690344644868
-1.100131466414958,4.802918633006372,4.518728300224617,-0.46786641888849806
-1.0521022800848943,4.7925189613715435,4.514049636035732,-0.22128949317927793
-1.0041770904711789,4.781140835413805,4.511836741103939,0.03430170240805486
-0.9563656821170408,4.768997671097421,4.51217975812802,0.29774591586390226
-0.9086757054060666,4.755976110065281,4.515157217286658,0.56817576481541
-0.8611159443054137,4.741697545017188,4.520838974934812,0.8449218346941605
-0.8136989688552418,4.7255692568905046,4.529288193281754,1.1274320638248632
-0.7664432762863368,4.706825370235536,4.540562513920003,1.4152077311389888
-0.7193750225839814,4.684559427682916,4.554714591231392,1.7077550699381088
-0.6725294283071523,4.65775086597369,4.571792141930773,2.004550783001605
-0.6259519196474155,4.625287588296781,4.591837649760789,2.305019752189454
-0.5796990437644477,4.5859864863998245,4.6148878472826835,2.6085235530447237
-0.5338391789004494,4.5386133327661415,4.64097308281313,2.914358751570554
-0.488453045572788,4.481903010549642,4.670116670328836,3.221764256904159
-0.4436340154672916,4.414580604538634,4.702334312897878,3.529937183284954
-0.3994882094219052,4.335383449648843,4.737633684730727,3.8380567293330667
-0.3561343749254168,4.243083830486746,4.776014252024058,4.145315524376701
-0.3137035366205493,4.136511656855255,4.8174674072678245,4.450957743600162
-0.2723384200519967,4.014576124001133,4.861976984703826,4.754323085154345
-0.23219265881198536,3.876285130389154,4.90952021555537,5.054895463506035
