th1 (rad),w1 (rad/s),th2 (rad),w2 (rad/s),a1 (rad/s^2),a2 (rad/s^2)
0.15793198631068242,2.778055578925065,6.163063945883499,-0.1401439384451883,-5.81606434606346,8.885396889442143
0.18571254209993307,2.7198949354644304,6.161662506499047,-0.05128996955076687,-6.307840322868391,9.437744742231626
0.21291149145457738,2.6568165322357467,6.161149606803539,0.04308747787154939,-6.732763790912374,9.871914385766168
0.23947965677693486,2.5894888943266228,6.161580481582255,0.14180662172921105,-7.098511817676591,10.198513800322113
0.2653745457202011,2.5185037761498568,6.162998547799547,0.24379175973243217,-7.413378682721431,10.429559378346033
0.29055958348169963,2.4443699893226425,6.165436465396871,0.3480873535158925,-7.685612404453849,10.577477164761822
0.31500328337492606,2.367513865278104,6.1689173389320295,0.4538621251635107,-7.922952997845219,10.654386834644301
0.3386784220277071,2.288284335299652,6.173455960183665,0.5604059935099537,-8.132350419462574,10.671641209830629
0.3615612653807036,2.206960831105026,6.179060020118764,0.66712240560826,-8.319825789130833,10.6395720849097
0.38363087369175386,2.123762573213718,6.185731244174847,0.773518126457357,-8.49043670808171,10.567387926433707
0.404868499423891,2.038858206132901,6.1934664254394205,0.879192005721694,-8.648311467382955,10.463173780385361
0.42525708148522,1.9523750914590712,6.202258345496637,0.9838237435255476,-8.796723824268382,10.333952984197449
0.4447808323998107,1.8644078532163872,6.212096582931893,1.087163273367522,-8.938187346096582,10.185780438005304
0.4634249109319746,1.7750259797554215,6.222968215665568,1.1890210777475752,-9.074554779984844,10.023846307843828
0.4811751707295288,1.684280431955573,6.2348584264430436,1.2892595408260135,-9.207113004926779,9.852576330958277
0.4980179750490845,1.5922093019063053,6.247751021851304,1.3877853041355963,-9.336667833682354,9.675720271661929
0.5139400680681475,1.4988426235694818,6.26162887489266,1.4845425068522156,-9.463615446383445,9.496423768704622
0.5289284943038424,1.4042064691056475,6.276474299961182,1.5795067445392619,-9.587998819974977,9.317281170818019
0.5429705589948989,1.3083264809058976,6.292269367406575,1.6726795562474421,-9.70954842380267,9.140368326022786
0.5560538238039578,1.211230996667871,6.308996162969049,1.76408323950767,-9.82770690040247,8.967254975936685
0.5681661337706365,1.1129539276638463,6.326636995364126,1.8537557892670369,-9.94163761776418,8.798996656290507
0.579295673047275,1.0135375514862044,6.345174553256796,1.941745755829942,-10.050217006982416,8.636106021033871
0.589431048562137,0.9130353814163802,6.3645920108150955,2.028106816040281,-10.152010609825469,8.478503465303492
0.5985614023763008,0.8115152753181255,6.384873078975498,2.1128918506933156,-10.245232874347465,8.325446994300277
0.6066765551294822,0.7090629465746509,6.406001997482431,2.1961463206363185,-10.327691088090516,8.175441663887712
0.6137671845952286,0.6057860356937457,6.427963460688794,2.277900737275196,-10.39671459397027,8.026129842153493
0.6198250449521661,0.501818889754043,6.450742468061546,2.3581620356967306,-10.44907180468948,7.874165311059721
0.6248432338497065,0.3973281717071482,6.474324088418514,2.4369036888073277,-10.480879778009186,7.715077217651913
0.628816515566778,0.2925193739270563,6.498693125306587,2.514054460983847,-10.487514532974405,7.543134523485859
0.6317417093060486,0.18764422859731222,6.523833669916425,2.5894858062187054,-10.463535155396588,7.351228302982907
0.6336181515920217,0.08300887704334634,6.549728527978612,2.6629980892485343,-10.402641207276142,7.130798248875033
0.6344482403624552,-0.021017535029415085,6.576358508871097,2.7343060717372847,-10.297690824414428,6.871840834799258
0.6342380650121611,-0.12399444327355937,6.60370156958847,2.803024480085277,-10.140815288122443,6.563048612218196
0.6329981205794255,-0.2254025961547838,6.6317318143893225,2.868654966207459,-9.923672801071875,6.192140381002546
0.6307440946178776,-0.32463932416550256,6.660418364051397,2.9305763700174845,-9.637886135486376,5.746445588976338
0.6274977013762226,-0.4210181855203663,6.689724127751572,2.9880408259072477,-9.275700498018841,5.213795984870712
0.623287519521019,-0.5137751905005548,6.719604536010644,3.040178785755955,-8.83087307253696,4.583744433085307
0.6181497676160135,-0.6020839212259244,6.750006323868204,3.086016230086808,-8.299759071581231,3.849067462783449
0.6121289284037542,-0.6850815119417367,6.780866486169073,3.1245069047146425,-7.6824907086821685,3.0074141225034663
0.6052781132843369,-0.7619064190285584,6.8121115552162195,3.1545810459396773,-6.984065630309346,2.0628528808514712
0.5976590490940513,-0.8317470753316518,6.843657365675616,3.175209574748192,-6.2150943977985875,1.0269739938309326
0.5893415783407348,-0.8938980193096377,6.875409461423098,3.1854793146865013,-5.3919383899400515,-0.0808236391348034
0.5804025981476384,-0.9478174032090383,6.907264254569963,3.1846710782951533,-4.536034141106687,-1.2341470450402026
0.570924424115548,-0.9931777446201051,6.939110965352914,3.1723296078447514,-3.6723581472059643,-2.4015972262784713
0.5609926466693469,-1.0299013260921648,6.970834261431362,3.1483136355819665,-2.8272051288133127,-3.549703827044505
0.5506936334084253,-1.058173377380298,7.0023173977871815,3.1128165973115216,-2.025658147664306,-4.646297501756689
0.5401118996346223,-1.078429958856941,7.033445563760297,3.066353622293955,-1.2892347425383444,-5.663664196717391
0.5293276000460528,-1.0913223062823245,7.064109099983236,3.009716980326781,-0.6341487017532335,-6.580883859366681
0.5184143769832296,-1.0976637932998567,7.094206269786504,2.9439081417331145,-0.07044883105998545,-7.384997247763035
0.507437739050231,-1.0983682816104565,7.123645351203836,2.870058169255484,0.3979403094961103,-8.070965255558749
0.4964540562341265,-1.0943888785154954,7.152345932896391,2.7893485166998966,0.7724539484845446,-8.64066073174293
0.4855101674489715,-1.0866643390306499,7.1802394180633895,2.702941909382467,1.058686848852543,-9.10128085839797
0.474643524058665,-1.0760774705421243,7.207268837157214,2.6119291007984873,1.2650520743735718,-9.463576516420114
0.46388274935324375,-1.0634269497983886,7.233388128165199,2.517293335634286,1.401528308195879,-9.740205798017902
0.45324847985525984,-1.0494116667164297,7.258561061521542,2.419891277654107,1.4786317937467182,-9.94439200857222
0.4427543631880955,-1.0346253487789625,7.282759974298083,2.320447357568385,1.5066627216092396,-10.088950171087175
0.4324081097003059,-1.01955872156287,7.305964447873767,2.219557855857513,1.4952148268278986,-10.185664326712352
0.4222125224846772,-1.004606573294591,7.328160026432342,2.117701212590389,1.452903830145313,-10.244954192055722
0.4121664567517313,-0.9900775349931379,7.349337038558246,2.015251670669832,1.3872593289875048,-10.275755820849
0.4022656814017999,-0.9762049417032629,7.369489555264944,1.9124941124613417,1.3047275209270635,-10.285545434251159
0.3925036319847673,-0.9631576664939923,7.3886144963895575,1.8096386581188302,1.2107415153549623,-10.280448736194485
0.3828720553198274,-0.9510502513404426,7.406710882970746,1.7068341707568853,1.1098270830802504,-10.265393257848965
0.37336155280642297,-0.9399519805096401,7.423779224678315,1.6041802381783956,1.005721846424273,-10.24427504546273
0.36396203300132657,-0.9298947620453974,7.439821027060098,1.5017374877237684,0.9014940420031147,-10.220121925018423
0.3546630853808726,-0.9208798216253663,7.454838401937336,1.3995362684735841,0.7996529385793026,-10.195243490964671
0.34545428716461896,-0.9128832922395733,7.468833764622072,1.2975838335639374,0.7022470466024379,-10.171363297676493
0.3363254542422232,-0.905860821773549,7.4818096029577115,1.1958702005871724,0.6109488401602612,-10.149732080994356
0.32726684602448775,-0.8997513333719463,7.4937683049635835,1.0943728797772287,0.527126241304163,-10.131222776887348
0.3182693326907683,-0.8944800709589047,7.504712033761356,0.9930606520083552,0.45190193389544125,-10.116409102890676
0.30932453198117926,-0.8899610516199503,7.51464264028144,0.8918965609794485,0.38620193658184854,-10.105629873269267
0.30042492146497973,-0.8860990322541318,7.523561605891234,0.7908402622467559,0.3307949532377776,-10.099041273083495
0.2915639311424384,-0.882791082721754,7.531470008513701,0.6898498495159209,0.2863239550837091,-10.096659179581295
0.2827360203152208,-0.8799278431709169,7.538368507008861,0.588883257720108,0.25333130885744115,-10.098393392442755
0.27393674188351164,-0.8773945300823425,7.544257339586062,0.4878993237956804,0.23227859673689882,-10.104075377659342
0.2651627965826882,-0.8750717441149735,7.549136332824019,0.38685857001908697,0.22356210312527197,-10.113480877018773
0.25641207914153846,-0.8728361230837207,7.55300491852421,0.2857237612488992,0.22752478510480145,-10.12634850339799
0.24768371791070126,-0.8705608752326727,7.555862156136699,0.18446027621491928,0.244465403763637,-10.142395238412059
0.23897810915837453,-0.8681162211950363,7.557706758898848,0.08303632383079869,0.2746453745670887,-10.161329574757916
0.23029694694642416,-0.8653697674493654,7.558537122137157,-0.01857697191678047,0.31829379583351525,-10.182862899114227
0.22164324927193052,-0.8621868294910303,7.558351352417989,-0.12040560090792274,0.37561103327862294,-10.206719589579016
0.21302138097702022,-0.8584307191582441,7.5571472964089095,-0.2224727968037129,0.4467711730718568,-10.232646200733072
0.2044370737854378,-0.8539630074275255,7.5549225684408725,-0.32479925881104366,0.5319236033439484,-10.260420025926484
0.19589744371116255,-0.848643771394086,7.551674575852762,-0.4274034590703085,0.6311939421133953,-10.289857256989995
0.18741100599722169,-0.842331831972952,7.547400541262059,-0.5303020316402085,0.7446844958395796,-10.320820903322998
0.17898768767749218,-0.8348849870145563,7.542097520945656,-0.6335102406734385,0.8724744051080755,-10.353228582611179
0.17063883780734662,-0.8261602429634756,7.535762418538922,-0.7370425264995504,1.0146196102874583,-10.387060251973356
0.16237723537771187,-0.816014046860601,7.528391993273926,-0.840913129019284,1.1711527484147806,-10.422365909014045
0.15421709490910587,-0.8043025193764531,7.519982861983733,-0.9451367881094244,1.3420830711016063,-10.459273255013482
0.14617406971534133,-0.7908816886654371,7.510531494102639,-1.0497295206595592,1.5273964498190662,-10.497995275172654
0.13826525282868696,-0.7756077241672464,7.500034198896044,-1.1547094734112857,1.7270555071858262,-10.53883765100967
0.1305091755870145,-0.7583371690953882,7.488487104161931,-1.2600978499213824,1.9409998781041842,-10.582205874699806
0.12292580389606061,-0.7389271703143463,7.475886125662717,-1.3659199086683804,2.1691465593996573,-10.628611880532846
0.11553653219291715,-0.7172357047203497,7.462226926576033,-1.472206027473709,2.4113902467471755,-10.67867993961646
0.10836417514571366,-0.6931218022528779,7.447504866301296,-1.5789928268698736,2.6676034775525292,-10.73315147352805
0.10143295712318488,-0.6664457674773526,7.431714938032597,-1.686324341605154,2.9376362907400333,-10.792888321251963
0.09476849944841136,-0.6370694045699523,7.414851694616545,-1.7942532248176737,3.2213149692071417,-10.858873828244894
0.08839780540271183,-0.6048562548778809,7.3969091623683685,-1.9028419631001225,3.518439234720495,-10.932210898648304
0.08234924285393302,-0.5696718625306759,7.377880742737367,-2.0121640720866054,3.8287770001958568,-11.014115836449882
0.07665252422862627,-0.5313840925287173,7.357759102016501,-2.1223052304511043,4.15205542618335,-11.105906364426616
0.07133868330333909,-0.48986353826688384,7.33653604971199,-2.2333642940953706,4.487946544002259,-11.208981604188624
0.06644004792067025,-0.44498407282686125,7.314202406771036,-2.345454110137257,4.836045053248057,-11.324790963483304
0.061990207192401635,-0.3966236222943807,7.290747865669664,-2.45870201977209,5.19583501820419,-11.45478772422339
0.05802397096945783,-0.34466527211233877,7.266160845471942,-2.573249897014324,5.566641001130337,-11.600361547306182
0.05457731824833444,-0.2889988621010354,7.240428346501799,-2.6892535124873858,5.947557587431111,-11.76274197079907
0.051687329627324086,-0.22952328622672433,7.213535811376926,-2.8068809321953765,6.33734916979876,-11.942862112843992
0.04939209676505684,-0.16614979452873674,7.185467002054972,-2.9263095533238164,6.734309153451347,-12.141168023799873
0.047730598819769474,-0.09880670299422327,7.156203906521734,-3.047721233561815,7.136064338181465,-12.357354315281894
0.04674253178982724,-0.02744605961240862,7.125726694186116,-3.171294776714634,7.5393061378669515,-12.590000796846033
0.04646807119370316,0.04794700176626089,7.09401374641897,-3.2971947846830942,7.939425764548375,-12.83607814983722
0.04694754121136577,0.12734125941174462,7.0610417985721385,-3.4255555661814663,8.33002628512092,-13.090284103239705
0.04822095380548321,0.21064152226295385,7.026786242910324,-3.556458407213863,8.702282282992707,-13.344167401770985
0.05032736902811275,0.2976643450928809,6.991221658838185,-3.689900081231573,9.044121217298102,-13.584999726798676
0.05330401247904156,0.38810555726586193,6.95432265802587,-3.82575007849956,9.339215917589248,-13.794374367699014
0.05718506805170018,0.48149771644175443,6.916065157240874,-3.96369382217655,9.565815918637966,-13.946559803097745
0.062000045216117725,0.5771558756281341,6.876428219019108,-4.103159420207527,9.695523230965435,-14.006739524252197
0.06777160397239906,0.6741111079377884,6.835396624817033,-4.243226815450049,9.692257286994748,-13.929456702556338
0.07451271505177695,0.7710336808077358,6.792964356662533,-4.382521382475612,9.511873430780513,-13.657881401458322
0.0822230518598543,0.866152415115541,6.749139142837777,-4.519100196490195,9.103194622000204,-13.124924684922998
0.09088457601100972,0.9571843613355431,6.703948140872875,-4.650349443339425,8.411513162939308,-12.257640032659761
0.10045641962436515,1.0412994929649362,6.6574446464394805,-4.772925843666022,7.385709505548773,-10.986494559828587
0.11086941455401451,1.115156588020424,6.6097153880028205,-4.882790789264308,5.989633946079611,-9.260433683626552
0.12202098043421876,1.17505292748122,6.5608874801101775,-4.975395126100573,4.21685530761601,-7.066583204042307
0.13377150970903096,1.2172214805573802,6.511133528849172,-5.0460609581409965,2.105222477948621,-4.449819311376024
0.14594372451460474,1.2382737053368664,6.460672919267761,-5.090559151254757,-0.2550785201562302,-1.5236679791528331
0.15832646156797342,1.2357229201353042,6.409767327755214,-5.105795831046286,-2.7267860441996867,1.5366845417988821
0.17068369076932646,1.2084550596933072,6.3587093694447505,-5.0904289856282965,-5.146858505095399,4.522898388876525
0.18276824136625952,1.1569864746423533,6.3078050795884675,-5.0452000017395315,-7.358540234151956,7.236279449112124
0.19433810611268304,1.0834010723008336,6.257353079571073,-4.972837207248411,-9.242181940680496,9.528549626868674
0.20517211683569136,0.9909792528940287,6.207624707498589,-4.8775517109797235,-10.732986590625076,11.32469221446335
0.21508190936463165,0.883649386987778,6.158849190388791,-4.76430478883509,-11.82121338108897,12.622123625573419
0.22391840323450943,0.7654372531768883,6.11120614250044,-4.638083552579356,-12.539051551377485,13.472208115022271
0.2315727757662783,0.6400467376631134,6.0648253069746465,-4.503361471429133,-12.942492842751161,13.955534514100405
0.23797324314290944,0.5106218092356017,6.019791692260355,-4.363806126288129,-13.09520642791719,14.160362663363761
0.24307946123526544,0.3796697449564298,5.976153630997474,-4.222202499654491,-13.057661582043002,14.168435198647193
0.24687615868482973,0.2490931291359998,5.933931606000929,-4.08051814766802,-12.881566845774522,14.048048988942039
0.24936708997618973,0.12027746067825457,5.893126424524248,-3.9400376577785994,-12.608185381754547,13.852305457402942
0.25056986458297226,-0.005804393139290903,5.853726047946462,-3.80151460320457,-12.268886848280918,13.620264627087442
0.25051182065157934,-0.12849326162210006,5.815710901914416,-3.6653119569336954,-11.886690275441527,13.379313657216178
0.24922688803535833,-0.24736016437651534,5.779057782345079,-3.5315188203615335,-11.47804280149023,13.147749986578175
0.2467532863915932,-0.3621405923914176,5.743742594141464,-3.4000413204957516,-11.05445805379433,12.937099017324767
0.243131880467679,-0.4726851729293609,5.709742180936507,-3.270670330322504,-10.623872345407635,12.75400088200613
0.2384050287383854,-0.5789238963834372,5.677035477633282,-3.1431303215024426,-10.191699698803866,12.601661108819357
0.23261578977455102,-0.6808408933714759,5.645604174418258,-3.017113710414249,-9.76162024326516,12.480926315449482
0.22580738084083626,-0.7784570958041275,5.615433037314116,-2.892304447259754,-9.336152868776145,12.391063117132731
0.218022809882795,-0.871818624491889,5.586509992841518,-2.7683938160884267,-8.91706201440253,12.330313338930498
0.2093046236378761,-0.9609892446359143,5.558826054680633,-2.645090682699122,-8.505640896082646,12.296285783158485
0.19969473119151696,-1.0460456535967408,5.532375147853642,-2.522127824867537,-8.10290454743703,12.28623099529572
0.18923427465554954,-1.1270746990711111,5.5071538696049664,-2.39926551491458,-7.709717938429668,12.297233392391226
0.17796352766483842,-1.2041718784554079,5.483161214455821,-2.2762931809906677,-7.32687783415858,12.326345495869734
0.16592180888028435,-1.2774406567969936,5.460398282645914,-2.15302972603197,-6.955161979838482,12.370681734478854
0.1531474023123144,-1.3469922765953783,5.438867985385595,-2.0293229086871816,-6.595355422231717,12.427483954470274
0.13967747954636062,-1.4129458308176954,5.418574756298723,-1.905048069142479,-6.24826102212625,12.49416695343988
0.12554802123818365,-1.475428441038958,5.399524275607298,-1.7801063996080801,-5.914699220130543,12.568349655213133
0.11079373682779407,-1.5345754332402635,5.3817232116112175,-1.6544229030559487,-5.595500679844485,12.647875657293413
0.09544798249539144,-1.5905304400387084,5.365178982580658,-1.5279441464830146,-5.291494387967272,12.730825575340685
0.07954267809500436,-1.6434453839183811,5.349899541115827,-1.4006358907296077,-5.003493021343821,12.815522707522762
0.06310822425582055,-1.6934803141318193,5.335893182208531,-1.2724806636543802,-4.732276810155107,12.90053291864787
0.04617342111450236,-1.7408030822333704,5.323168375571988,-1.1434753344679014,-4.478576672515108,12.984659207241688
0.028765390292168652,-1.7855888489585214,5.311733622227309,-1.0136287423954844,-4.243057024164179,13.06693110008249
0.010909501802583436,-1.8280194192001633,5.301597334803354,-0.8829594313946595,-4.026298345384476,13.14658876709424
-0.007370692389418197,-1.8682824026540081,5.292767740489407,-0.7514935437237171,-3.8287792914896,13.22306152551396
-0.02605351641595828,-1.906570195568904,5.28525280505217,-0.6192629284685776,-3.650857844289224,13.295940174336602
-0.04511921837164733,-1.9430787740117963,5.2790601757674835,-0.48630352672521154,-3.492750704068156,13.364942341903104
-0.06455000611176528,-1.9780062810524779,5.274197140500231,-0.3526541033061805,-3.354509801143319,13.429869718603044
-0.08433006892229006,-2.0115513790639112,5.270670599467169,-0.2183554061201501,-3.235994450916273,13.490555663831007
-0.10444558271292917,-2.043911323573074,5.268487045405967,-0.08344984948184,-3.13683727678812,13.546801206708643
-0.12488469594865992,-2.075279696340955,5.267652546911149,0.05201816258524644,-3.0564015761152867,13.598296896113586
-0.14563749291206948,-2.105843712102108,5.268172728537002,0.18800113154638232,-2.993727309307655,13.644527303100823
-0.16669593003309058,-2.1357809851951846,5.270052739852466,0.32444640457739055,-2.9474623720192548,13.684654268145373
-0.18805373988504243,-2.165255608915377,5.27329720389824,0.4612929472588443,-2.915775316646698,13.717374290116107
-0.2097062959741962,-2.194413362081844,5.2779101333708285,0.5984666901600053,-2.8962453260870435,13.740744919962443
-0.23165042959501464,-2.2233758153427146,5.283894800272429,0.7358741393596298,-2.8857252001708433,13.751974915659682
-0.2538841877484418,-2.252233067344423,5.291253541666025,0.8733938885162266,-2.8801737188661094,13.747173689044184
-0.276406518421886,-2.281034804533084,5.299987480551187,1.0108656254066684,-2.8744555232922426,13.721057961621142
