th1 (rad),w1 (rad/s),th2 (rad),w2 (rad/s)
4.94164040067101,0.7980166432846947,2.699801689782656,1.9528386239967621
4.949620567103857,0.883584737650188,2.7193300760226236,1.9691317889214726
4.9584564144803585,0.9691692551218298,2.7390213939118384,1.9875780720728913
4.968148107031577,1.0547574590521982,2.7588971746325672,2.0083723844914143
4.978695681622098,1.140327668875893,2.7789808984774815,2.0317066856729755
4.990098958310857,1.2258489475523684,2.7992979653342114,2.0577694717329353
5.00235744778638,1.3112807164151652,2.8198756600515407,2.0867451595113584
5.015470254950532,1.3965722911827547,2.8407431116466544,2.1188133600237102
5.02943597786236,1.4816623343115727,2.8619312452468915,2.1541480357991447
5.044252601205476,1.56647822040344,2.883472725604883,2.1929165377458886
5.05991738340951,1.6509353130863098,2.905401890982342,2.235278518346774
5.076426736540373,1.7349361537315027,2.9277546761658098,2.281384719320549
5.093776098077688,1.8183695646083662,2.9505685233590153,2.3313756334857807
5.111959793723772,1.9011096716581986,2.973882279693873,2.385380042530849
5.130970890440354,1.9830148550355515,2.9977360801191817,2.443513434819333
5.15080103899071,2.0639266389502504,3.022171214467375,2.505876310334574
5.171440305380212,2.143668536170393,3.047229977570721,2.57255238347374
5.192876990741916,2.2220448668243558,3.0729555014054584,2.6436066987150117
5.21509743941016,2.298839575860198,3.0993915683926083,2.7190836792640853
5.238085835168762,2.3738150786535446,3.1265824051852493,2.7990051346837865
5.261823985955297,2.446711169741992,3.154572456532087,2.883368260247015
5.286291097652716,2.5172440354124475,3.1834061391345574,2.972143668323295
5.311463538006841,2.5851054167417655,3.2131275758177904,3.065273500471004
5.337314592174258,2.6499619755020123,3.2437803108225003,3.1626696779722896
5.363814211929278,2.7114549208377245,3.2754070076022233,3.264212358168999
5.390928761137656,2.76919995947634,3.308049131183913,3.369748673917274
5.418620760732419,2.8227876360301893,3.3417466179230857,3.479091843470436
5.446848637092721,2.871784132176737,3.37653753635779,3.5920207477161425
5.475566478414488,2.915732593545554,3.4124577438349517,3.70828008040752
5.504723804349943,2.954155050271858,3.449540544639027,3.8275811841814087
5.534265354852662,2.9865549905769275,3.4878163564808413,3.9496036899568994
5.564130904758431,3.012420635513846,3.5273123933804102,4.073998078834726
5.594255111113569,3.0312289462582247,3.5680523741687575,4.200389282857487
5.624567400576152,3.0424503721648875,3.6100562669973324,4.328381432890913
5.654991904297801,3.0455543175485813,3.6533400813262413,4.457563847458886
5.685447447473287,3.0400152673721714,3.69791571980083,4.587518334826623
5.715847600147009,3.025319466793402,3.743790903149096,4.717827851588795
5.746100794814943,3.0009719975220768,3.790969181664984,4.848086524715989
5.7761105147901635,2.9665040366631863,3.8394500469121438,4.977911001547052
5.805775555156795,2.921480023568883,3.8892291569276143,5.10695304579537
5.834990355392484,2.865504400524157,3.940298687385568,5.234913250756858
5.8636453993977256,2.7982275379891157,3.9926478198931363,5.361555698410341
5.891627674777617,2.719350409274307,4.046263376877239,5.486723361084358
5.91882117887036,2.62862754763244,4.101130610488083,5.6103540278716
5.945107454346684,2.525867804908551,4.157234150766799,5.732496548461637
5.970366132395769,2.410932437881145,4.214559116251415,5.853327229666628
5.99447545677458,2.2837300770511892,4.273092388548082,5.973166300542057
6.017312757545092,2.1442081813195064,4.332824051553502,6.092494484344126
6.038754839358287,1.9923406469146476,4.393748996396944,6.2119698800123855
6.0586782458274335,1.8281113150272381,4.455868695197068,6.332445558246383
6.076959358977706,1.6514932059261023,4.5191931507795315,6.454988506904694
6.093474291036967,1.4624233995534002,4.5837430358485785,6.580900796679925
6.1080985250325,1.260773599117656,4.649552043815378,6.7117440426058375
6.120706261023677,1.0463165986849838,4.716669484241436,6.849368338723206
6.131169427010526,0.8186892268835694,4.785163167628668,6.995946705841667
6.139356319279362,0.5773530608135848,4.855122634687085,7.154015449181088
6.145129849887498,0.3215557042511963,4.926662789178896,7.3265191461923145
6.14834540693001,0.05029850155933596,4.999927980640819,7.51685522686091
6.148848391945603,-0.23767722897763316,5.075096532909428,7.728905190914675
6.146471619655827,-0.5438610023902726,5.152385584818575,7.967023344262275
6.141033009631925,-0.8698523751600875,5.232055818261197,8.235921671502124
6.132334485880324,-1.2170535626974954,5.314415034976219,8.540326652981374
6.120163950253349,-1.5859952832873025,5.399818301506032,8.884166640974136
6.104303997420476,-1.974972276609736,5.4886599679157735,9.26884789437537
6.084554274654378,-2.377472112500687,5.581348446859527,9.68990036438329
6.060779553529371,-2.777798102878593,5.678247450503361,10.131131098747991
6.033001572500585,-3.144958446060266,5.779558761490841,10.556289843467583
6.001551988039982,-3.427850033828807,5.885121659925517,10.902239652494714
5.967273487701695,-3.5609443095795257,5.994144056450464,11.086070832213164
5.931664044605899,-3.4915977786045005,6.105004764772596,11.041275740576493
5.896748066819854,-3.2183724046386475,6.2154175221783605,10.768487603557531
5.864564342773468,-2.797947007116889,6.323102398213936,10.343413766519932
5.836584872702299,-2.306433624069236,6.426536535879135,9.864110679234388
5.813520536461607,-1.8007550923987714,6.525177642671479,9.400313618215222
5.795512985537619,-1.3103066211789578,6.619180778853631,8.984244145319684
5.782409919325829,-0.8457940819988443,6.709023220306828,8.623684207982912
5.773951978505841,-0.4087376881820195,6.7952600623866575,8.315009758146504
5.769864601624021,0.002891716340586714,6.878410159968123,8.05059249312642
5.769893518787427,0.3920148138122351,6.958916084899387,7.822109502672795
5.773813666925549,0.7613568785189505,7.037137179926115,7.621782845865325
5.781427235710739,1.1130761101744098,7.113355008384769,7.4427264534920825
5.792557996812483,1.4486923521125297,7.18778227291969,7.278952389218873
5.807044920333608,1.7691329398307034,7.260571796811878,7.125270857876314
5.824736249731915,2.07481901856339,7.3318245053906415,6.977176177883005
5.8454844399175485,2.3657619187385697,7.401596267169472,6.830750852850568
5.869142059104934,2.6416584101183878,7.469903775697977,6.682595451284883
5.895558643206118,2.9019811664621056,7.536729730210826,6.529782546083514
5.924578454870739,3.1460633210014,7.602027555671661,6.3698296662208405
5.956039088080753,3.3731765422722746,7.665725852333869,6.20068541421181
5.989770853503476,3.5826019160998426,7.7277327064759875,6.020723124760437
6.025596872664474,3.7736926588246917,7.787939937723592,5.828737100793045
6.063333799252721,3.945927551613256,7.846227308731522,5.623937334481049
6.1027930747688535,4.09895405531659,7.902466682076333,5.4059395989930525
6.143782615322019,4.232620333506706,7.956526078066263,5.174748811975894
6.186108818657086,4.346995826389333,8.008273566186022,4.930734560496244
6.229578776920979,4.4423805093987285,8.057580911790984,4.674598580042963
6.274002582014966,4.519303466406036,8.104326897591413,4.40733474942629
6.319195616679027,4.578511850626596,8.148400245085677,4.130182769477697
6.364980735185292,4.620951658298646,8.189702072780454,3.8445771268526356
6.411190251768279,4.64774198317194,8.22814784404898,3.552093211968355
6.457667671599998,4.660144552154795,8.263668776168663,3.2543925788917885
6.504269117121545,4.659530372449348,8.29621270195758,2.9531693243440436
6.550864420846039,4.6473452606313765,8.32574439520102,2.650099440759628
6.597337873452353,4.625075887379859,8.352245389608617,2.3467947798465483
6.643588632326152,4.594217770392126,8.375713337407083,2.044762963243759
6.689530810030073,4.55624639526696,8.39616096703952,1.7453742134970387
6.735093273982742,4.512592354493006,8.41361470917449,1.4498356749297483
6.780219197527672,4.464621085500981,8.428113065923789,1.159173378985102
6.824865408382682,4.413617479470046,8.43970479971364,0.8742216144903399
6.869001583177383,4.360775342814752,8.448447015858543,0.5956191214447657
6.91260933660553,4.307191440070111,8.45440320707299,0.32381126342910593
6.955681251006231,4.253863642138693,8.457641319707282,0.05905716586635268
6.998219887427618,4.201692552494092,8.458231891365946,-0.1985592577201164
7.040236812952559,4.151485883212324,8.456246298788745,-0.4491154336424563
7.081751671784682,4.103964792566385,8.45175514445232,-0.6928343242203199
7.122791319710346,4.059771359961897,8.444826801210118,-0.9300673958508238
7.163389033309965,4.019476340517919,8.43552612725161,-1.1612767775433754
7.203583796715145,3.9835862842529504,8.423913359476176,-1.387016668808784
7.2434196595576745,3.9525489924959616,8.410043192788088,-1.6079136100976963
7.282945149482634,3.9267560800770647,8.39396405668711,-1.8246446708476545
7.322212710283405,3.906541072807233,8.375717609978635,-2.037911896244257
7.361278121011477,3.8921709466935264,8.355338491016193,-2.248410425222312
7.400199830478412,3.8838282598870264,8.33285438676397,-2.456786484917776
7.439038113077283,3.881580013565756,8.308286521914791,-2.6635799415446377
7.4778539132129405,3.885328150297034,8.281650722499345,-2.8691443039232927
7.516707194715911,3.8947353919364818,8.252959279460113,-3.07353535147078
7.555654548635276,3.9091195792720574,8.222223925945405,-3.2763587821353592
7.594745744427997,3.9273112434969093,8.189460338124052,-3.476569442904948
7.6340188568629666,3.9474755751212465,8.154694643695002,-3.6722236474760743
7.673493612614179,3.966915679866283,8.117972407220241,-3.860207944874908
7.7131627694128415,3.9819041622083473,8.079370327771493,-4.036009610206471
7.752981811034925,3.9876358564956504,8.039010231669428,-4.193657687361808
7.7928581695998815,3.978441961622443,7.99707365479581,-4.3260289907718725
7.832642589216106,3.948410814992511,7.9538133648880915,-4.425719327667352
7.872126697366031,3.892451882260955,7.909556171611418,-4.4865270188843365
7.911051216188641,3.8075812643589573,7.864690901422574,-4.505234229042865
7.949127028832231,3.6939155853775985,7.819638559132145,-4.482966297671968
7.986066184686007,3.554821058949382,7.774808896155426,-4.425359089811355
8.0216143952755,3.3960562627850623,7.730555305257312,-4.341319026386389
8.055574957903351,3.2243208617384584,7.687142114993448,-4.240964745864622
8.087818166520735,3.0458831339861097,7.644732467534802,-4.1336981997108895
8.118276997860596,2.865741275205295,7.6033954855376935,-4.02703949212331
8.14693441061265,2.687373960018208,7.56312509061646,-3.926295674150183
8.173808150212832,2.512885416694493,7.5238621338749585,-3.8347837044643347
8.198937004379777,2.3433160458058198,7.485514296830315,-3.7542827446981173
8.222370164837836,2.178965417992211,7.447971469383334,-3.685499822382493
8.244159819017758,2.0196586862308923,7.411116471159509,-3.6284523690518573
8.264356405880067,1.8649410854848911,7.37483194746899,-3.5827468411642966
8.283005816734915,1.7142093899022397,7.339004479057347,-3.5477665783647843
8.300147910633937,1.5667959285707633,7.303526813273699,-3.5227913437938367
8.315815869919644,1.4220197875430645,7.26829889983576,-3.5070694589763733
8.330036067795076,1.279216520511827,7.233228205245997,-3.4998586737420303
8.342828233000194,1.1377543533513295,7.198229618508576,-3.5004471326933615
8.354205776533707,0.9970422216278275,7.163225147181643,-3.5081620215849525
8.364176198749986,0.8565330921385286,7.128143526965793,-3.522370785457614
8.372741529671371,0.7157247466530728,7.092919819111217,-3.5424779984797494
8.379898777137901,0.5741593760890068,7.05749503912642,-3.5679197871783663
8.385640370898791,0.4314228031873719,7.021815841254636,-3.598156960562887
8.389954598930665,0.2871438171412795,6.985834271649007,-3.632667534869899
8.392826037102077,0.14099389345179925,6.949507596300308,-3.670939056837778
8.394235976036596,-0.007312560290110376,6.912798205731931,-3.712460961647571
8.394162850433695,-0.15801737717507638,6.875673596115455,-3.756717107578535
8.392582676661943,-0.311317223782089,6.838106425039669,-3.8031785820887394
8.389469504424122,-0.4673616554147997,6.800074639218781,-3.851296856355035
8.384795887869974,-0.6262507084437724,6.761561670655231,-3.9004973663536493
8.378533380785536,-0.7880321325087817,6.722556696991695,-3.950173611141582
8.370653059460448,-0.9526983915870244,6.683054960880279,-3.9996818781255814
8.361126075544577,-1.1201835882972095,6.643058142099023,-4.048336727026571
8.349924239661606,-1.290360490161339,6.602574774828757,-4.095407385842491
8.337020634759993,-1.4630378589518365,6.561620700970332,-4.140115230556924
8.322390256170474,-1.6379583031707257,6.5202195486647625,-4.181632532961474
8.306010673138767,-1.814796887192406,6.478403223335148,-4.219082665240225
8.287862704266843,-1.9931607365277078,6.436212396682746,-4.251541943667608
8.267931096901565,-2.17258987500354,6.393696977246069,-4.27804327514508
8.246205198151529,-2.3525595147667344,6.350916544494618,-4.297581738329109
8.222679603003861,-2.53248399298621,6.307940727111327,-4.30912218573045
8.197354763074,-2.7117225099881637,6.2648495052540225,-4.311608895455862
8.170237537974117,-2.8895867734852003,6.221733416299464,-4.303977233393426
8.141341670239266,-3.065350594836122,6.17869364396553,-4.285167211686147
8.110688164290904,-3.23826141906619,6.135841971848668,-4.254138750825063
8.078305550100243,-3.4075537042885604,6.093300584340418,-4.209888373968485
8.044230013057357,-3.5724640016083686,6.051201700600733,-4.151466985595015
8.008505373041274,-3.7322475261144943,6.009687030744782,-4.077998313222865
7.971182897780129,-3.8861959543218605,5.968907047612554,-3.9886975197311174
7.93232093823691,-4.033656132962708,5.929020072415242,-3.882889422255585
7.891984376907283,-4.1740493365859574,5.890191178192686,-3.76002567850585
7.850243883541424,-4.306890664881614,5.852590921407628,-3.6197002204456856
7.8071749768926075,-4.43180812396542,5.816393919203171,-3.4616621294517183
7.762856895652953,-4.548560890842218,5.781777297908654,-3.2858250622873886
7.71737128674453,-4.657056223142273,5.7489190472857805,-3.0922722658988455
7.670800724513108,-4.757364458481345,5.717996324626792,-2.8812561797701632
7.623227079928294,-4.849731565717057,5.68918376282909,-2.6531916398467725
7.574729764271123,-4.934588782927627,5.662651846430623,-2.408641789500509
7.525383876441847,-5.012559022070093,5.6385654285356175,-2.1482959849371834
7.475258286221146,-5.084459950225676,5.617082468686245,-1.8729392545894374
7.424413686718889,-5.151303974116129,5.598353076140351,-1.5834132138644252
7.372900646977728,-5.214295746986109,5.582518944001707,-1.2805687051289745
7.320757689507866,-5.274828260453632,5.5697132569504175,-0.9652107657115584
7.26800940690333,-5.3344790437757075,5.560061149293302,-0.6380367515990941
7.214664616465573,-5.395008429733029,5.553680781777311,-0.29956849360077187
7.160714532168242,-5.458362221301446,5.5506850968413035,0.049920808525813765
7.106130909955228,-5.526681369103684,5.5511843049265615,0.4104846392819041
7.050864096264191,-5.6023213989507905,5.55528915131938,0.7825863879302885
6.9948408822746835,-5.687884218621855,5.563115015198683,1.16718843458138
6.937962040088465,-5.78626436196354,5.574786899544497,1.5658477943244846
6.88009939646883,-5.9007101678356975,5.590445377487742,1.9808176379003202
6.821092294790473,-6.034896625223074,5.6102535538667455,2.415149416076616
6.760743328538243,-6.192997927564594,5.634405048027512,2.8727785731921207
6.698813349262597,-6.379728222082158,5.663132833759433,3.3585495158346976
6.635016067041775,-6.600275847446196,5.69671832891778,3.8780746665555297
6.569013308567313,-6.859963055548794,5.735499075583335,4.437191011411942
6.500413678011825,-7.16326918366512,5.779870985697454,5.040504803676635
6.428780986175174,-7.511483239870042,5.83027603373422,5.687993540031667
6.353666153776474,-7.897673898117084,5.887155969134537,6.3678274286454855
6.274689414795303,-8.297331884053781,5.950834243420992,7.043121094689856
6.1917160959547655,-8.655281508394063,6.0212654543678905,7.633520416404832
6.1051632808708245,-8.87999547182919,6.097600658531939,8.00742739661515
6.016363326152533,-8.874182304151413,6.177674932498091,8.025660867808458
5.927621503111019,-8.611179792695783,6.257931541176175,7.649909174409437
5.841509705184061,-8.173973530669626,6.334430632920269,6.998308864487794
5.759769969877365,-7.684982240433271,6.404413721565147,6.2463461295011315
5.682920147473032,-7.225374758798014,6.466877182860158,5.512230831072351
5.610666399885052,-6.825683932465819,6.521999491170882,4.842678924497669
5.542409560560394,-6.4888361018737495,6.570426280415859,4.2449023998098685
5.477521199541656,-6.207779219479079,6.612875304413958,3.7114322435441998
5.415443407346865,-5.97341350422266,6.6499896268494,3.2314423080090497
5.3557092723046384,-5.777323720785334,6.68230404992949,2.794761982136546
5.297936035096785,-5.612441877104821,6.710251669750855,2.392941315290732
5.2418116163257364,-5.473011765859186,6.7341810829037625,2.019297295767501
5.187081498667145,-5.354367720393176,6.754374055861438,1.6686696261614848
5.1335378214632135,-5.252700242934405,6.771060752123052,1.3371359404511454
5.081010819033869,-5.164857872278375,6.784432111527564,1.021760896041234
5.029362240311086,-5.088192825285292,6.7946497204879766,0.7203929640832996
4.978480312058233,-5.020445370857985,6.80185365012881,0.4315039102606461
4.928275858349653,-4.959659335064078,6.806168689231416,0.154061759361228
4.878679264999012,-4.904121675810672,6.8077093068250285,-0.11257139939894778
4.829638048240906,-4.852320307462922,6.806583592831039,-0.36872358676492406
4.781114845166276,-4.8029155403976755,6.80289635696339,-0.6144840093919497
4.7330856897623,-4.7547214480543305,6.79675151686947,-0.8497643391070516
4.685538475281756,-4.706694196782889,6.7882538734784,-1.0743522287852192
4.638471533313927,-4.657924934227784,6.777510351190548,-1.2879581680442374
4.591892283971649,-4.607635292571306,6.764630769510106,-1.4902561545949786
4.5458159310459365,-4.555173969529761,6.749728207964156,-1.6809182912903586
4.500264191350639,-4.500013228357143,6.7329190250512525,-1.8596432697679564
4.455264059067067,-4.441744516204064,6.7143225923535725,-2.0261787195769903
4.410846613905027,-4.380072732881402,6.694060805157803,-2.180337533704308
4.3670458865762125,-4.3148089771005775,6.6722574298207595,-2.3220084741429634
4.323897796805206,-4.245861840925078,6.64903734507933,-2.4511615659162964
4.281439178395956,-4.173227505039839,6.624525729420167,-2.5678489655487717
4.239706903345557,-4.096979003194392,6.598847239764679,-2.6722021138658216
4.198737113313613,-4.0172550764318045,6.572125218626021,-2.7644260405049996
4.158564562549295,-3.934249035218348,6.544480958220971,-2.844791678497234
4.119222072197112,-3.848198003212407,6.516033041435999,-2.9136269812319915
4.080740092164988,-3.7593728447604677,6.4868967716236785,-2.9713075264146718
4.0431463637173835,-3.6680689933957353,6.4571836963595315,-3.01824715973851
4.006465673783426,-3.574598312613801,6.427001224762146,-3.0548890914734668
3.9707196906572877,-3.479282041925331,6.396452333847412,-3.081697725602381
3.9359268702380343,-3.382444816263525,6.365635356591389,-3.0991513831465176
3.9021024220753993,-3.284409697875925,6.334643842759923,-3.107735984506609
3.86925832509664,-3.1854941270695756,6.3035664829148566,-3.107939682038082
3.8374033838259445,-3.086006680124216,6.2724870860944755,-3.1002483829787537
3.8065433170247025,-2.986244516852849,6.241484602264688,-3.0851420717122657
3.776680871856174,-2.886491403757013,6.210633181547565,-3.063091825623913
3.747815957818604,-2.787016208583674,6.180002263291326,-3.0345574165815274
3.7199457957327673,-2.6880717757187096,6.149656689125511,-2.9999853965788694
3.69306507797558,-2.589894107072605,6.119656835159722,-2.9598075779755337
3.667166136904854,-2.4927017882593563,6.090058759379967,-2.9144398333144337
3.6422391190222605,-2.3966956137719513,6.060914361046822,-2.864281154798998
3.618272162884541,-2.3020583767985436,6.032271549498832,-2.809712927689735
3.595251579116556,-2.208954798958934,6.0041744202219345,-2.751098384203644
