th1 (rad),w1 (rad/s),th2 (rad),w2 (rad/s)
2.0071226007352663,2.490882526827521,4.36667710709523,0.2528533683928124
2.0320314260035417,2.3954735819223174,4.369205640779158,0.23363978282434697
2.055986161822765,2.3034446621119855,4.3715420386074015,0.22076014642264394
2.0790206084438845,2.214609016052224,4.373749640071628,0.2138986671961536
2.101166698604407,2.128783965722989,4.375888626743589,0.2127431766561553
2.122454538261637,2.045793614716477,4.378016058510151,0.21698868334122295
2.1429124744088015,1.9654709009024558,4.380185945343563,0.22633991714253204
2.162567183417826,1.887659099235638,4.382449344514988,0.240513055901517
2.1814437744101824,1.8122128698602762,4.384854475074004,0.259236802993962
2.1995659031087853,1.738998935095004,4.387446843103944,0.28225296139248046
2.2169558924597355,1.6678964572850266,4.390269372717868,0.30931662735624654
2.2336348570325857,1.5987971785079078,4.393362538991431,0.34019610625153757
2.2496228288176647,1.531605373083338,4.396764500053946,0.3746726344875836
2.264938882548498,1.4662376549520453,4.400511226398822,0.41253997531273223
2.2796012590980186,1.4026226743101313,4.40463662615195,0.45360394222674494
2.29362748584112,1.340700731381565,4.409172665574217,0.4976818918848116
2.307034493154936,1.28042332979841,4.414149484493065,0.5446022183955651
2.31983872645292,1.221752687620716,4.419595506677021,0.5942038726218057
2.332056253329127,1.1646612204375886,4.425537545403239,0.6463359232497743
2.343702865533503,1.1091310081172705,4.432000904635737,0.7008571707839051
2.3547941756146757,1.0551532544913713,4.439009476343577,0.7576358210521432
2.3653457081595897,1.002727747449538,4.446585834554098,0.8165492210981331
2.375372985634085,0.9518623254794354,4.454751326765079,0.8774836573398144
2.3848916088888794,0.902572355517541,4.463526163338477,0.940334213459308
2.393917332444055,0.8548802259944165,4.47292950547307,1.0050046835448643
2.402466134703999,0.8088148580890568,4.482979552308519,1.0714075344354772
2.4105542832848896,0.7644112373844317,4.493693627652874,1.1394639099374275
2.418198395658734,0.7217099672812309,4.5050882667522485,1.2091036685123986
2.4254154953315465,0.6807568446252467,4.517179303437373,1.2802654451066002
2.432223063777799,0.6416024569855244,4.529981957888439,1.3528967269289291
2.4386390883476543,0.6043017998368743,4.543510925157729,1.4269539321219755
2.444682106346023,0.5689139105029195,4.557780464478948,1.5024024793273956
2.450371245451052,0.5355015140538057,4.5728044892722215,1.579216835045707
2.45572626059159,0.5041306743711996,4.588596657622679,1.657380524340759
2.460767567335302,0.47487044123146355,4.605170462866086,1.736886088742016
2.4655162717476165,0.44779248144739625,4.622539323753506,1.8177349730430201
2.4699941965620904,0.4229706787720357,4.6407166734839365,1.8999373199592098
2.474223903349811,0.4004806833172944,4.659716046683529,1.98351164815728
2.4782287101829836,0.3803993865787758,4.679551163165101,2.068484384854374
2.4820327040487715,0.3628042926820009,4.700236007013645,2.1548892188528157
2.4856607469755914,0.34777275006835673,4.721784899202174,2.2427662333663503
2.489138474476275,0.33538100042252367,4.7442125615358375,2.3321607701565856
2.4924922844805,0.32570299313095363,4.767534169237403,2.4231219672091298
2.4957493144118095,0.318808903924639,4.791765388909495,2.5157009013674236
2.498937403451056,0.31476328565516987,4.816922397923169,2.6099482550350817
2.5020850363076077,0.3136227675766135,4.84302188047352,2.705911412441555
2.505221263983374,0.31543320747014925,4.870080994597935,2.8036308764792874
2.5083755960580754,0.3202261891920819,4.898117303362728,2.9031358825802243
2.5115778579499963,0.3280147479575772,4.9271486621885305,3.004439072874048
2.514858005429572,0.3387881987588652,4.957193052917271,3.107530084106325
2.518245887417161,0.35250594251385087,4.988268353758334,3.2123678996994807
2.5217709468422993,0.36909013376154126,5.020392032755329,3.3188718245143973
2.5254618481799147,0.3884171183086326,5.0535807510004735,3.426910966662854
2.529346019363001,0.4103075961878364,5.087849860667102,3.5362921625308172
2.533449095324879,0.43451554333666653,5.12321278229241,3.6467463695853333
2.537794250758246,0.4607160447191579,5.159680245988263,3.7579136890717684
2.5424014112054376,0.4884923629333379,5.197259382878981,3.8693273808471305
2.547286334834771,0.5173227991216248,5.235952656687452,3.980397507655166
2.5524595628259874,0.5465682021134353,5.275756631764004,4.0903952034373265
2.5579252448471217,0.5754613424385918,5.316660583798377,4.198438996040975
2.5636798582715077,0.6030997688500155,5.358644973758787,4.303485105696358
2.569710855960008,0.628444160203033,5.4016798248157505,4.404324134011969
2.5759952975620384,0.6503244965096874,5.44572306615587,4.499586961786033
2.5824985425271354,0.6674564856539542,5.490718935773731,4.5877628513518705
2.589173107383675,0.6784704536974241,5.536596564287249,4.667232527107961
2.5959578119206492,0.6819541885788812,5.583268889558329,4.736318203000223
2.602777353806438,0.6765099103204627,5.630632071588331,4.793350997930711
2.6095424529096425,0.6608236197267865,5.678565581567638,4.836753909539899
2.6161506891069104,0.6337427168747002,5.726933120663038,4.865135687089868
2.6224881162756573,0.5943553571414452,5.775584477533936,4.8773879948536525
2.6284316698470716,0.5420630902107417,5.824358357482473,4.872775858999789
2.633852300749179,0.4766375396393786,5.873086116072471,4.851010306697895
2.6386186761455726,0.3982527262481337,5.921596219139451,4.81229295015464
2.642601203408054,0.30748725802874144,5.969719148640997,4.75732523488965
2.6456760759883413,0.20529464182796314,6.017292400989893,4.687279761015113
2.647729022406621,0.09294459166601557,6.064165198600044,4.60373654016665
2.6486584683232812,-0.02805764334478486,6.11020256400171,4.508592023257952
2.6483778918898335,-0.15606417558572783,6.15528848423429,4.403952101154541
2.646817250133976,-0.28937904633408185,6.199328005245835,4.29202140547162
2.6439234596706354,-0.42634500919495716,6.242248219300551,4.175000135171887
2.639660009578686,-0.5654155560396714,6.28399822065227,4.054996882008375
2.634005854018289,-0.7052083202523076,6.324548189472354,3.933962389760414
2.626953770815766,-0.8445389965671891,6.363887813369958,3.8136457066984844
2.6185083808500944,-0.9824373004067934,6.402024270436943,3.6955713867814017
2.6086840078460263,-1.1181480179143517,6.438979984304757,3.5810345499559517
2.5975025276668826,-1.2511208834789496,6.474790329804316,3.471109728235443
2.584991318832093,-1.380993034119371,6.50950142708667,3.366669321072882
2.5711813884908996,-1.5075673602139217,6.543168120297399,3.268407905442931
2.5561057148887603,-1.6307894194302854,6.575852199351829,3.176869345344973
2.5397978206944574,-1.7507248754519633,6.607620892805278,3.0924744274950684
2.5222905719399376,-1.8675387751356616,6.638545637080229,3.0155474866509846
2.5036151841885808,-1.9814774435697866,6.668701111946739,2.9463411071884873
2.4838004097528827,-2.0928533734707098,6.698164523018624,2.8850584738200773
2.4628718760181756,-2.2020332065184682,6.7270151077568245,2.8318732986482122
2.440851543952991,-2.3094287305258017,6.755333840743306,2.7869474937773093
2.4177572566477328,-2.415490724887854,6.78320331568108,2.7504469134607556
2.3936023493988543,-2.520705455817704,6.810707784815687,2.7225555817592224
2.3683952948406772,-2.6255936341056825,6.837933340633279,2.7034888720664894
2.3421393584996206,-2.730711687256118,6.864968229353944,2.6935061302018606
2.3148322416270593,-2.8366552541778884,6.8919032906559625,2.692923244865897
2.2864656890852806,-2.944064876031694,6.918832523104621,2.7021256750801763
2.2570250403249634,-3.053633924303919,6.9458537798554225,2.721582445526421
2.2264887010819243,-3.166118868485349,6.973069604310687,2.7518616125616537
2.1948275123970706,-3.282352028219692,7.0005882204363035,2.793647671219589
2.1620039921148737,-3.4032569557885255,7.028524697148499,2.8477612850266936
2.1279714225569886,-3.52986651192057,7.057002309998766,2.915181514433009
2.092672757437783,-3.6633434514240317,7.086154125143096,2.9970702802765388
2.0560393229235427,-3.80500277577888,7.116124827945862,3.0947979106624746
2.017989295165754,-3.956333959891405,7.147072807052487,3.2099668851611067
1.97842595556684,-4.119018906889473,7.179172475904098,3.3444275788017688
1.9372357664979452,-4.294937191804097,7.212616751692115,3.5002735918045906
1.8942863945799042,-4.4861421472819405,7.247619487610161,3.679792761352287
1.8494249731070849,-4.694776742396028,7.284417415223684,3.8853291295692562
1.8024772056831246,-4.922872450215318,7.323270706519377,4.118974580872028
1.7532484811809714,-5.171931491623983,7.364460452328098,4.381948316343804
1.7015291662647316,-5.4421299131458145,7.408279935491536,4.673433662626458
1.6471078671332735,-5.730912495146603,7.4550142721178005,4.988548735929695
1.5897987421818074,-6.030765606145784,7.504899759477097,5.315151087532887
1.5294910861203495,-6.326302867868915,7.558051270352426,5.629673626199969
1.4662280574416604,-6.5919521125513345,7.614348006614425,5.8938264314404
1.4003085363161472,-6.793647029471719,7.673286270928829,6.056997559262363
1.33237206602143,-6.898850696947833,7.733856246521452,6.070502371930862
1.2633835590519515,-6.893494737616118,7.794561270240761,5.911717971332332
1.1944486116757904,-6.792687772578091,7.853678449954084,5.599525499987546
1.1265217339500095,-6.632646003941928,7.90967370495396,5.183217991952282
1.0601952739105902,-6.451502641333944,7.961505884873483,4.715502800830894
0.9956802474972508,-6.276453329860638,8.008660912881792,4.234207165822712
0.9329157141986444,-6.12208682772625,8.05100298454002,3.7596805042788395
0.8716948459213819,-5.994098643233918,8.088599789582808,3.2998514211440373
0.8117538594890428,-5.893254377219775,8.121598303794249,2.8557365343484524
0.7528213157168451,-5.81800662189565,8.150155669137733,2.425125921619124
0.6946412494978885,-5.76590476838048,8.174406928353925,2.0046102343884167
0.6369822018140837,-5.734261276357,8.194453030697808,1.590582472535277
0.5796395890505137,-5.720423799112277,8.210358855423161,1.179696308783492
0.522435351059391,-5.721854960506046,8.222155818510997,0.7690601537876731
0.46521680145433053,-5.736124606761002,8.229846420048874,0.3563115377012729
0.4078555553867205,-5.760866401406297,8.233409535425887,-0.06035801684226788
0.3502468913726576,-5.793723959149402,8.232805955257463,-0.482195720982996
0.2923096517811636,-5.832298882212225,8.227983998047634,-0.9098850664280284
0.23398666295904133,-5.874107098487268,8.218885147383354,-1.3435448872953306
0.17524559197416867,-5.916547190604295,8.205449698510401,-1.7827312634103083
0.11608012006812572,-5.956883124309805,8.187622385876299,-2.226445709052362
0.05651128882502768,-5.992243021905945,8.165357928785776,-2.673153780196893
-0.003411141394031772,-6.0196349417625585,8.138626390983807,-3.1208179993698817
-0.06360749081165737,-6.035979837122658,8.107418210990108,-3.5669481086416814
-0.12396728918288394,-6.038160949539574,8.07174872990369,-4.008670321614019
-0.18434889867827967,-6.023087908096567,8.03166202668755,-4.442815666043265
-0.24457977775924533,-5.9877728579127165,7.987233870027118,-4.8660259165060635
-0.3044575063383725,-5.92941512369188,7.938573610862057,-5.274874217707999
-0.36375165757529127,-5.845490271346312,7.885824868684977,-5.665996428994839
-0.42220656028875436,-5.73383894428859,7.829164904395029,-6.036228506011261
-0.47954494973164025,-5.592750456125417,7.768802619334916,-6.3827447957919405
-0.5354724542928944,-5.421035757262865,7.704975171376996,-6.70319182012482
-0.589682811865523,-5.218084065820322,7.637943253175748,-6.9958118529726
-0.6418636525237262,-4.983897284045397,7.567985134646022,-7.259550374747787
-0.6917026253641803,-4.719096543666628,7.4953896308985435,-7.4941414880798485
-0.7388935908008465,-4.424896116611006,7.420448216017745,-7.700165918991129
-0.7831425519669566,-4.103041695047925,7.343446556827834,-7.879077638389771
-0.8241729689174359,-3.7557126819360063,7.2646557804439365,-8.033197619474558
-0.8617300957367959,-3.3853913426116473,7.184323804249191,-8.165676720473773
-0.8955840091629124,-2.9947048777441583,7.102667037044453,-8.280433748539657
-0.925531057940354,-2.586248979302594,7.019862699559057,-8.3820787710203
-0.9513935477333799,-2.1624025975029855,6.936041911848854,-8.47583497771489
-0.9730175737084098,-1.7251431616942279,6.851283562071705,-8.567474278648385
-0.9902690053253521,-1.2758695217747014,6.765608819285221,-8.663282007120575
-1.0030277005430992,-0.8152371378480764,6.678975999214016,-8.77006439601888
-1.01118007192158,-0.3430079551246928,6.591275355253827,-8.895208440936102
-1.014610151472827,0.14208156870664712,6.502323270844466,-9.046795662722191
-1.0131893357857604,0.642421988023898,6.411855314217243,-9.233754221042105
-1.0067651159055215,1.161563247348887,6.319517772006822,-9.465995392797417
-0.9951494834320327,1.7040737292948132,6.224857818078848,-9.754391337407242
-0.9781087461390846,2.2749701628570773,6.127313904704776,-10.11024569217745
-0.9553590445105138,2.878128961176428,6.026211447783002,-10.54345138286946
-0.9265777548987495,3.512418703382217,5.920776933954307,-11.057597172824702
-0.8914535678649274,4.163236171773807,5.81020096222606,-11.638783901964239
-0.8498212061471893,4.786782673589496,5.693813123206417,-12.234315329083877
-0.8019533794112943,5.290435067840968,5.5714699699155785,-12.72551455216247
-0.7490490287328846,5.5366091898535394,5.444214824393954,-12.931902164430538
-0.6936829368343492,5.420801782646487,5.314895802749648,-12.716127571078168
-0.6394749190078843,4.985251067278399,5.187734527038867,-12.136469122091055
-0.5896224083351004,4.392141668273133,5.066369835817956,-11.407385304281943
-0.5457009916523691,3.781618526443757,4.952295982775136,-10.707920719449303
-0.5078848063879315,3.216408031138684,4.845216775580643,-10.111879839548486
-0.4757207260765447,2.7098995494219005,4.744097977185159,-9.629034089927922
-0.4486217305823257,2.2567048518920214,4.647807636285879,-9.246678938074743
-0.42605468206340547,1.8469160773742186,4.555340846905132,-8.948130287982186
-0.4075855212896633,1.4709602410844047,4.46585954402531,-8.718532917297226
-0.39287591887881923,1.1208268926787506,4.378674214852338,-8.545991071067562
-0.38166764995203173,0.7901287637780178,4.293214304141662,-8.421303904804176
-0.37376636231425153,0.47386123387312346,4.209001265093621,-8.337409068390643
-0.3690277499755203,0.1681351004726973,4.125627174409714,-8.288856787358517
-0.3673463989707933,-0.13004314570047476,4.042738606536129,-8.27138424081119
-0.36864683042779806,-0.4229328474072711,3.960024764128017,-8.281586267686848
-0.37287615890187076,-0.7121695770903116,3.8772089014511484,-8.31666182929166
-0.37999785467277386,-0.9988346736850902,3.7940422831582317,-8.374215940571407
-0.38998620140962476,-1.2834933128415615,3.7103001237525177,-8.452101089524781
-0.40282113453804036,-1.5662089466682385,3.62577911285727,-8.548286665715068
-0.41848322400472276,-1.8465407190598873,3.540296246200119,-8.660748686946729
-0.4369486311953216,-2.123529762954756,3.453688759330652,-8.787375082469593
-0.4581839288248692,-2.3956800601164567,3.365815008505956,-8.925884096269249
-0.48214072942603375,-2.660939655280643,3.2765561675432635,-9.073755151609891
-0.5087501259788402,-2.9166883082381387,3.1858186160271647,-9.228172869023034
-0.5379170090612215,-3.159737993348237,3.0935368873369344,-9.385985942616395
-0.5695143889947039,-3.386352906764786,2.9996770279107703,-9.543683374080048
-0.6033779180623517,-3.5922957678618723,2.9042401941699696,-9.69739133131944
-0.6393008757409705,-3.7729072104116956,2.807266280856775,-9.842894897435906
-0.6770299478450874,-3.923224950983359,2.7088373318824157,-9.97569043523129
-0.716262197354921,-4.038149035999413,2.609080427530103,-10.091076189809883
-0.7566436877149152,-4.112658263066617,2.5081696656320043,-10.184290487657181
-0.7977702703455813,-4.142079758132759,2.4063267607554324,-10.250707012687625
-0.8391910679269089,-4.122407157408198,2.303819690628556,-10.286092911806229
-0.8804151395009909,-4.050651634067964,2.2009587615104937,-10.286925635921548
-0.9209216558416705,-3.9251943866252867,2.0980895051512785,-10.250747697924059
-0.9601735997079234,-3.746092331509001,1.9955820281720378,-10.176517510232285
-0.9976345230230134,-3.515277087167818,1.893816853069715,-10.064895957413578
-1.0327872938946916,-3.2365889238550993,1.7931678934955793,-9.918401859308776
-1.0651531831332426,-2.9156076898942365,1.6939838749024916,-9.741382815291953
-1.0943092600321849,-2.559280274683352,1.596570046749572,-9.539781901494997
-1.1199020627790184,-2.175388674438113,1.501172227734622,-9.3207264165412
-1.1416559495233995,-1.771938720008963,1.40796496356921,-9.092006559724725
-1.1593753367234891,-1.3565637798290502,1.3170448979719627,-8.861534487822027
-1.1729409745217796,-0.9360260565636813,1.2284295530937424,-8.636870857163084
-1.1823012350874165,-0.5158668589317699,1.1420608445221114,-8.424880961437827
-1.1874599036767342,-0.10021919885419833,1.0578120349077331,-8.231547687303827
-1.188462095665276,0.3082364110114766,0.9754965580346948,-8.061936381583168
-1.1853797315551613,0.7082119400392777,0.8948771942188631,-7.920285564994937
-1.1782976121547686,1.0996930536700809,0.8156743385689138,-7.810189368863565
-1.1673006816180678,1.4838036165602062,0.7375724448802782,-7.734840200112072
-1.1524626454524658,1.862687200940656,0.6602240428791575,-7.697309193523274
-1.1338357734430593,2.2394301747274405,0.5832509509439248,-7.70085351367391
-1.111441471695785,2.61804341977226,0.5062424158071857,-7.749250729155003
-1.0852610374980625,3.00351432041089,0.4287499085156356,-7.8471693964322755
-1.0552258942939536,3.4019357215857395,0.35027821455131286,-8.00058927613982
-1.0212065370780963,3.820708934054909,0.27027232178991467,-8.217278336844798
-0.9829994477375472,4.2687903325611165,0.1880995384214667,-8.507300228290164
-0.9403115444119361,4.7568716206606005,0.10302653613856506,-8.883419671512177
-0.8927428282053301,5.297164571772645,0.014192339423443293,-9.360973373800574
-0.8397711824876037,5.90188166346265,-0.07941739431456245,-9.955973726742785
-0.7807523658529772,6.578068071531354,-0.1789771315819903,-10.678214273373833
-0.7149716851376637,7.313403472916176,-0.2857592743157286,-11.511888400289735
-0.6418376504085019,8.044128234305541,-0.40087815831862594,-12.371291065859216
-0.5613963680654466,8.607433429352835,-0.5245910689772181,-13.034495432511068
-0.47532203377191823,8.752291649323272,-0.6549360233023287,-13.157433477586086
-0.3877991172786855,8.352102229413186,-0.7865103580781896,-12.567138983321575
-0.3042780949845536,7.6112316320801305,-0.9121817479114054,-11.544186561659341
-0.22816577866375232,6.828815290188999,-1.0276236135279988,-10.493569096623979
-0.15987762576186232,6.144084876547289,-1.1325593044942386,-9.598004964709405
-0.09843677699638942,5.576196130253798,-1.2285393541413328,-8.877532292849873
-0.04267481569385143,5.107071605559253,-1.3173146770698314,-8.303872074686831
0.0083959003617411,4.71452671079119,-1.4003533978166998,-7.844973928030699
0.055541167469653,4.380179333773704,-1.4788031370970067,-7.475095072733373
0.09934296080739004,4.090074865760769,-1.5535540878243403,-7.175204644915922
0.14024370946499773,3.833796945636608,-1.6253061342734996,-6.9315125458536935
0.1785816789213638,3.6035199266257942,-1.6946212597320365,-6.734021007213998
0.21461687818762176,3.3932819874334337,-1.7619614698041763,-6.5754229563486755
0.2485496980619561,3.1984780005829188,-1.827715699367663,-6.450311318639424
0.2805344780677853,3.0155230651099556,-1.8922188125540573,-6.35460858189323
0.31068970871888485,2.8416427798425805,-1.9557648983729896,-6.285138031674068
0.33910613651731064,2.6747593310282545,-2.01861627868973,-6.239278937992401
0.3658537298275932,2.513452420855995,-2.0810090680696542,-6.214666306904499
0.3909882540361531,2.3569785190481882,-2.143155731138699,-6.208912073151652
0.414558039226635,2.2053300536857248,-2.2052448518702157,-6.21934188360591
0.4366113397634922,2.0593076385945426,-2.2674382707062746,-6.242762633875321
0.45720441614943763,1.920564512026621,-2.329865897045028,-6.275300713896967
