th1 (rad),w1 (rad/s),th2 (rad),w2 (rad/s)
0.9915983487606207,-1.1058754917026714,4.310662736126141,1.0105989865365375
0.980539593843594,-1.17854020323114,4.320768725991506,1.031432604719057
0.9687541918112826,-1.2492365277806061,4.3310830520386965,1.055447881897459
0.9562618265334766,-1.3178378369549473,4.341637530857671,1.0828895501203954
0.9430834481639271,-1.3842316652177262,4.352466426358875,1.113992253468993
0.9292411315117498,-1.4483242596754549,4.363606348893565,1.1489746294801342
0.9147578889149952,-1.5100451756388986,4.375096095188366,1.188033430908403
0.8996574371586062,-1.5693517297299258,4.38697642949745,1.2313379859405345
0.883963919861307,-1.6262331073165024,4.399289809356855,1.2790253177345887
0.867701588788142,-1.6807139195022505,4.4120800625342005,1.3311962464537281
0.8508944495931194,-1.732857019236508,4.425392024998738,1.387912775352556
0.8335658794007543,-1.7827654174370018,4.439271152752263,1.449197015733978
0.8157382252263843,-1.830583187640351,4.453763122909603,1.5150318353345889
0.7974323933499807,-1.8764953089557261,4.4689134412629485,1.5853633255967081
0.7786674402604234,-1.920726467471398,4.484767074518915,1.6601050828728912
0.7594601755857094,-1.9635389098051514,4.5013681253476445,1.7391441965268775
0.7398247864876579,-2.0052295125587944,4.518759567312913,1.8223487437327404
0.71977249136207,-2.046126291626472,4.536983054750241,1.9095765166422884
0.6993112284458053,-2.086584620388646,4.556078819916664,2.000684660701865
0.6784453822419189,-2.1269834525462152,4.576085666523682,2.095539888434127
0.6571755477164567,-2.1677218529205513,4.597041065408024,2.194028952492838
0.6354983291872511,-2.2092161297206117,4.618981354932952,2.296069113165054
0.613406167890045,-2.2518978385489405,4.641942046064603,2.4016184136807954
0.5908871895045555,-2.2962128973902507,4.665958230201411,2.5106856747870503
0.5679250605306531,-2.3426220194370213,4.691065086949282,2.62334023063365
0.5444988403362828,-2.391602643345216,4.717298489255618,2.7397215444865
0.5205828139028307,-2.443652524281597,4.744695704700483,2.860048960361725
0.4961462886600147,-2.499295148815512,4.7732961943041,2.984631963084241
0.4711533371718596,-2.5590871559981228,4.803142513934943,3.1138814348840427
0.44556246561187834,-2.6236279882224705,4.834281328283783,3.248322514109092
0.41932618572965363,-2.693572059523054,4.866764553424874,3.3886097849480397
0.3923904651344231,-2.7696438145447857,4.900650651274354,3.535545659750834
0.36469402698897524,-2.852656153247891,4.9360061078718624,3.6901029573758386
0.33616746545649634,-2.9435328012610205,4.97290713744562,3.853452821681373
0.3067321374438861,-3.0433352836271523,5.011441665662434,4.026999231042971
0.2762987846076146,-3.153295145597966,5.051711657972864,4.212421342373352
0.24476583315163492,-3.2748518212758198,5.093835871396597,4.41172461302799
0.2120173149388767,-3.409695794930672,5.137953117526877,4.627300670523996
0.17792035698956998,-3.5598148447299827,5.184226124232117,4.86199345751309
0.14232220854227015,-3.7275370026922965,5.232846058807247,5.119163621595273
0.10504683851534719,-3.91555495600994,5.2840376950232,5.4027310653179965
0.06589128895524779,-4.1268980009233145,5.3380650056763805,5.717150155284622
0.024622308946014644,-4.364779569678041,5.395236507229226,6.067219698996033
-0.01902548675076577,-4.632172533544926,5.455908704219187,6.457524884243707
-0.06534721208621502,-4.930821199493518,5.520483953061624,6.891109023168147
-0.1146554240811502,-5.259157728361201,5.5893950432933055,7.366635438149962
-0.16724700136476223,-5.608299035316729,5.663061397674805,7.872887500728686
-0.2233299917179295,-5.9553869795331185,5.741790272682092,8.379561551707365
-0.28288386151326067,-6.255533120361885,5.825585888199166,8.826070131131676
-0.3454391927168795,-6.440276508603993,5.913846589510483,9.11931883182401
-0.40984195780291943,-6.439059928280756,6.005039777828722,9.163392384332553
-0.474232557085727,-6.227054553211494,6.096673701672048,8.925685402989327
-0.536503102617842,-5.853474787385355,6.185930555701941,8.47560038187582
-0.5950378504916956,-5.40554698439988,6.2706865595206995,7.934002311604638
-0.6490933203356943,-4.953095830882635,6.350026582636746,7.396647135563292
-0.6986242786445207,-4.530960491956101,6.423993053992379,6.910592102360357
-0.7439338835640817,-4.149522070971497,6.493098975015982,6.489286823311675
-0.7854291042737968,-3.8076745196557216,6.557991843249099,6.130647879981983
-0.823505849470354,-3.500315256280386,6.619298322048919,5.827364193465096
-0.8585090020331578,-3.2216255924171,6.67757196398357,5.571342692799341
-0.8907252579573288,-2.966261728140138,6.733285390911563,5.355278852969136
-0.9203878752387302,-2.7296737841971423,6.786838179441254,5.173042698142412
-0.9476846130807016,-2.5081018380241358,6.838568606422679,5.019634579301765
-0.972765631460943,-2.29847218954313,6.888764952215697,4.891013658226278
-0.9957503533563743,-2.0982780712926834,6.93767508879796,4.78391126391449
-1.016733134069301,-1.9054731530092839,6.9855142014371046,4.6956655242102325
-1.035787865599394,-1.7183847724864167,7.032470856679207,4.6240851411129995
-1.0529717133242582,-1.5356461994120307,7.078711708090337,4.567340364543675
-1.0683281753183784,-1.3561449717811758,7.124385111735774,4.523876580657714
-1.0818896250361902,-1.1789840500112396,7.16962387754235,4.492345880037809
-1.0936794655363027,-1.0034528780082477,7.214547336342728,4.471552724165515
-1.1037139943163852,-0.8290059169847531,7.259262863584383,4.460410719925644
-1.1120040534862328,-0.6552466521257866,7.3038669707836394,4.457908315670119
-1.1185565200074907,-0.48191541981689445,7.34844605394034,4.463081889278182
-1.1233756742056598,-0.30887966874817935,7.393076872833122,4.474995207022248
-1.1264644708931415,-0.1361254731863359,7.437826824903344,4.492724605539553
-1.1278257256250048,0.03625071350603856,7.482754070958739,4.515349501806442
-1.1274632184899445,0.20805091809501686,7.527907565976804,4.541947978285695
-1.1253827093089943,0.37898580369368495,7.573327045759661,4.571597230479903
-1.1215928512720574,0.5486866136289298,7.61904301806446,4.60337861051399
-1.1161059851357682,0.7167191676752681,7.665076804169599,4.63638686547664
-1.1089387934590156,0.8825999189004705,7.711440672824366,4.669742972307324
-1.1001127942700109,1.0458138044380174,7.758138102547439,4.702609739766829
-1.0896546562256306,1.205833352023589,7.805164199945107,4.734209118266261
-1.0775963227053946,1.362138265383291,7.85250629112777,4.763839970793989
-1.0639749400515617,1.5142345375863888,7.90014469083571,4.79089495292061
-1.0488325946756978,1.6616720608663784,7.948053640364916,4.814875158926584
-1.032215874067034,1.8040597326689334,7.996202391954181,4.8354013312181285
-1.0141752767403447,1.9410772038323127,8.044556405266363,4.852220697543397
-0.9947645047020216,2.072482660946748,8.093078612241797,4.865208869380565
-0.9740396780925541,2.19811634973644,8.141730700935602,4.874366661190783
-0.9520585145951896,2.3178998873556353,8.190474367547509,4.879812119555677
-0.9288795157216333,2.4318317333217583,8.239272488743065,4.88176842914801
-0.9045611983884158,2.5399794514600305,8.288090173034545,4.880548644952456
-0.8791614038738155,2.6424695711586637,8.33689565948407,4.876538360929298
-0.8527367081622288,2.7394759339569514,8.385661043093362,4.870177459016073
-0.8253419488226593,2.8312073954719477,8.434362817683523,4.861942002750773
-0.7970298748679399,2.917895659966653,8.482982237711031,4.852327174423273
-0.7678509182682733,2.9997838799104097,8.531505509455263,4.841831937737819
-0.7378530794691692,3.0771164819819306,8.57992382883264,4.830945873471342
-0.7070819146493499,3.150130507727513,8.628233287567355,4.820138412012684
-0.6755806095720748,3.2190485995438705,8.676434671687481,4.809850494024341
-0.643390123576636,3.28407363215312,8.724533176627725,4.800488539781997
-0.6105493872551049,3.3453848912822637,8.772538062025545,4.792420502028699
-0.5770955383422822,3.4031356347765276,8.820462267045832,4.785973713474622
-0.543064181994517,3.4574518333453925,8.868322004180579,4.781434211744758
-0.5084896636610631,3.508431873187367,8.916136346298027,4.779047223368502
-0.4734053449291894,3.5561470049282478,8.96392681853171,4.7790185060025925
-0.43784387487990695,3.600642337041784,9.011717003591736,4.781516277118308
-0.40183745150948913,3.6419381924675656,9.059532166362919,4.78667349196075
-0.3654180695848135,3.6800316708437264,9.107398901282526,4.794590269391875
-0.32861775287637623,3.714898283059738,9.155344803976444,4.805336298434501
-0.29146877004577887,3.7464935480969084,9.203398166960788,4.818953089366141
-0.2540038345648098,3.77475446353468,9.25158769785445,4.835455960464547
-0.216256289929463,3.7996007804283845,9.299942257459096,4.854835675080002
-0.17826028212517914,3.8209360307019167,9.348490614209895,4.877059664176742
-0.14005092181815998,3.8386482712219703,9.397261210851664,4.902072787717942
-0.10166443910594028,3.8526105239747857,9.446281938728843,4.929797605301258
-0.06313833386619241,3.862680906983893,9.495579914781855,4.960134143393529
-0.024511524796353483,3.868702466540644,9.54518125621579,4.992959164480109
0.014175499869052963,3.870502738685713,9.59511084786059,5.0281249635085805
0.052880527255910095,3.8678930873045148,9.645392097495677,5.06545774014582
0.09155945812895525,3.8606678881493797,9.696046674897135,5.104755622399856
0.13016613701044905,3.848603652798446,9.747094231121133,5.145786448653821
0.1686521735384335,3.831458213870722,9.798552095607672,5.188285451313421
0.20696675567714073,3.808970122105106,9.850434950120807,5.231953025731708
0.2450564568981918,3.7808584358776116,9.902754480378125,5.276452811734509
0.28286504125696793,3.7468231122264193,9.95551900849547,5.321410359805629
0.32033327237923215,3.706546232313927,10.008733112093527,5.366412696414899
0.35739873470237143,3.6596943091927434,10.062397239057676,5.411009138217512
0.3939956777942989,3.605921926374242,10.11650733043985,5.45471372648544
0.43005489705804134,3.544876935779071,10.171054467704705,5.4970096532901955
0.4655036664158321,3.476207396619977,10.226024564237607,5.537356020850847
0.5002657403820319,3.399570356689689,10.281398124446115,5.575197206344063
0.5342614439489287,3.3146424604302838,10.337150096509555,5.60997498915674
0.5674078685532316,3.221132213734476,10.393249846401122,5.641143432447959
0.5996191906905763,3.118793548832871,10.449661280725602,5.668186298299929
0.630807126178905,3.007440126018237,10.506343143708602,5.690636526136617
0.6608815274390873,2.8869596022208444,10.563249508969967,5.708097037519784
0.6897511234612957,2.7573269164206256,10.620330479345165,5.720261876454671
0.717324392625502,2.6186155197076033,10.677533098109713,5.726936489741565
0.743510547822578,2.4710054442163596,10.734802463007128,5.728055835902845
0.7682206022647415,2.3147871842128183,10.792083021366157,5.723699018423521
0.7913684741068697,2.150360565011158,10.849320011550391,5.714099291494972
0.8128720797569813,1.9782280932052532,10.90646100446534,5.6996485864545345
0.8326543606890338,1.798982686201239,10.963457490329885,5.680896133222109
0.8506441875510461,1.613290123125642,11.020266451662106,5.658541258886498
0.8667770887823025,1.4218669843856855,11.07685186425097,5.63342097423325
0.8809957586261594,1.2254551940750025,11.133186073993304,5.606493441701967
0.8932503105669094,1.0247944990662696,11.189251008410324,5.578818795336414
0.9034982555575721,0.8205942817452603,11.245039196363688,5.551539013696086
0.9117041983750247,0.6135060051688772,11.300554586500649,5.525858615375609
0.9178392584267134,0.40409734893383764,11.355813172654406,5.503027866138147
0.9218802319160518,0.19282874803208955,11.410843451315788,5.484329992279211
0.9238085193963728,-0.019967358893343973,11.46568675123858,5.471073637027061
0.9236088458074393,-0.23410468625101588,11.520397487608852,5.464591530711398
0.9212677989449292,-0.44955917679354507,11.575043402915966,5.466246122069751
0.9167722071769937,-0.6664838635133227,11.629705864136664,5.477442777722982
0.9101073685418605,-0.8852236858084881,11.684480291913895,5.499651125495259
0.9012551316837756,-1.1063316727351156,11.739476803168847,5.534435204416889
0.8901918149564244,-1.3305880993244985,11.794821155213016,5.58349327984913
0.8768859339631794,-1.5590243542709097,11.850656088011508,5.648708447246893
0.8612956904204703,-1.792953284091766,11.907143172483977,5.732211390459462
0.8433661575795526,-2.0340075725269484,11.964465286388572,5.836456677715054
0.823026081854283,-2.284186968256263,12.022829853165723,5.964313331321068
0.8001842121717204,-2.5459132036842647,12.082472986478933,6.1191681456810905
0.7747250801348777,-2.822086763639814,12.143664667935743,6.305034303805329
0.7465042124984795,-3.1161290747821444,12.206715010973797,6.52664385579248
0.7153429217506581,-3.4319704347524196,12.271981449531722,6.789471207594239
0.6810232174031339,-3.773894054197396,12.339876161607664,7.0995663762432955
0.64328427686116,-4.146042171655249,12.410871825370098,7.462932474204306
0.6018238551446075,-4.551182513151103,12.48550115011214,7.883892760483031
0.5563120300130964,-4.987964064120843,12.56434007771697,8.36137467554447
0.506432389371888,-5.445415228486278,12.647953824472415,8.881362141354227
0.45197823708702517,-5.893555706498959,12.736767445885958,9.403899918396137
0.3930426800220356,-6.272392710034374,12.83080644506992,9.847716205926849
0.3303187529216918,-6.492850225593287,12.929283607129188,10.091197648495726
0.26539025066575894,-6.4747529215931126,13.030195583614145,10.024581700497187
0.2006427214498278,-6.2141779579213745,13.130441400619116,9.642633913925305
0.13850094187061407,-5.798023510042128,13.226867739758369,9.06399494844619
0.0805207067701928,-5.333513968188866,13.31750768924283,8.433603659898782
0.027185567088304136,-4.888306233628072,13.401843725841818,7.841143197526015
-0.02169749524797658,-4.48852654752465,13.480255157817078,7.319532196067585
-0.06658276072322308,-4.1379202199298435,13.553450479777753,6.871724359087459
-0.10796196292252153,-3.831746888322145,13.622167723368628,6.489747366200676
-0.146279431805743,-3.5631921950034524,13.687065197030636,6.163313331033204
-0.18191135375577752,-3.32572648818075,13.748698330340968,5.882882868199298
-0.21516861863758502,-3.1137749173965834,13.80752715902296,5.640461928327419
-0.24630636781155085,-2.922775335683469,13.863931778306235,5.4296007219830384
-0.27553412116838555,-2.749048219426694,13.918227785526065,5.245163353186816
-0.30302460336265247,-2.5896322241071195,13.970679419057934,5.083068432262696
-0.32892092560372366,-2.4421351332851056,14.02151010338056,4.940061968552041
-0.3533422769365747,-2.304612114969184,14.070910723066081,4.813534486822258
-0.37638839808626656,-2.175470451711678,14.119046067934304,4.701378461454029
-0.39814310260338337,-2.053396400516722,14.166059852548845,4.60187835494245
-0.4186770666085506,-1.937299540162178,14.21207863609827,4.513625756795944
-0.4380500620101724,-1.8262706306968406,14.257214893666228,4.435453424767912
-0.4563127683171408,-1.7195498385991064,14.301569427913908,4.366383429909988
-0.47350826670313184,-1.6165029111776017,14.345233262213007,4.305585805742979
-0.48967329581490787,-1.5166034540467963,14.388289120270437,4.252345055338783
-0.5048393303553759,-1.4194198822972037,14.430812570823825,4.20603261179289
-0.5190335291783479,-1.3246059047184842,14.472872896941753,4.166083926312677
-0.5322795882255327,-1.2318935892063074,14.51453373620488,4.131979316642287
-0.5445985241175958,-1.1410881729472462,14.555853529371303,4.103228076803075
-0.5560094058470683,-1.0520638486219758,14.596885810139334,4.079355643282489
-0.566530044333288,-0.9647598032668241,14.637679366572158,4.059893835945524
-0.5761776423659563,-0.8791758358170285,14.678278304931613,4.0443743363985245
-0.5849694007241265,-0.7953669585497003,14.718722048295598,4.03232561796808
-0.5929230703096235,-0.7134365188692421,14.75904530447528,4.023273485245872
-0.6000574354983159,-0.6335275745449407,14.799278039327739,4.016745210834042
-0.6063927112437654,-0.5558125161605338,14.839445491436079,4.0122769832715175
-0.6119508364053707,-0.480481234098964,14.879568261268794,4.009424037938737
-0.6167556487463604,-0.407728432595461,14.919662501648181,4.007772491768709
-0.6208329330723149,-0.3377409446982643,14.959740226565868,4.006951619510331
-0.6242103425192975,-0.27068604231000576,14.999809742760972,4.0066451705829875
-0.6269172029423976,-0.206701723106417,15.039876194466801,4.006600385255658
-0.6289842201734618,-0.14588977993528268,15.079942198319358,4.00663363881239
-0.6304431179728146,-0.08831214512363819,15.120008534707482,4.006632083541951
-0.631326239424051,-0.03399061199876617,15.160074855542902,4.006551188628728
-0.6316661455440387,0.01709035392852818,15.200140367429189,4.006408594323851
-0.6314952420047534,0.0649783184064873,15.240204453372428,4.006275104381328
-0.6308454588206885,0.10974589487895284,15.28026720441624,4.006263877938557
-0.629747999871899,0.15148292732895702,15.320329843195626,4.006518932146618
-0.6282331705986094,0.19028862429278726,15.360395032517092,4.007203955110506
-0.6263302843556815,0.22626427334835233,15.400467072068198,4.008492207564114
-0.624067641622198,0.25950696785696614,15.440551994143838,4.0105580222570225
-0.6214725719436283,0.29010457869227013,15.48065757436641,4.013570145999498
-0.6185715261567055,0.31813203209307483,15.520793275826405,4.0176869477767125
-0.6153902058357748,0.3436488258604612,15.560970145304172,4.0230533555081704
-0.6119537175771701,0.36669763314424497,15.601200678859254,4.029799286156266
-0.6082867412457277,0.3873038010575927,15.641498671720816,4.0380392906575056
-0.6044137032351518,0.40547554111516315,15.681879064627392,4.047873133148002
-0.6003589478240001,0.4212046197849116,15.722357795958871,4.059387048954182
-0.596146901626151,0.43446738108864214,15.762951666448412,4.07265546541537
-0.5918022278152646,0.4452259620097634,15.803678221102565,4.0877430143815925
-0.5873499681951669,0.45342959051121057,15.844555651246381,4.104706708896031
-0.5828156722900548,0.4590158822335428,15.885602718335342,4.123598195517699
-0.5782255134677194,0.46191207394479583,15.926838700290519,4.144466026375237
-0.5736063927282715,0.46203614910238155,15.96828336055427,4.167357921132615
-0.5689860312372477,0.4592978236536545,16.009956939765598,4.192323009163267
-0.5643930530007111,0.4535993689694735,16.05188016985723,4.219414057343734
-0.5598570593110164,0.444836254223343,16.094074310430667,4.24868970009856
-0.5554086967687829,0.43289759324358773,16.13656120743165,4.280216696738846
-0.551079720836347,0.4176663814504483,16.17936337439904,4.314072247718515
-0.5469030570218426,0.39901950741321435,16.222504096876225,4.350346407035058
-0.5429128619477105,0.37682752118410967,16.266007560946576,4.389144633345342
-0.5391445867358694,0.35095413814415566,16.30989900728003,4.430590528058207
-0.5356350453544279,0.32125545280670065,16.35420491256061,4.474828815215629
-0.5324224908263608,0.28757883198232836,16.398953200712768,4.522028625815589
-0.5295467025065376,0.24976145100284575,16.444173486970925,4.572387158719859
-0.5270490879965091,0.20762843043847495,16.489897358558125,4.6261338016950635
-0.5249728036921243,0.1609905241141792,16.536158696575075,4.6835348095828
-0.5233628984509825,0.10964130262687652,16.582994044670905,4.744898651968024
-0.5222664854247138,0.05335377074948741,16.630443031190584,4.810582159459069
-0.5217329477172189,-0.00812364647771037,16.678548852785173,4.880997614457426
-0.521814184181996,-0.0750718128922861,16.72735882892975,4.95662094630766
-0.5225649023109189,-0.14780633868818588,16.776925038392825,5.038001196678319
-0.5240429656978007,-0.226683810706573,16.82730505035961,5.125771409180686
-0.5263098038048665,-0.31210875926291354,16.878562764451416,5.220661050011331
-0.5294308913974957,-0.4045412074795791,16.93076937495153,5.323509952533079
-0.5334763034722915,-0.5045044313478539,16.984004474476862,5.435283542934031
-0.53852134778577,-0.6125921667415373,17.038357309906203,5.557088649253526
-0.5446472694531853,-0.7294738051967106,17.09392819639874,5.690188351880133
-0.5519420075051524,-0.8558949029580374,17.15083007991754,5.8360128032126015
