th1 (rad),w1 (rad/s),th2 (rad),w2 (rad/s)
3.4233330891716363,-2.0973146612705005,5.177962248779758,-2.3295103894626186
3.402359942558931,-2.038355828962618,5.154667144885131,-2.2744095723635143
3.3819763842693047,-1.9824326691537009,5.131923049161496,-2.216610600897291
3.3621520575777675,-1.929559430690126,5.109756943152523,-2.1563590121151957
3.3428564632708664,-1.8797380906260734,5.088193353031371,-2.093883436719532
3.3240590823646055,-1.8329591929836289,5.067254518664176,-2.029396470655307
3.305729490434769,-1.7892027160944626,5.046960553957622,-1.9630956175744578
3.2878374632738243,-1.7484389501713913,5.027329597781878,-1.8951642759987417
3.2703530737721103,-1.7106293703479294,5.00837795502189,-1.8257727480608492
3.253246780068631,-1.6757274936612017,4.990120227541282,-1.755079249768552
3.236489505132019,-1.643679711317529,4.972569435043597,-1.6832309057271408
3.220052708018844,-1.6144260900653924,4.955737125986325,-1.6103647141087765
3.20390844711819,-1.587901138614701,4.939633478845238,-1.5366084703315925
3.1880294357320427,-1.5640345368014024,4.924267394141922,-1.462081640381025
3.1723890903640286,-1.5427518266266567,4.909646577738112,-1.3868961769584596
3.156961572097762,-1.5239750654290969,4.895777615968528,-1.3111572736754575
3.141721821443471,-1.5076234423090913,4.882666043231773,-1.234964054330322
3.12664558702038,-1.4936138595488568,4.87031640268847,-1.1584101959173039
3.1117094484248917,-1.4818614811953037,4.858732300729297,-1.0815844854401369
3.096890833612939,-1.4722802512265367,4.847916455874896,-1.0045713118451842
3.0821680311006734,-1.4647833838394515,4.837870742756444,-0.9274510954701372
3.067520197262279,-1.4592838284044876,4.828596231801742,-0.8503006583364707
3.052927358978234,-1.4556947115618086,4.820093225218377,-0.773193539411446
3.038370411862616,-1.4539297588061588,4.8123612898242625,-0.6962002596409708
3.0238311142745546,-1.4539036977481574,4.805399287227853,-0.6193885421195602
3.009292077297073,-1.4555326450682489,4.799205401806657,-0.5428234932283075
2.9947367508463905,-1.4587344790139063,4.793777166874374,-0.46656775094563413
2.9801494060562512,-1.4634291991466588,4.789111489364918,-0.3906816068274036
2.9655151140647846,-1.4695392749364453,4.785204673296644,-0.3152231083711551
2.9508197213154204,-1.4769899847377925,4.782052442212932,-0.24024814863206467
2.9360498214680426,-1.4857097466742681,4.779649960726611,-0.1658105500542564
2.9211927240013,-1.4956304430112615,4.777991855226069,-0.09196214952909569
2.9062364195711874,-1.506687739716877,4.777072233730777,-0.01875289170135752
2.8911695421740187,-1.518821403098841,4.776884704813764,0.05376906247574968
2.8759813281430304,-1.5319756156617466,4.7774223954385215,0.1255572049751571
2.860661571986413,-1.5460992936511369,4.778677967488273,0.19656652080831347
2.8452005790499015,-1.5611464091335199,4.780643632696356,0.2667532921557088
2.829589114958566,-1.5770763198958733,4.7833111656179135,0.33607485970488066
2.8138183517596076,-1.5938541109220206,4.7866719142149625,0.40448933442965074
2.7978798106503873,-1.6114509516989122,4.790716807559259,0.4719552530890185
2.7817653011333983,-1.629844474099154,4.795436360090149,0.5384311707831982
2.7654668563924067,-1.6490191760440533,4.8008206717979816,0.603875184005056
2.748976664631966,-1.6689668565288622,4.806859423638032,0.6682443778133988
2.732286996066678,-1.6896870878272985,4.813541867416166,0.7314941911010819
2.7153901251884047,-1.7111877307020935,4.820856809327177,0.7935776945405797
2.6982782478813836,-1.7334854981187382,4.8287925862725825,0.854444776812623
2.680943392900196,-1.756606572137672,4.837337034040709,0.9140412363694176
2.6633773271788193,-1.7805872771410125,4.8464774464044025,0.9723077785398074
2.645571454407409,-1.8054748100621845,4.8562005241898,1.0291789216352132
2.6275167063067872,-1.831328024475728,4.866492313406153,1.0845818213713343
2.60920342606203,-1.858218259813913,4.877338131619866,1.138435031040491
2.590621243463891,-1.8862301990321568,4.888722481930271,1.1906472262873788
2.5717589414735693,-1.9154627270430555,4.900628954193145,1.2411159390839201
2.5526043142031387,-1.9460297473494406,4.9130401135839845,1.2897263667851437
2.5331440167296444,-1.9780608946044953,4.925937377251836,1.3363503503481975
2.5133634077835993,-2.0117020553672003,4.939300880755318,1.3808456523277548
2.4932463872299273,-2.047115577295615,4.953109337278596,1.4230557113717701
2.4727752314569713,-2.084480008027586,4.967339894392313,1.4628101063287406
2.4519304313766956,-2.1239891594832536,4.981967995455601,1.499926029262834
2.430690539781863,-2.1658502432342193,4.996967255748229,1.5342111400595577
2.4090320373495206,-2.2102807722833138,5.012309367148825,1.5654682498570873
2.3869292296266873,-2.2575038820143085,5.027964049647396,1.5935023451013817
2.3643541908065444,-2.307741700952966,5.04389907309841,1.6181305004492605
2.3412767737970146,-2.3612064189354096,5.060080378102902,1.6391952102975234
2.3176647096076604,-2.41808878093608,5.076472330205878,1.656581559663405
2.2934838217982993,-2.4785439081067078,5.093038145802511,1.6702384129857542
2.2686983827172322,-2.5426746418554376,5.109740529932369,1.680203381733331
2.2432716362986778,-2.6105130403800567,5.126542563749702,1.6866307095182502
2.2171665058948773,-2.6820012239863242,5.143408870844884,1.6898203918705927
2.190346493655014,-2.7569734180783128,5.16030707476359,1.690245891907607
2.162776759474231,-2.835141676362543,5.1772095336826665,1.688576870775365
2.1344253427106055,-2.916088216900061,5.19409530239042,1.6856926607499918
2.105264460541605,-2.9992673656833992,5.21095222899792,1.682682070189076
2.075271786884771,-3.0840195839639475,5.22777904969981,1.6808258142117842
2.0444315910451314,-3.1695988550874907,5.244587307841928,1.681559579949113
2.0127356024942564,-3.2552128952733077,5.261402903641419,1.6864183806147512
1.9801834735415234,-3.3400735180787504,5.278267087447566,1.6969660303180882
1.946782738360736,-3.423452493393747,5.295236747750747,1.714716604699284
1.9125482134267984,-3.5047369249128093,5.312383913797739,1.7410568590049318
1.8775008441776704,-3.5834779299023776,5.329794482387789,1.7771791276581737
1.8416660648786467,-3.659427368460159,5.347566273664371,1.8240329941119153
1.805071791194045,-3.7325593268187873,5.36580660360549,1.8823012611029266
1.767746197925857,-3.8030755360105464,5.384629616216519,1.952402146240415
1.7297154425657517,-3.8713963305388237,5.404153637678923,2.0345160312086756
1.6910014792603634,-3.9381406350899013,5.42449879799101,2.128632263340371
1.6516200729094643,-4.004099537502356,5.4457851206244134,2.234609906979245
1.6115790775344407,-4.070208236263306,5.468131219694206,2.352246066084184
1.5708769951718078,-4.1375207105928,5.491653680355047,2.4813462428914503
1.5295017880658799,-4.207190625313888,5.516467142783962,2.621792784061473
1.487429881812741,-4.280461038781345,5.542685070624577,2.7736093914363362
1.4446252714249275,-4.35866466712731,5.57042116453894,2.9370216129578885
1.4010386247536544,-4.443235931146286,5.59979138066852,3.11251498479979
1.3566062654421915,-4.535735857690038,5.630916530516518,3.300894009161101
1.311248906865291,-4.6378911553702595,5.663925470608129,3.503346475648854
1.2648699953115885,-4.7516494334876045,5.698958935364618,3.721518891133217
1.2173535009767125,-4.879253564072175,5.7361741242759505,3.95761011892241
1.1685609653359907,-5.023339547001919,5.775750225465175,4.21449184100889
1.1183275698659716,-5.187063762937715,5.817895143875264,4.4958660607434275
1.0664569322365944,-5.374266685533319,5.862853804482698,4.806470961398178
1.0127142653812613,-5.5896795394462835,5.91091851409668,5.152345097957727
0.9568174699867985,-5.839174151675195,5.962441965076257,5.541150748840237
0.8984257284700465,-6.130034137566823,6.01785347256466,5.982526053926005
0.8371253870943783,-6.471161150198934,6.07767873310392,6.488345378196632
0.772413775592389,-6.872955832110736,6.142562186885887,7.0725239112425555
0.7036842172712816,-7.346163655570696,6.213287425998312,7.749373704780551
0.6302225807155747,-7.897882848145425,6.290781163046118,8.527987472015056
0.5512437522341205,-8.520621617053763,6.376061037766268,9.396886533446626
0.46603753606358284,-9.167316105585043,6.470029903100735,10.288986402228302
0.3743643750077324,-9.710968399999025,6.572919767123018,11.02497956806422
0.27725469100774214,-9.935313727087651,6.68316956280366,11.300236824973728
0.17790155373686561,-9.678672998809711,6.796171931053397,10.886521911616603
0.0811148237487685,-9.05474658861555,6.905037150169563,9.941144825495531
-0.00943264213738701,-8.340410156376938,7.004448598424519,8.84958383259897
-0.0928367437011564,-7.704990722152708,7.092944436750509,7.847416391574917
-0.16988665092268346,-7.188797077296903,7.171418600666258,6.990638977501064
-0.2417746216956525,-6.781157591118665,7.241324990441269,6.264296172929494
-0.30958619760683914,-6.461646291036468,7.303967952170564,5.6397416920059324
-0.37420266051720386,-6.212025734924468,7.360365369090623,5.091236837817688
-0.43632291786644856,-6.0181852033497645,7.4112777374688,4.598698779443521
-0.4965047698999462,-5.869590381914032,7.457264725263235,4.147019974804454
-0.5552006737190865,-5.75837255236545,7.498734925011279,3.7249039396789603
-0.6127843992427411,-5.678548010597368,7.535983964408069,3.323896194842085
-0.6695698793487148,-5.625427889197287,7.56922292635649,2.937693358438719
-0.7258241582406877,-5.59518423703328,7.598599859940877,2.5616809890821677
-0.7817760006110205,-5.5845302292543435,7.624216669831698,2.1926362942913418
-0.837621302903564,-5.590483000921354,7.646143032774612,1.828541824935867
-0.8935261329127775,-5.610189524655212,7.66442845102397,1.468467445480859
-0.9496280281593296,-5.640805355331308,7.679113125478779,1.1124859355817829
-1.0060360817126426,-5.679422346070798,7.690237984834597,0.7615932852745823
-1.0628303051733505,-5.723044557595208,7.697853917687342,0.4176099559769866
-1.1200607507493026,-5.768611565406993,7.702030017247112,0.08304584965923628
-1.1777468664033726,-5.81306548937563,7.702860475743704,-0.2390795165283519
-1.235877521297129,-5.853453146624003,7.70046968057842,-0.5454592665742833
-1.294412052763369,-5.887049249912119,7.695015087912678,-0.8327500651869171
-1.3532825452624901,-5.9114824564633865,7.686687587260809,-1.0978284780384102
-1.412397369827124,-5.924845048220525,7.675709302480425,-1.3380249339592847
-1.4716458203093292,-5.925769914167182,7.662329053140832,-1.5513090728867747
-1.530903519451001,-5.913464785773808,7.6468159624119645,-1.736407886663502
-1.5900381673087391,-5.887701644579627,7.62945188354533,-1.892849400779914
-1.6489151837545355,-5.848766701772206,7.610523389537531,-2.020936424247697
-1.7074028507722576,-5.797381568159285,7.590314025295054,-2.1216641192300068
-1.7653766664538504,-5.73460839233851,7.569097384102754,-2.1966001122277183
-1.8227227503772354,-5.661751089039262,7.547131382980477,-2.2477464633039017
-1.879340261267628,-5.580262235411651,7.524653918347438,-2.277400096382304
-1.9351428836217446,-5.491661891921625,7.501879917383615,-2.2880238298380537
-1.9900595025409609,-5.397471415088274,7.478999679085234,-2.2821353611951216
-2.0440342166918435,-5.2991628066356755,7.456178325473283,-2.2622174159808366
-2.0970258447582,-5.1981224651640225,7.433556151313475,-2.2306492127329696
-2.14900706940984,-5.095627304439027,7.411249659186145,-2.189657467689544
-2.1999633424542306,-4.992830890754623,7.38935308450925,-2.1412841788206185
-2.249891651361777,-4.890757321886514,7.367940242721044,-2.0873681222495026
-2.298799224580642,-4.790300844316927,7.347066561498549,-2.0295371084588685
-2.346702233023811,-4.692229556435176,7.32677119041396,-1.9692083792171384
-2.3936245285881625,-4.597191894955938,7.307079106621789,-1.9075949411000603
-2.439596447537722,-4.505724909706267,7.288003157210788,-1.8457160455779533
-2.4846536966347847,-4.418263583770769,7.269545996755008,-1.7844103974855052
-2.5288363324724923,-4.335150652294244,7.2517018927801535,-1.724350988245226
-2.572187838995435,-4.256646521785841,7.234458382897701,-1.6660607073208207
-2.6147543042132932,-4.182939002592426,7.217797775824493,-1.609928091845783
-2.6565836942392176,-4.114152649897763,7.201698494906035,-1.5562227391559869
-2.6977252207381954,-4.050357571057221,7.186136267514475,-1.5051100385852223
-2.7382287964487677,-3.99157760519781,7.171085167128623,-1.456664984408239
-2.7781445725007456,-3.9377978188894818,7.156518517284541,-1.4108849166020647
-2.8175225506896404,-3.888971291988466,7.14240966811852,-1.3677011040493479
-2.856412263609525,-3.8450251921252145,7.128732657078027,-1.326989138746293
-2.894862515530777,-3.805866155780187,7.115462765690564,-1.2885781515989738
-2.932921177088579,-3.771385009124776,7.102576984174575,-1.2522588921571398
-2.9706350271798265,-3.74146087329719,7.090054395253003,-1.217790737564204
-3.0080496359127986,-3.7159647069699147,7.0778764878773615,-1.1849077113834325
-3.0452092829824977,-3.69476234437589,7.066027410763527,-1.1533236019950726
-3.0821569064262566,-3.677717089833014,7.054494174743576,-1.1227362740704
-3.1189340773245866,-3.6646919306824097,7.043266812002872,-1.092831266248971
-3.155580996631411,-3.65555142986501,7.032338499340383,-1.06328476449872
-3.192136510930061,-3.6501633575064423,7.021705651695395,-1.0337660345254878
-3.2286381445051253,-3.648400118226075,7.0113679913501405,-1.003939388687727
-3.265122145687386,-3.650140027750878,7.001328597463263,-0.973465753700045
-3.301623545964895,-3.6552684890701186,6.991593939926262,-0.9420038953864478
-3.3381762308555962,-3.663679115041115,6.9821739009723975,-0.9092113461665451
-3.3748130220060073,-3.675274841241661,6.973081787510732,-0.8747450700207765
-3.411565770418424,-3.689969070127436,6.964334336810524,-0.8382618884931881
-3.4484654611196985,-3.7076868853444873,6.9559517179255925,-0.7994186798894034
-3.4855423299731436,-3.7283663735176775,6.947957531126699,-0.7578723521893274
-3.52282599370832,-3.751960090147259,6.940378807604805,-0.7132795782418412
-3.560345594609793,-3.778436706584331,6.933246011822387,-0.6652962694159517
-3.598129961675636,-3.8077828766480804,6.926593049128227,-0.613576750872302
-3.636207790442117,-3.8400053645742043,6.9204572816195045,-0.557772587755793
-3.6746078440878587,-3.875133480995807,6.914879555741947,-0.49753099658914424
-3.7133591788978166,-3.9132218809938943,6.9099042457760556,-0.4324927595749423
-3.7524913977077556,-3.954353788458995,6.9055793181803065,-0.3622895408847449
-3.7920349355923455,-3.998644724748596,6.901956422771459,-0.2865404826850046
-3.8320213828398315,-4.046246837721525,6.899091017944609,-0.20484793381549932
-3.872483851217047,-4.097353950652629,6.8970425386064536,-0.11679213471516886
-3.9134573907235732,-4.152207480407254,6.8958746172593015,-0.021924647240595063
-3.9549794655276456,-4.211103411831055,6.895655370786896,0.08023972377982308
-3.997090499645956,-4.274400561832117,6.896457768024694,0.1902328201630707
-4.0398345052642775,-4.342530423064997,6.898360096226325,0.3086451922649999
-4.083259809494927,-4.416008943550019,6.901446548148975,0.4361407598383189
-4.127419898930428,-4.495450672924059,6.905807955747358,0.5734745669612679
-4.172374405659668,-4.581585781639293,6.911542701416971,0.7215141855859963
-4.218190263476061,-4.675280520056079,6.9187578432728305,0.8812653463387102
-4.264943068676622,-4.777561694516728,6.927570496736218,1.053902308809998
-4.31271868562179,-4.889645623438386,6.938109519824318,1.2408032154440205
-4.3616151418561735,-5.012971649260899,6.950517551978758,1.4435899827037266
-4.411744858348783,-5.149239325049561,6.964953451805796,1.6641707373417436
-4.463237251599279,-5.3004462820761375,6.981595159179213,1.904779558547813
-4.51624171442004,-5.468919369579139,7.000642954764691,2.1680016953761934
-4.570930908115832,-5.657322716681494,7.022322971718453,2.456759330112871
-4.627504135282647,-5.86860867681561,7.046890565019582,2.774207380236159
-4.686190222050803,-6.105843492670256,7.074632638821943,3.1234399661977057
-4.747248656977506,-6.371776243895193,7.10586703848392,3.5068182485693096
-4.810966419416458,-6.667910896268728,7.140935220969613,3.9245768854860836
-4.877645528379145,-6.992684438802276,7.180180989824474,4.372147101273056
-4.947572372767167,-7.338233106022753,7.223902460837205,4.835470973068829
-5.020954703827395,-7.685523799518124,7.272257170567893,5.284017011485727
-5.097809941822576,-7.999346136664913,7.32509734068275,5.66367171976774
-5.177803403189225,-8.228941756420884,7.381734057880427,5.897785279396537
-5.260092820753434,-8.323822009295817,7.440711910674393,5.910016666120907
-5.343331040846392,-8.26443842132242,7.499812077335602,5.668555508568238
-5.425975425059616,-8.080670850758763,7.5564976324212845,5.213230111784004
-5.506782133567204,-7.832442823579227,7.608629933539125,4.62855701929909
-5.585106561802996,-7.574138374231777,7.6549155037321155,3.9929994289576625
-5.660847945545314,-7.337833195340521,7.694845498021692,3.354366585849879
-5.734226277498719,-7.136373116713031,7.728389163880191,2.733486804914391
-5.805590008665849,-6.9716384948937975,7.7557240319293355,2.1356344237251887
-5.875306393614787,-6.84057638608426,7.777080376166587,1.5590839185155365
-5.9437121574756295,-6.738360705290041,7.792671215351743,0.9997214380394316
-6.01109576452853,-6.659777434013406,7.802668429732138,0.4531733784801466
-6.077693538868664,-6.599735753285692,7.8072001635169395,-0.0843123029438183
-6.143690896401521,-6.553398116395665,7.806357040487502,-0.6155496323974566
-6.209224877565478,-6.516163825728855,7.800201544163527,-1.1423387206194207
-6.2743865158227665,-6.483610905706596,7.788778156957333,-1.6654884105517904
-6.339222624879833,-6.451441327977733,7.7721232728518155,-2.184880190222979
-6.40373703815961,-6.415448030796087,7.750274470949586,-2.6995535263734816
-6.467891518467571,-6.371510241865311,7.723278935685851,-3.207808261890674
-6.531606620886224,-6.3156178950577235,7.6912008530669445,-3.707325062835697
-6.5947627998368015,-6.243922720268642,7.654127602438588,-4.195305505860078
-6.657202027039488,-6.152811360518065,7.612174547379987,-4.668631819925986
-6.718730140644668,-6.038994093074058,7.565488229180727,-5.124043849763076
-6.7791200815754085,-5.899601288391233,7.514247790683096,-5.558328244430379
-6.838116094459321,-5.732278680722552,7.458664508238792,-5.968512655370092
-6.895438881266546,-5.5352719421310015,7.398979381685091,-6.352056136256594
-6.9507916006878565,-5.307491049638,7.3354588203225255,-6.707026135299819
-7.003866511184237,-5.048545618436612,7.268388558969527,-7.032252561243492
-7.054351967368603,-4.758743841526442,7.198066033357092,-7.3274504707944885
-7.101939405783867,-4.439049982179167,7.124791528649147,-7.593305038485738
-7.146329905605659,-4.090998449707096,7.04885847826429,-7.8315156401470505
-7.187239890102729,-3.7165661032699657,6.970543321862819,-8.044799973291875
-7.224405551135429,-3.3180081144949547,6.8900953221299,-8.236863798057668
-7.257585632280378,-2.8976658788476386,6.807726684149324,-8.412346526619183
-7.286562291068854,-2.457757535126682,6.723603218883132,-8.576756769695711
-7.311139866420121,-2.000162359262442,6.637835651186175,-8.736414251790729
-7.331141490012746,-1.5262099556289535,6.550471508668267,-8.898414351316784
-7.346403589569035,-1.036485035231932,6.4614873651551,-9.07062765576925
-7.356768439921354,-0.5306614578761791,6.370781088597408,-9.261736779421764
-7.362075054500116,-0.0073908338912808125,6.27816372080319,-9.481290180128427
-7.362148962839029,0.5356969533571899,6.183350819001905,-9.739703426090394
-7.356791993305458,1.1017469435821123,6.085953784741001,-10.048029654628182
-7.345774523869637,1.6938797117679525,5.985473488194719,-10.417083417104127
-7.328835726751958,2.3131751830027034,5.881302654023678,-10.855006075715075
-7.305703974921931,2.9541243905434116,5.772752593266527,-11.361446099578602
-7.2761627310164965,3.5954534437045673,5.6591381322707415,-11.915391121134595
-7.2402081965794505,4.185026284248705,5.539984221059395,-12.454648077087377
-7.198357933736963,4.626065937234504,5.415437740288522,-12.85649741969456
-7.152097274364618,4.794865074625337,5.286872766091577,-12.960490447823052
