th1 (rad),w1 (rad/s),th2 (rad),w2 (rad/s)
4.1816352175417135,2.63174663065911,3.7708136430384513,3.128795262791077
4.207952683848305,2.6763404770083032,3.802101595666362,3.1732466366542678
4.234716088618388,2.720126505678593,3.8338340620329046,3.221421125451904
4.261917353675174,2.7629890692664856,3.8660482732874235,3.2733802307378057
4.289547244367839,2.8048135257978966,3.8987820755948017,3.329175636358125
4.317595379625818,2.8454875256908134,3.932073831958383,3.3888471268078355
4.346050254882726,2.8849025682315976,3.9659623032264615,3.452420257954798
4.3748992805650415,2.9229558593256098,4.000486505806009,3.5199037624173286
4.404128839158298,2.9595525044374766,4.035685543430183,3.5912866697809704
4.433724364202672,2.9946080720896315,4.071598410127993,3.6665351196982865
4.463670444923569,3.028051563517337,4.1082637613249755,3.7455888441083993
4.493950960558742,3.059828822367376,4.145719649766059,3.8283572939359796
4.5245492487824155,3.089906413716639,4.184003222705419,3.914715386568911
4.555448312919582,3.1182759929241732,4.223150376571108,4.004498854429947
4.5866310728488235,3.144959170327006,4.263195365115408,4.097499183768436
4.618080664552093,3.1700128555953007,4.304170356953092,4.193458148651212
4.649780793108047,3.1935350333817674,4.346104938439604,4.292061970834293
4.681716143441864,3.215670877195228,4.389025558147947,4.392935175059073
4.713872852213816,3.2366190486498296,4.4329549098985375,4.4956342649398255
4.7462390427003145,3.2566379522683637,4.477911252547936,4.599641420429148
4.778805422222998,3.276051620880602,4.523907666752228,4.704358516320709
4.811565938431804,3.2952547946180277,4.570951251915435,4.809101882577863
4.844518486377984,3.31471663252259,4.619042270741214,4.913098367625284
4.87766565270321,3.3349823702675967,4.668173254417467,5.015483415013105
4.911015476405886,3.356672128042999,4.718328088567598,5.115302003393201
4.944582197686316,3.3804760052357765,4.76948110860153,5.2115134006212065
4.978386957738674,3.407144606989519,4.821596242607742,5.303000706008104
5.012458403808568,3.4374742705295565,4.874626249667823,5.38858605475363
5.046833146513864,3.4722865320875536,4.92851211021536,5.467052091834506
5.081556011834739,3.5124018197277205,4.983182631133705,5.537169861534672
5.1166800300320165,3.5586079654711567,5.038554329749052,5.59773260981455
5.152266109686728,3.6116248506809865,5.094531655847197,5.647594217246468
5.188382358193538,3.6720672307346285,5.151007598019661,5.685710186617856
5.225103030500884,3.7404083860463793,5.20786469988584,5.711178466345571
5.262507114361348,3.816947559996361,5.264976484549296,5.723277077795836
5.300676589961312,3.9017840436163027,5.322209255327254,5.721495671466593
5.339694430397475,3.99480020258708,5.37942421204192,5.705558807635102
5.379642432423346,4.09565477351676,5.4364798001182715,5.675439853638267
5.4205989801585135,4.2037865495829845,5.493234198654654,5.631365699724777
5.462636845654344,4.318427362893739,5.549547855651902,5.573813734806618
5.505821119283281,4.438622285870627,5.605285992999968,5.50350342090991
5.550207342141987,4.563254386544607,5.660321027209067,5.421385179581225
5.595839886007433,4.691071250849908,5.714534879004879,5.328629106604764
5.642750598515932,4.820710794504266,5.767821170070927,5.2266153408566645
5.690957706460975,4.950724522757874,5.820087323479493,5.116926887557577
5.740464951688554,5.079597226667177,5.871256592355069,5.001344516811746
5.7912609239552255,5.205763008846482,5.921270037523186,4.881842183593721
5.84331855404369,5.3276184171830145,5.970088459359124,4.760580363283059
5.89659473821552,5.4435342626602505,6.017694262991954,4.639893856004661
5.951030080842123,5.551868341949146,6.064093201552001,4.522270072105354
6.006548764261614,5.650981691694399,6.109315902273054,4.410313691264914
6.0630585811785584,5.739261050214734,6.153419039185703,4.306694059150926
6.120451191680706,5.81514974894563,6.196485979777212,4.214072948867926
6.178602689170162,5.877188172663839,6.238626709265891,4.135012532405875
6.237374570896801,5.9240631814027696,6.2799768345899505,4.0718665848637965
6.296615202710829,5.954663634763457,6.320695500438588,4.026661786534182
6.356161839058463,5.968136814390953,6.36096211830393,4.000979804644447
6.415843207202372,5.963938747325728,6.400971916350374,3.9958535897634566
6.47548259467563,5.941870901563374,6.440930452248009,4.011691889858696
6.534901303691264,5.902096942904852,6.4810473711465955,4.0482436108438415
6.593922273120312,5.845136183100431,6.521529807255034,4.104608396880955
6.652373634951316,5.771834357015212,6.562575891223843,4.179292729963326
6.7100919785214685,5.683316333159382,6.604368818523477,4.270303750163201
6.766925141853062,5.580928155427213,6.647071856025109,4.375267737137595
6.822734423407335,5.466176736177338,6.690824533396485,4.491557976373057
6.877396190769108,5.340674546825173,6.735740113160216,4.616417712184815
6.9308029362373595,5.20609434273319,6.781904290282064,4.74706726415947
6.982863879664691,5.064136141639394,6.829374962923659,4.88078887872066
7.033505241081086,4.916506094350666,6.878182851710865,5.014987293360525
7.082670302024592,4.764904993402796,6.928332724644471,5.1472275166270745
7.1303193519586205,4.611023084312853,6.979804999810741,5.275253677638946
7.176429582801749,4.456537468763192,7.032557536587131,5.396994054054317
7.22099495748938,4.303108518065877,7.0865274771276745,5.510557804299109
7.264026042670039,4.152372162581734,7.141633055170666,5.614228774193857
7.305549764295857,4.005925578270919,7.197775342912604,5.706461195127648
7.345609020078566,3.865304631706536,7.254839954863881,5.785881198605695
7.384262066395632,3.731952505047788,7.3126987668499375,5.85129681131546
7.42158159144611,3.6071802422672485,7.371211734963092,5.901717419613071
7.457653393868782,3.492121512357351,7.430228909159222,5.936381630626896
7.4925746089923555,3.387685521197066,7.489592725465491,5.954790198160924
7.526451464204326,3.294513412418911,7.549140627447101,5.9567386173704
7.559396598328515,3.2129442568550273,7.608708013620805,5.94234266952693
7.591526040897065,3.142996433131248,7.668131440316074,5.912050157195257
7.622956005228378,3.0843686431016137,7.727251941888027,5.86663360564061
7.653799691659394,3.036462141409235,7.785918277944433,5.807161657874128
7.684164313073486,2.998422539292831,7.843989894523174,5.734950595484458
7.714148538466414,2.969196562920605,7.901339400478019,5.651500897928949
7.74384050409562,2.947597157144052,7.957854409457308,5.558426079375429
7.773316475667061,2.9323697529784845,8.013438670251062,5.4573816881509805
7.8026401731968456,2.922253330399491,8.068012487132572,5.350001361508195
7.83186270650084,2.9160316901883654,8.121512500747654,5.237844714535941
7.861023023402724,2.912572508314288,8.173890947893014,5.12235932892073
7.890148748485866,2.910853746357966,8.22511454118222,5.004856838147159
7.9192572859494454,2.9099784920426783,8.275163109563692,4.886501471202774
7.948357070869872,2.9091801922920104,8.32402812427572,4.768308526552314
7.977448872792793,2.9078205777273034,8.371711209541244,4.651150004658816
8.006527078570066,2.9053825115835914,8.418222709587832,4.535764833799241
8.035580903685902,2.901459693381942,8.463580357925824,4.422771573773481
8.064595500619722,2.89574474647564,8.50780807366356,4.312682010441195
8.09355294808448,2.888016813217969,8.550934893767971,4.205914553919062
8.122433116216659,2.8781294248079905,8.592994039307163,4.102806770124457
8.151214410464739,2.865999126347833,8.634022107008407,4.003626692187167
8.179874401728217,2.8515951230011702,8.67405837393028,3.9085827805066162
8.208390352958228,2.8349300617729773,8.713144201735345,3.8178325438848475
8.236739653575958,2.8160519628516236,8.751322527174192,3.7314899180310257
8.264900173204474,2.7950372520428424,8.788637426354503,3.649631539272659
8.292850545724903,2.7719848106161855,8.82513374174723,3.5723020648475607
8.320570393831066,2.7470109421656557,8.860856762395706,3.499518687519519
8.348040503252722,2.720245151346958,8.8958519492709,3.4312749791439945
8.375242954766192,2.6918266319535515,8.93016469906234,3.3675441803585358
8.402161221085727,2.6619013685532766,8.963840140865925,3.308282035040205
8.42878023477126,2.6306197647275837,8.996922961216326,3.2534292504711817
8.455086432418536,2.598134720501854,9.029457253721038,3.202913648290213
8.481067779623555,2.5646000910168776,9.06148639020394,3.1566520577054273
8.506713780533723,2.530169467404593,9.093052910780996,3.114551991171338
8.532015475207768,2.4949952289563804,9.12419843069271,3.0765131336557268
8.556965427497332,2.4592278229111115,9.154963562029266,3.0424286695040776
8.581557705726443,2.4230152345300557,9.185387848724307,3.0121864654733983
8.605787858071743,2.386502615604068,9.215509713379042,2.985670124472653
8.629652884227783,2.34983204422056,9.245366414623769,2.9627599216488223
8.653151204669989,2.3131423925827947,9.274994013840256,2.943333632456705
8.676282628595816,2.276569283006835,9.304427350164824,2.927267261037222
8.699048321425884,2.240245115007231,9.333700022775195,2.9144356764227695
8.721450772575956,2.2042991487037282,9.362844379539423,2.9047131636362735
8.743493764062993,2.16885763171579,9.391891511175785,2.8979738965254325
8.765182340380152,2.134043958331445,9.42087125014104,2.8940923390701885
8.786522779963466,2.0999788511069815,9.449812173531742,2.8929435818349476
8.807522568474536,2.0667805562318318,9.478741609350092,2.8944036201407903
8.828190374036854,2.034565045028189,9.507685645551499,2.8983495803565162
8.848536024487135,2.0034462148885637,9.536669141355064,2.904659900415306
8.86857048663602,1.9735360838192266,9.565715740359217,2.913214470234115
8.888305847474212,1.9449449735771598,9.594847885061558,2.923894737136033
8.907755297209984,1.9177816771782397,9.624086832432917,2.9365837806534927
8.926933113981766,1.8921536073222351,9.653452670239453,2.9511663602342333
8.945854650054988,1.868166923025749,9.682964333841795,2.967528938403005
8.964536319285246,1.8459266324708272,9.712639623225826,2.9855596808782887
8.982995585609954,1.825536670752583,9.742495220034609,3.005148434038639
9.00125095231748,1.8070999518278437,9.772546704374996,3.026186679015423
9.019321951835758,1.790718394510155,9.80280857116515,3.048567460597467
9.03722913578086,1.7764929228054713,9.833294245771125,3.0721852881079075
9.054994065008914,1.7645234412196826,9.864016098652204,3.096936004491738
9.07263929942111,1.7549087858788477,9.894985458697121,3.122716619067274
9.090188387279898,1.7477466523751588,9.926212624887794,3.149425098773419
9.107665853803649,1.7431335011816222,9.957706875875528,3.176960112307637
9.125097188815465,1.7411644412683327,9.989476476998606,3.205220721309673
9.142508833228149,1.7419330922125769,10.021528684211702,3.234106012708349
9.159928164150275,1.7455314246408136,10.053869744338787,3.263514666511086
9.177383478396683,1.7520495782971293,10.086504891003898,3.2933444536699876
9.194903974179654,1.7615756564309204,10.119438335540599,3.3234916591918946
9.212519730743963,1.774195494572905,10.152673252132518,3.353850426357864
9.230261685689692,1.7899924011643704,10.186211756396096,3.384312018765087
9.248161609701336,1.809046866964569,10.220054876583747,3.4147639978883664
9.266252078370982,1.831436239732614,10.25420251656263,3.4450893149700343
9.284566440768309,1.8572343604118353,10.28865340971233,3.4751653172833445
9.303138784372427,1.886511156985835,10.323405062885163,3.504862670178313
9.322003895942286,1.9193321923761897,10.358453689586947,3.5340441978210806
9.341197217866048,1.9557581632614427,10.393794131565157,3.5625636471950157
9.360754799498663,1.9958443475648875,10.429419768037107,3.5902643817660347
9.380713242974311,2.039639999633047,10.465322411854768,3.616978013251049
9.401109642970642,2.0871876938548883,10.501492191987278,3.6425229821919105
9.42198151990919,2.138522619698822,10.537917421809198,3.666703100548429
9.443366746106179,2.193671833912318,10.574584452814682,3.6893060722945785
9.465303464445302,2.2526534789741564,10.611477513537627,3.7101020110284697
9.487829999235045,2.3154759808408434,10.648578533647912,3.7288419768642562
9.510984759043453,2.382137243604148,10.685866953416555,3.7452565583089394
9.534806131479494,2.4526238638782596,10.723319518999645,3.7590545283483903
9.559332370118277,2.526910393544588,10.760910064283129,3.7699216074388033
9.584601474053724,2.6049586858559732,10.798609280357518,3.7775193693326212
9.610651060912284,2.68671736676519,10.836384474050844,3.781484328410466
9.637518234579936,2.7721214805843535,10.874199317334948,3.7814272491230687
9.66523944938578,2.8610923665515555,10.912013589826179,3.776932718876518
9.693850373051296,2.953537830386804,10.949782917014945,3.767559024751977
9.723385751355163,3.0493526822290455,10.987458507262465,3.7528383712961135
9.753879278177454,3.148419719193615,11.024986890975427,3.7322774706447017
9.78536347536939,3.2506112368860105,11.062309665681873,3.705358526793635
9.817869587738251,3.3557911592604253,11.099363250949809,3.6715406222280507
9.851427499330855,3.463817879949004,11.136078657172089,3.6302614966900344
9.886065678130345,3.5745479103960967,11.172381272138988,3.5809396839936323
9.921811157234306,3.687840430695883,11.208190668978924,3.5229769429852813
9.958689561541265,3.803562837983898,11.243420438408776,3.455760882695269
9.996725189921104,3.921597384801215,11.27797804723573,3.3786676394194246
10.035941163769117,4.04184899649744,11.311764723629924,3.291064415310746
10.076359653734091,4.164254353176337,11.344675367783031,3.19231163502278
10.118002197265854,4.28879231883191,11.37659848413326,3.0817644208042605
10.160890120454173,4.415495799145039,11.407416128341302,2.9587730301136808
10.205045078445623,4.544465110597291,11.437003858642438,2.822681847921602
10.250489729551596,4.675882946827464,11.465230677121653,2.6728264856888284
10.29724855901987,4.810031030974984,11.491958941978542,2.5085285222510105
10.34534886932962,4.9473085379947905,11.517044227201051,2.329087447775344
10.394821954709567,5.088252342632002,11.540335101678805,2.1337694732060175
10.445704478135887,5.233559064487366,11.561672796410864,1.9217931007450002
10.49804006878076,5.384108678716119,11.580890727418314,1.6923118157690042
10.551881155567921,5.540989021538186,11.597813845576004,1.4443951355021896
10.607291045783303,5.705519625803696,11.612257796931026,1.1770108553067438
10.66434624204134,5.8792715740491985,11.624027905484093,0.8890142464777213
10.723138957781831,6.064076731421413,11.63291804794887,0.5791552130287967
10.783779725096045,6.262013528774809,11.638709600079158,0.24612383420153927
10.846399860383793,6.475345174039607,11.641170838421173,-0.11132856466531066
10.911153312124188,6.706366131761301,11.64005755277452,-0.4941266045088607
10.978216973441802,6.95707870545526,11.635116286729431,-0.9023515883675293
11.047787760496353,7.228568562027659,11.626092770845757,-1.3342767085868277
11.12007344611663,7.519880087084003,11.612750003759889,-1.7846747585299159
11.19527224698747,7.826151615189962,11.59490325617459,-2.242067677282565
11.273533763139369,8.135907461653224,11.572482579401765,-2.684801487798439
11.354892837755902,8.428077278063968,11.54563456452378,-3.0768224105259994
11.43917361053654,8.670974454127448,11.51486634041852,-3.3664385775566394
11.525883355077815,8.827534802238167,11.481201954642954,-3.4943257660245446
11.614158703100196,8.86972149132105,11.446258696982708,-3.4149943372046168
11.702855918013407,8.795393627046417,11.412108753610662,-3.122026573581695
11.790809854283872,8.631583971492212,11.380888487874845,-2.6537079157043992
11.877125693998794,8.418903397223055,11.3543514087178,-2.070905661904944
11.961314727971024,8.192463962826222,11.333642352098751,-1.4290665777192455
12.043239367599286,7.973587870216306,11.319351686321559,-0.7653063292316353
12.122975246301449,7.771274851090048,11.311698623029242,-0.09973871025786119
12.20068799481235,7.586670317443525,11.310701235926663,0.5584667899885455
12.276554697986786,7.416766078634175,11.316285903826548,1.2058412903462914
12.350722358773128,7.2566467866950966,11.32834431673001,1.8413498687617813
12.423288826640078,7.100674308457095,11.346757815417629,2.464653116468953
12.494295569724649,6.94307304088376,11.371404346582318,3.075287820634952
12.563726300133487,6.778220075887647,11.402157224788668,3.6723521799861
12.631508500892364,6.600805281455528,11.438880746588529,4.254462252247365
12.697516553706919,6.405941409954652,11.481425369111003,4.819857207391792
12.761575967806465,6.189257789642655,11.529623941184921,5.366589119312952
12.823468545702891,5.946986497947554,11.58328983237805,5.892760818294139
12.882938410682366,5.676037074864472,11.64221744056099,6.396787541094855
12.93969878143101,5.374049650476175,11.70618531597194,6.877663198777975
12.993439277935773,5.039414434212339,11.774961947959719,7.335214629013056
13.043833422277896,4.671246787763709,11.848314094249849,7.770329575026932
13.090545890155532,4.269311095597764,11.92601739000012,8.185147259340262
13.13323900111151,3.8338931487539196,12.007868862593522,8.583204017206855
13.17157793259905,3.3656299427811085,12.09370090276559,8.969528893532136
13.20523423202686,2.8653188171816026,12.183396191700911,9.35068180514813
13.233887420198677,2.3337482384975043,12.276903009752392,9.734712841987236
13.257224902583651,1.7716287640367328,12.374250138172265,10.130981969180079
13.274941190224018,1.1797730833160223,12.475559957864066,10.549687357504768
13.286738921057179,0.5598135265754026,12.581056831439113,11.000758283588365
13.292337056322932,-0.08399130358860019,12.691064414274997,11.491396103419751
13.291497143287046,-0.7408870881865901,12.805978375309195,12.020934670717107
13.28408827240518,-1.3863547425415665,12.926187722016365,12.57111163161299
13.270224724979764,-1.9710902888759836,13.051898838332495,13.091021785036805
13.250513822091005,-2.412005991004344,13.182809056182862,13.484151730663797
13.226393762180962,-2.605402684925202,13.3176505734895,13.624384220846459
13.20033973533171,-2.4846463583267906,13.453894415697965,13.431052008769973
13.175493271748442,-2.084833323910147,13.588204935785665,12.95253626121252
13.15464493850934,-1.5220523542089703,13.71773029839779,12.335974086251928
13.139424414967252,-0.9074776923870859,13.841090039260308,11.714410862258239
13.13034963804338,-0.30382369839162804,13.95823414788289,11.154307607003105
13.127311401059464,0.26492956580756577,14.069777223952922,10.672467594522747
13.12996069671754,0.7937991740026278,14.176501899898149,10.263255333407308
13.137898688457566,1.2847685198067542,14.279134453232222,9.9141125391082
13.150746373655634,1.7414939295803413,14.378275578623304,9.611878742432244
13.168161312951439,2.167361827426295,14.474394366047626,9.34482242733413
13.189834931225702,2.564930149164618,14.567842590320968,9.103042785314527
13.215484232717348,2.9358891874508712,14.658873018174113,8.878347409580257
13.244843124591856,3.281197859551515,14.747656492269915,8.664012514828453
13.27765510318737,3.6012653718128154,14.834296617418198,8.454558224198362
13.313667756905499,3.8961312609444336,14.918842199660181,8.245571023110154
13.352629069514943,4.165627701622507,15.001297909891283,8.033571315258133
13.394285346531168,4.409518876595827,15.081633623043865,7.815914348685099
13.438380535297126,4.627615787826265,15.159792766530716,7.590711901591478
13.484656693175388,4.819866079749509,15.23569988554663,7.3567642118218215
13.532855353972883,4.986419091563489,15.309267527664849,7.113494548615202
13.582719544888517,5.1276670434718445,15.380402473151001,6.860881735330681
13.633996215323236,5.24426407187001,15.449011290504307,6.599388487836582
13.686438856041937,5.337125652609025,15.515005175382672,6.329885469768289
13.739810112568026,5.407411643781604,15.578304030080355,6.053572414774236
13.793884229005842,5.456496627254838,15.638839754228098,5.771898532534466
13.848449195278391,5.485931379429636,15.696558739553442,5.486484765199809
13.903308509072687,5.497399165146511,15.75142358720544,5.199050400797184
13.958282500724152,5.492670177779489,15.803414091213412,4.911346204872007
14.013209202501947,5.473556919766093,15.852527553262131,4.625095721726995
