th1 (rad),w1 (rad/s),th2 (rad),w2 (rad/s),a1 (rad/s^2),a2 (rad/s^2)
1.3230145117960457,-1.3870076781819973,1.19155023721817,-1.5267172225115035,-10.353929421991685,1.413115980031683
1.3091444350142256,-1.4905469724019142,1.1762830649930551,-1.5125860627111867,-10.378109634764423,1.5337600103731603
1.2942389652902064,-1.5943280687495585,1.1611572043659433,-1.4972484626074551,-10.39426302251827,1.650440956280493
1.278295684602711,-1.6982706989747411,1.1461847197398687,-1.4807440530446503,-10.4005325207741,1.7600712341819955
1.2613129776129635,-1.8022760241824822,1.131377279209422,-1.4631433407028303,-10.394790886078232,1.8590457158826568
1.2432902173711387,-1.9062239330432647,1.1167458458023938,-1.4445528835440036,-10.37463064686025,1.943227779521849
1.224227978040706,-2.0099702395118673,1.1023003169669536,-1.425120605748785,-10.337358399904529,2.0079454229697413
1.2041282756455873,-2.1133438235109128,1.0880491109094659,-1.4050411515190877,-10.279996479423806,2.0480027058058727
1.1829948374104782,-2.2161437883051507,1.073998699394275,-1.384561124461029,-10.19929577011706,2.057712887503673
1.1608333995274267,-2.318136746006321,1.0601530881496646,-1.3639839955859923,-10.091764114813502,2.0309605902221493
1.1376520320673635,-2.419054387154456,1.0465132481938046,-1.3436743896837708,-9.953715238595446,1.9613009095480902
1.113461488195819,-2.5185915395404104,1.033076504296967,-1.32406138058829,-9.781343172471715,1.8421033118918722
1.0882755728004148,-2.6164049712651276,1.019835890491084,-1.3056403474693712,-9.57082655469846,1.6667470003537321
1.0621115230877636,-2.712113236812112,1.0067794870163904,-1.2889728774658338,-9.318465633408511,1.428871771562175
1.0349903907196425,-2.8052978931461974,0.9938897582417321,-1.274684159750212,-9.0208520367379,1.1226838434834814
1.0069374117881804,-2.8955064135135764,0.9811429166442299,-1.2634573213153772,-8.67506728495391,0.7433095173219372
0.9779823476530447,-2.9822570863631155,0.9685083434310762,-1.256024226142158,-8.278900706898101,0.2871810281741474
0.9481597767894135,-3.0650460934320964,0.9559481011696546,-1.2531524158604164,-7.831071376041478,-0.24757071296053906
0.9175093158550925,-3.1433568071925113,0.9434165770110504,-1.2556281229900217,-7.331432839563908,-0.860751141228674
0.8860757477831674,-3.2166711355881503,0.9308602957811501,-1.2642356344023085,-6.781135140500903,-1.5498064598413424
0.8539090364272859,-3.2844824869931593,0.918217939437127,-1.279733699000722,-6.182717506369423,-2.309641279495408
0.8210642115573543,-3.3463096620568535,0.9054206024471199,-1.302830111795676,-5.540108483918124,-3.132588523504281
0.7876011149367858,-3.401710746896035,0.8923923013291631,-1.3341559970307189,-4.858518895269093,-4.008557846962079
0.7535840074678254,-3.4502959358487257,0.879050741358856,-1.3742415755003397,-4.144226209207088,-4.92536873094893
0.7190810481093382,-3.4917381979407964,0.8653083256038526,-1.423495262809829,-3.4042647652172686,-5.869249938403855
0.6841636661299302,-3.525780845592969,0.8510733729757544,-1.4821877621938675,-2.6460516066489133,-6.825462834005422
0.6489058576740004,-3.5522413616594584,0.8362514953538157,-1.5504423905339217,-1.8769889593597446,-7.778987484851541
0.6133834440574059,-3.5710112512530556,0.8207470714484765,-1.628232265382437,-1.1040888324290483,-8.715201820815553
0.5776733315448753,-3.582052139577346,0.8044647487946521,-1.7153842835905926,-0.33366167666162194,-9.620487400926425
0.5418528101491018,-3.585388756343962,0.7873109059587462,-1.8115891575998568,0.42889956257383405,-10.482709414069598
0.5059989225856621,-3.581099760718224,0.7691950143827476,-1.9164162517405527,1.1792236568284957,-11.291539709988822
0.4701879249784799,-3.5693075241499392,0.7500308518653421,-2.029331648840441,1.9139531252050637,-12.038614830841443
0.4344948497369805,-3.5501679928978884,0.7297375353769378,-2.1497177971488552,2.6306371985801453,-12.717541360509625
0.3989931698080016,-3.5238616209120868,0.7082403574054492,-2.2768932107539515,3.3275479163279287,-13.323775109397687
0.3637545535988807,-3.4905861417488073,0.6854714252979097,-2.4101309618479285,4.00344545978467,-13.854407453480603
0.3288486921813926,-3.4505516871509605,0.6613701156794304,-2.5486750363827344,4.6573181142455615,-14.307892171986277
0.294343175309883,-3.403978506008505,0.6358833653156031,-2.691753958102597,5.288118267809306,-14.683741216203085
0.260303390249798,-3.3510973233304115,0.6089658257345771,-2.838591370264628,5.894510192604636,-14.982210264981513
0.22679241701649386,-3.2921522214043653,0.5805799120319308,-2.988413472914443,6.474639435570632,-15.203986770687301
0.1938708948024502,-3.227405827048659,0.5506957773027864,-3.140453340621316,7.025928519023311,-15.34988604833474
0.1615968365319636,-3.1571465418584257,0.5192912438965732,-3.2939522011046636,7.5448999632361735,-15.420555808670864
0.13002537111337936,-3.081697542226064,0.48635172188552656,-3.448157759191372,8.027025737890707,-15.416186920184474
0.09920839569111872,-3.001427284847157,0.45187014429361283,-3.602319628393217,8.466602306179531,-15.336228372699686
0.06919412284264714,-2.9167612617853615,0.41584694800968064,-3.755681912120214,8.85665258551431,-15.179107586902418
0.04002651022479353,-2.8281947359302184,0.3782901288884785,-3.9074729879892383,9.188860585301157,-14.941963580236845
0.011744562865491349,-2.7363061300772067,0.3392153990085861,-4.056892623791606,9.453551386318225,-14.62041030694547
-0.01561849843528072,-2.6417706162140244,0.29864647277067,-4.203096726861061,9.639738575625424,-14.208360871956401
-0.04203620459742097,-2.5453732304577703,0.2566155055020594,-4.345180335580625,9.735272920311585,-13.697959930009276
-0.06748993690199867,-2.4480205012546543,0.21316370214625316,-4.482159934880717,9.727138738643522,-13.079689962569843
-0.09197014191454522,-2.3507491138682193,0.168342102797446,-4.612956834506416,9.601955328769632,-12.342733785185645
-0.11547763305322742,-2.254729560580523,0.12221253445238184,-4.736384172358272,9.346744863586224,-11.47568402683434
-0.13802492865903265,-2.161262111944661,0.07484869272879913,-4.8511410126266155,8.950017576929726,-10.46768019744234
-0.15963754977847927,-2.0717619361753634,0.02633728260253297,-4.955817814601039,8.403190083644729,-9.310012180610935
-0.18035516914023292,-1.9877300353389162,-0.023220895543477414,-5.048917936407148,7.702284463131588,-7.9981432473182785
-0.20023246949362208,-1.9107071907076003,-0.07371007490754888,-5.12889936888033,6.849752432376405,-6.533972431520073
-0.21933954140069808,-1.8422096663838363,-0.12499906859635218,-5.194239093195531,5.856144191747552,-4.927991968960019
-0.23776163806453646,-1.7836482244663607,-0.17694145952830748,-5.243519012885131,4.74123169529238,-3.2008471466124173
-0.25559812030920004,-1.736235907513437,-0.2293766496571588,-5.275527484351255,3.5341583432311796,-1.3837480610443684
-0.27296047938433443,-1.7008943240811252,-0.28213192450067137,-5.289364964961699,2.272280284446003,0.48270666397988105
-0.2899694226251457,-1.6781715212366652,-0.3350255741502884,-5.2845378983219,0.9986130084216247,2.3514218926339527
-0.30675113783751234,-1.668185391152449,-0.3878709531335074,-5.26102367939556,-0.24184540035880378,4.173086409424969
-0.32343299174903684,-1.670603845156037,-0.440481189927463,-5.21929281530131,-1.4062972290780165,5.901074090799174
-0.3401390302005972,-1.6846668174468171,-0.4926741180804761,-5.160282074393319,-2.4580318293014054,7.495965074279973
-0.3569856983750654,-1.7092471357398311,-0.5442769388244093,-5.085322423650519,-3.3692818686910364,8.928779902920926
-0.3740781697324637,-1.7429399544267414,-0.5951301630609145,-4.996034624621309,-4.12261420124823,10.182407138328184
-0.39150756927673114,-1.7841660964392236,-0.6450905093071275,-4.894210553238027,-4.710821399544825,11.25121578572994
-0.40934923024112335,-1.8312743104346718,-0.6940326148395078,-4.781698395380728,-5.135623112742366,12.139271368855276
-0.42766197334547007,-1.8826305415620954,-0.7418495987933151,-4.660305681692175,-5.405666372543458,12.857786443508836
-0.44648827876109104,-1.93668720528753,-0.7884526556102369,-4.531727817257086,-5.534316902821589,13.42242102494952
-0.46585515081396633,-1.9920303743157457,-0.8337699337828077,-4.397503607007591,-5.537615680450326,13.850883686593674
-0.4857754545571238,-2.047406531120249,-0.8777449698528836,-4.258994770141655,-5.432614304044861,14.161072463564704
-0.5062495198683262,-2.1017326741606976,-0.9203349175543002,-4.117384045506008,-5.236159379949429,14.36981268151103
-0.5272668466099332,-2.154094267960192,-0.9615087580093603,-3.973685918690898,-4.96409852239531,14.492130136829852
-0.5488077892895351,-2.203735253184145,-1.0012456171962694,-3.8287646173225998,-4.630830727676065,14.540942309870218
-0.5708451418213766,-2.250043560460906,-1.0395332633694954,-3.6833551942238976,-4.249110121693645,14.52704030136806
-0.5933455774259856,-2.2925346616778426,-1.0763668153117343,-3.538084791210217,-3.830019645224888,14.459249912149108
-0.6162709240427641,-2.3308348581300913,-1.1117476632238366,-3.393492292088726,-3.3830480849597455,14.344686038331291
-0.639579272624065,-2.364665338979689,-1.1456825861447237,-3.250045431705413,-2.9162222845300096,14.189040705988383
-0.6632259260138619,-2.3938275618249887,-1.178183040461778,-3.108155024645529,-2.4362624740918184,13.996867043149887
-0.6871642016321118,-2.418190186565907,-1.2092645907082331,-2.9681863542140303,-1.9487410776846525,13.771837957274736
-0.7113461034977708,-2.4376775973427534,-1.2389464542503734,-2.830467974641283,-1.4582341252363429,13.516969620515143
-0.7357228794711984,-2.452259938595117,-1.2672511339967862,-2.6952982784361312,-0.9684601383409767,13.234807088687013
-0.7602454788571495,-2.4619445399785267,-1.2942041167811476,-2.562950207549261,-0.4824048450526313,12.927573609677639
-0.7848649242569348,-2.466768588429053,-1.3198336188566402,-2.433674471452485,-0.0024320045766029028,12.597287371869681
-0.8095326101412254,-2.4667929084748192,-1.344170363571165,-2.307701597733788,0.46961846413725095,12.245850333514616
-0.8342005392259736,-2.462096723833447,-1.367247379548503,-2.185243094398642,0.9323435586643267,11.8751138758286
-0.8588215064643081,-2.4527732882468034,-1.3890998104924894,-2.0664919556403563,1.3847000316641873,11.486925681189115
-0.8833492393467761,-2.4389262879301614,-1.409764730048893,-1.951622698828465,1.825935769010322,11.08316167480493
-0.9077385022260778,-2.420666930240058,-1.4292809570371776,-1.8407910820804156,2.255528768036584,10.66574622124275
-0.9319451715284783,-2.3981116425596922,-1.4476888678579818,-1.7341336198679882,2.673133059838672,10.236663119526773
-0.9559262879540753,-2.3713803119613055,-1.4650302040566616,-1.6317669886727204,3.0785311680367418,9.79795934171122
-0.9796400910736883,-2.340595000280938,-1.4813478739433887,-1.5337873952556083,3.4715928919991943,9.351742938958143
-1.0030460410764976,-2.305879071360946,-1.4966857478959448,-1.4402699658660267,3.8522403372561773,8.900176112991602
-1.0261048317901071,-2.267356667988384,-1.5110884475546051,-1.3512682047361106,4.220419187416226,8.445464128224467
-1.048778398469991,-2.225152476114222,-1.5246011296019661,-1.266813563453866,4.576076221576361,7.989840523927042
-1.071029923231133,-2.1793917138984584,-1.5372692652365048,-1.1869151582145956,4.919143032887525,7.5355489743556845
-1.0928238403701176,-2.1302002835695832,-1.5491384168186506,-1.1115596684710387,5.249525804135552,7.0848221301979875
-1.1141258432058134,-2.077705025528228,-1.560254013503361,-1.0407114471690588,5.567100854384131,6.639857843649184
-1.1349028934610956,-2.0220340169843865,-1.5706611279750515,-0.974312868732567,5.871715499547875,6.202793312663743
-1.1551232336309396,-1.9633168619889076,-1.5804042566623773,-0.9122849356059295,6.163193584945146,5.775677852850356
-1.1747564022508288,-1.9016849261394562,-1.5895271060184366,-0.8545281570774259,6.441344867547183,5.360445189605292
-1.1937732515122232,-1.8372714774639842,-1.5980723875892109,-0.800923705181373,6.705977268995565,4.958886328314005
-1.212145966286863,-1.7702117047740287,-1.6060816246410246,-0.751334841898233,6.956910905904589,4.5726241781370645
-1.2298480833346033,-1.7006425957149829,-1.613594973060007,-0.7056086001168623,7.193992746906254,4.203091151182859
-1.2468545092917531,-1.6287026682459202,-1.6206510590611756,-0.6635776886050337,7.417110756612764,3.8515109178691516
-1.2631415359742124,-1.5545315606797927,-1.627286835947226,-0.6250625794263422,7.626206468660714,3.51888536540571
-1.2786868515810104,-1.4782694959931855,-1.6335374617414893,-0.5898737257722851,7.821285079167225,3.2059875853306012
-1.2934695465409423,-1.4000566452015133,-1.6394361989992121,-0.5578138499189791,8.002422356858803,2.9133614243568133
-1.3074701129929573,-1.3200324216329253,-1.6450143374984019,-0.528680235675411,8.16976790947427,2.641327795390154
-1.3206704372092866,-1.2383347425381825,-1.650301139855156,-0.5022669577215094,8.323544606768037,2.389997592442177
-1.3330537846346684,-1.1550992964705022,-1.655323809432371,-0.47836698179708764,8.464044216628913,2.159290715138966
-1.3446047775993735,-1.070458854304213,-1.6601074792503419,-0.45677407464569797,8.59161954245605,1.9489604132655534
-1.3553093661424156,-0.9845426588796525,-1.664675219996799,-0.4372844705130424,8.706673541200423,1.758621930384221
-1.3651547927312122,-0.8974759234676483,-1.6690480647019292,-0.41969825120920023,8.809646042337969,1.5877842704820029
-1.3741295519658887,-0.8093794630442686,-1.6732450472140212,-0.4038204085043802,8.900998774726103,1.435883836033363
-1.3822233465963314,-0.7203694752970076,-1.677283251299065,-0.3894615701440466,8.981199442915077,1.3023186845209291
-1.3894270413493015,-0.6305574808678568,-1.6811778670005055,-0.3764383832988373,9.050705583838802,1.1864822114391875
-1.3957326161579802,-0.5400504250294688,-1.684942250833494,-0.3645735611844454,9.109948888752571,1.0877951751089951
-1.4011331204082749,-0.44895093614194304,-1.6885879864453384,-0.35369560943335543,9.159320604949295,1.0057351148212241
-1.4056226297696943,-0.3573577300924501,-1.6921249425396718,-0.34363825828514316,9.199158547937957,0.9398623624714396
-1.4091962070706188,-0.2653661446130705,-1.6955613251225232,-0.3342396346604288,9.229736166505155,0.8898419954066114
-1.4118498685167495,-0.17306878294801897,-1.6989037214691276,-0.3253412147063627,9.251254016961846,0.8554612152656018
-1.4135805563462298,-0.08055624277840051,-1.7021571336161911,-0.31678660255370666,9.263833922519945,0.8366417594093004
-1.4143861187740139,0.012082096446798946,-1.7053249996417281,-0.30842018495961365,9.267516019827758,0.8334470579459311
-1.4142652978095458,0.10475725664507653,-1.7084092014913244,-0.30008571438015436,9.262258825318293,0.8460839442178061
-1.413217725243095,0.19737984489825944,-1.711410058635126,-0.2916248749379763,9.247942385325716,0.8748988168426544
-1.4112439267941126,0.2898592687515166,-1.7143263073845056,-0.2828758867695497,9.224374500886622,0.9203682457316735
-1.4083453341065975,0.3821030137603828,-1.717155066252201,-0.273672204312233,9.19129993554889,0.9830841220729738
-1.4045243039689936,0.4740160131158717,-1.7198917882953233,-0.26384136309150324,9.14841241797626,1.0637335810580706
-1.399784143837835,0.5655001372956343,-1.7225302019262383,-0.25320402728092256,9.095369138165452,1.1630740813921767
-1.3941291424648785,0.6564538286772889,-1.7250622421990476,-0.2415732864670008,9.031807307067245,1.2819042083819143
-1.3875646041781056,0.7467719017479613,-1.7274779750637177,-0.22875424438318165,8.95736220839905,1.421030973157385
-1.380096885160626,0.8363455238319518,-1.7297655175075495,-0.2145439346516078,8.871686026699004,1.581234598595324
-1.3717334299223063,0.9250623840989418,-1.7319109568540656,-0.19873158866565455,8.774466599579974,1.7632319956558629
-1.3624828060813168,1.0128070500947415,-1.7338982727407222,-0.18109926870909593,8.665445130507258,1.9676403195725543
-1.3523547355803693,1.0994615013998141,-1.7357092654278132,-0.16142286551337037,8.544431829012499,2.194942127673949
-1.3413601205663712,1.1849058196899391,-1.737323494082947,-0.13947344423663088,8.41131843557074,2.445453713331321
-1.329511062369472,1.2690190040456466,-1.7387182285253133,-0.11501890710331766,8.266086652866298,2.7192981411284856
-1.3168208723290153,1.3516798705743096,-1.7398684175963466,-0.0878259256920328,8.10881165232087,3.016384342437995
-1.3033040736232722,1.4327679870975183,-1.740746676853267,-0.05766208226765286,7.9396600544293,3.3363933457809334
-1.288976393752297,1.5121645876418113,-1.7413232976759434,-0.024298148809843524,7.758882083302097,3.678772324904698
-1.2738547478758788,1.5897534084748322,-1.7415662791640418,0.012489574439203462,7.56679794915378,4.042736676872959
-1.2579572137911306,1.66542138796637,-1.7414413834196498,0.052916941207933055,7.363778887912612,4.427279833204657
-1.2413029999114669,1.7390591768454962,-1.7409122140075706,0.09718973953997961,7.150223649974493,4.831190008373754
-1.223912408143012,1.810561413345241,-1.7399403166121707,0.14550163962371715,6.926531545062503,5.253072652988181
-1.2058067940095596,1.879826728795866,-1.7384853002159335,0.19803236615359895,6.693073386349755,5.69137704963103
-1.1870085267216008,1.9467574626593636,-1.7365049765543976,0.2549461366499093,6.45016181269128,6.144425301564414
-1.1675409520950073,2.0112590807862762,-1.7339555151878985,0.31639038966555344,6.198022493420254,6.610441935287489
-1.1474283612871445,2.0732393057204788,-1.730791611291243,0.38249480901842836,5.936767639372184,7.08758246544017
-1.1266959682299398,2.1326069821142006,-1.7269666632010587,0.45337063367283004,5.666373072352844,7.573959535126592
-1.1053698984087978,2.189270712837729,-1.7224329568643304,0.529110229024096,5.386659867892119,8.067665612871648
-1.0834771912804206,2.24313731151665,-1.7171418545740895,0.6097868851528124,5.097281312270942,8.566791657350898
-1.0610458181652542,2.2941101246393596,-1.7110439857225614,0.6954548017263213,4.797715634068168,9.069441608959858
-1.0381047169188606,2.3420872809800413,-1.7040894377052982,0.78614921781592,4.487264708585178,9.573742993011184
-1.0146838441090602,2.386959928065893,-1.696227945527139,0.8818866477460318,4.165058709518028,10.077854290348926
-0.9908142448284013,2.4286105151610733,-1.6874090790496787,0.982665190649521,3.830066507157046,10.579970024776951
-0.9665281396767905,2.4669111802326436,-1.6775824271431836,1.0884648908972905,3.4811114892237622,11.078324720325016
-0.9418590278744641,2.501722295124881,-1.6666977782342107,1.1992481381005407,3.1168924054803977,11.571196991208623
-0.9168418049232152,2.532891219179685,-1.6547052968532052,1.314960108012627,2.736008801983487,12.056915046049216
-0.8915128927314183,2.5602513071995197,-1.641555695773079,1.4355292584731192,2.3369906043689266,12.533864821983757
-0.8659103796594231,2.583621213243209,-1.6272004031883478,1.5608679066929567,1.9183314207854634,13.000501821402409
-0.8400741675269909,2.6028045274510636,-1.6115917241214182,1.690872924906981,1.4785251549209113,13.455367510962596
-0.8140461222524803,2.617589779000273,-1.5946829948723484,1.8254266000166068,1.016105542597965,13.8971108634252
-0.7878702244624776,2.6277508344262523,-1.5764287288721823,1.9643977086508588,0.5296882514705922,14.324515278238385
-0.761592716118215,2.633047716940958,-1.5567847517856737,2.1076428614332428,0.01801521875076846,14.73653070262629
-0.7352622389488054,2.633227869128466,-1.5357083231713413,2.2550081684595056,-0.5199990392708439,15.13231028185042
-0.7089299602575208,2.6280278787357574,-1.5131582414867462,2.4063312712780096,-1.0852193066212512,15.511250279401876
-0.6826496814701631,2.6171756856695447,-1.489094928773966,2.5614437740720284,-1.6782397103035338,15.873031300760807
-0.6564779246134677,2.6003932885665093,-1.4634804910332457,2.7201740870796365,-2.2993315860550436,16.217657991900104
-0.6304739917278026,2.5773999727059587,-1.4362787501624494,2.8823506669986374,-2.948388320929764,16.545493313009064
-0.604699992000743,2.547916089496661,-1.407455243492463,3.047805600128728,-3.624865545102558,16.857282131887516
-0.5792208311057764,2.5116674340456355,-1.3769771874911756,3.216378421447603,-4.327713879905097,17.154157128625783
