th1 (rad),w1 (rad/s),th2 (rad),w2 (rad/s),a1 (rad/s^2),a2 (rad/s^2)
2.8518656427183733,2.949828054231254,2.959051674591885,-2.5053986208244803,-2.2084151028421792,-0.514135066323708
2.881363923260686,2.927743903202832,2.9339976883836405,-2.5105399714877175,-2.2379498290160953,-0.2359506959454309
2.9106413622927145,2.905364404912671,2.9088922886687634,-2.5128994784471717,-2.2523790213127652,0.007201499466871092
2.939695006341841,2.8828406146995436,2.8837632938842916,-2.5128274634525027,-2.2452813926427644,0.20753738618210785
2.9685234124888367,2.860387800773116,2.8586350192497667,-2.5107520895906816,-2.212211966723842,0.3600176648775112
2.997127290496568,2.8382656811058777,2.83352749835386,-2.5071519129419064,-2.1510915604038336,0.46290567604372823
3.0255099473076266,2.8167547655018392,2.808455979224441,-2.502522856181469,-2.062208748002165,0.5177735797669919
3.053677494962645,2.7961326780218174,2.7834307506626264,-2.497345120383799,-1.9478735120571455,0.5290135502642817
3.0816388217428634,2.776653942901246,2.7584572994587884,-2.492054984881156,-1.811841923440954,0.5030241764206452
3.1094053611718757,2.7585355236668363,2.7335367496099767,-2.4870247431169497,-1.6586609901175158,0.447284310406594
3.136990716408544,2.741948913765661,2.7086665021788074,-2.4825519000128837,-1.493063847071777,0.3694994650163619
3.1644102055462007,2.7270182752949435,2.6838409831786785,-2.4788569053627203,-1.3194978779880209,0.27693814810008793
3.19168038829915,2.7138232965150633,2.659052414125051,-2.4760875238817195,-1.141816109738877,0.17600123106895874
3.2188186212643006,2.7024051354176746,2.634291538886234,-2.4743275115710297,-0.963121862837736,0.07201007817011597
3.2458426726184775,2.6927739167892972,2.609548263770524,-2.4736074107893287,-0.7857340961456089,-0.030832882908221237
3.2727704117863703,2.6849165758278413,2.5848121896626304,-2.473915739618411,-0.6112341157489535,-0.1293670834360842
3.299619577544649,2.6788042346703516,2.5600730322664464,-2.4752094104527718,-0.4405578199583299,-0.22133116798796362
3.3264076198913526,2.6743986564707685,2.535320938161919,-2.4774227221326512,-0.2741059017845971,-0.3051939624975849
3.3531516064560605,2.6716575974529224,2.5105467109405923,-2.480474661757627,-0.11185350113609338,-0.37998530157260413
3.37986818243059,2.6705390624415615,2.485741964323016,-2.484274514773353,0.04655142090186145,-0.44514185262590494
3.4065735730550055,2.67100457665058,2.4608992191752828,-2.488725933299612,0.20170596851679057,-0.5003748578803752
3.4332836188215112,2.673021636335748,2.4360119598422867,-2.4937296818784156,0.3543876811236152,-0.5455613223940879
3.460013835184869,2.676565513146984,2.4110746630235025,-2.4991852951023565,0.5055064388119199,-0.580657047276896
3.4867794903163385,2.6816205775351034,2.386082810072479,-2.5049918655751253,0.656070906531797,-0.6056283799299795
3.5135956960916896,2.6881812866004213,2.361032891416728,-2.511048149374425,0.8071671855378322,-0.620399049306915
3.540477508957694,2.6962529584557995,2.3359224099229836,-2.517252139867494,0.9599474129496786,-0.6248085404001761
3.567440038542252,2.705852432585296,2.3107498885243087,-2.523500225271496,1.115626320688203,-0.6185788461316414
3.5944985628681048,2.7170086957921784,2.285514886271594,-2.5296860137328125,1.2754841020253633,-0.6012869375853126
3.6216686498260264,2.729763536812432,2.260218026134266,-2.5356988831086658,1.4408742603461322,-0.5723408177328726
3.6489662851941507,2.7441722794158934,2.234861037303179,-2.5414222912859943,1.6132353875478764,-0.5309575272170747
3.6764080079883095,2.7603046332913723,2.2094468143903194,-2.546731866558165,1.7941060149318355,-0.4761419470946739
3.704011054321223,2.7782456934406907,2.1839794957247376,-2.5514932860291117,1.9851417817102304,-0.40666571032556387
3.73179351125563,2.798097111257793,2.1584645628644465,-2.5555599431323675,2.1881341599072157,-0.32104602641602165
3.7597744823682078,2.819978452856865,2.132908963433123,-2.5587704033965277,2.4050298385183724,-0.2175247927542511
3.7879742668967764,2.844028751242049,2.107321259399158,-2.56094565132407,2.637949573095886,-0.09404907946081616
3.8164145544091967,2.8704082469730077,2.081711802885917,-2.561886142118678,2.8892048036321487,0.05174497978873298
3.8451186368789267,2.899300295009329,2.05609294146473,-2.561368692320791,3.16130956919,0.2225415665809362
3.87411163982902,2.930913390701229,2.0304792545415222,-2.5591432766549813,3.4569841153562884,0.42134271842727994
3.9034207737360322,2.965483231854792,2.0048878217749726,-2.5549298494707084,3.779144989430746,0.6514464686863384
3.93307560605458,3.0032746817490996,1.9793385232802656,-2.548415384783845,4.130874216253508,0.9163946850888269
3.9631083528720707,3.0445834239116345,1.953854369432427,-2.5392514379329567,4.515357204127993,1.2198752578897145
3.993554187111187,3.0897369959529146,1.9284618550530974,-2.5270526853540596,4.935775228001793,1.5655575328440274
4.024451557070716,3.1390947482329326,1.9031913281995567,-2.5113971100256194,5.395133647604188,1.9568327486599262
4.055842504553045,3.1930460847089743,1.8780773570993006,-2.49182878253902,5.896001625236759,2.3964229564808885
4.087772965400134,3.252006100961342,1.8531590692739104,-2.4678645529742114,6.440133617401822,2.885813321041305
4.1202930264097475,3.3164074371353602,1.8284804237441683,-2.4390064197637984,7.027938685949842,3.424455794097914
4.153457100781101,3.3866868239948587,1.8040903595465303,-2.404761861822819,7.657763289726647,4.008690700520499
4.18732396902105,3.463264456892125,1.7800427409283022,-2.3646749548176142,8.324961043950962,4.630343272285886
4.221956613589971,3.5465140673316347,1.756395991380126,-2.3183715220947554,9.020745591278946,5.274984548101123
4.257421754263287,3.6367215232444243,1.7332122761591784,-2.265621676613744,9.730868985836,5.919913682192569
4.293788969495732,3.7340302131027845,1.710556059393041,-2.2064225397918182,10.434247197106247,6.532036150674954
4.33112927162676,3.838372685073847,1.6884918339951227,-2.1411021782850685,11.101772036215301,7.0659890165449655
4.369512998477498,3.949390405436,1.667080812212272,-2.0704422881196187,11.695698240533137,7.463091901545371
4.409006902531858,4.066347387841331,1.6463763893310759,-1.995811369104165,12.17014422440954,7.651935526734034
4.449670376410271,4.188048830085426,1.6264182756400343,-1.9192920138368246,12.473327363451126,7.551558153506736
4.491550864711125,4.312782103719938,1.607225355501666,-1.8437764323017571,12.552066030981596,7.078046639692732
4.534678685748324,4.438302764029753,1.5887875911786484,-1.7729959659048298,12.358711484056114,6.154861111306131
4.579061713388622,4.561889878870314,1.5710576315196,-1.7114473547917686,11.859978383063426,4.726138768762105
4.624680612177325,4.680489662700948,1.5539431579716825,-1.6641859671041475,11.046236303644305,2.770836219334544
4.671485508804335,4.790952025737391,1.537301298300641,-1.636477604910802,9.939027480532834,0.3142976871336929
4.719395029061709,4.890342300542719,1.520936522251533,-1.6333346280394652,8.594338921398556,-2.566613823577151
4.768298452067136,4.976285689756705,1.5046031759711382,-1.6590007662752366,7.099825456656274,-5.747743644038251
4.818061308964704,5.047283944323268,1.488013168308386,-1.7164782027156191,5.565720469919028,-9.07181149509318
4.868534148407936,5.102941149022458,1.4708483862812298,-1.8071963176665509,4.111072853155431,-12.370106091132364
4.919563559898161,5.144051877554012,1.4527764231045643,-1.9308973785778745,2.84843717768935,-15.486874559074195
4.971004078673701,5.172536249330905,1.4334674493187856,-2.0857661241686163,1.87059041362991,-18.30076708405906
5.0227294411670105,5.191242153467204,1.4126097880770994,-2.268773795009207,1.2421028335139455,-20.73882141847025
5.074641862701682,5.2036631818023436,1.3899220501270073,-2.476162009193909,0.9970272852166034,-22.78097050569221
5.126678494519706,5.213633454654509,1.3651604300350682,-2.703971714250831,1.1422559723076515,-24.45585243647916
5.178814829066251,5.225056014377586,1.3381207128925598,-2.9485302386156227,1.664846720459031,-25.830763555143964
5.231065389210027,5.241704481582176,1.3086354105064035,-3.2068378741670625,2.541159244592608,-26.999386143069415
5.283482434025848,5.2671160740281024,1.2765670317647329,-3.4768317355977567,3.745918041157637,-28.07052272952119
5.336153594766129,5.304575254439679,1.2417987144087552,-3.7575369628929685,5.260035176805107,-29.159981365195254
5.389199347310526,5.35717560620773,1.2042233447798256,-4.049136776544921,7.076833878980386,-30.386567848081725
5.442771103372603,5.4279439449975335,1.1637319770143764,-4.353002455025738,9.206965882909307,-31.87226369372428
5.497050542822579,5.5200136038266265,1.120201952464119,-4.671725091962981,11.682719642064352,-33.746250702784174
5.552250678860845,5.63684080024727,1.073484701544489,-5.009187598990822,14.562593587785692,-36.15241971982403
5.6086190868633174,5.7824667361251265,1.0233928255545808,-5.370711796189062,17.937003793180885,-39.26017851457901
5.666443754224569,5.961836774056936,0.9696857075926901,-5.763313581334852,21.93576050117516,-43.27843168173581
5.726062121965138,6.181194379068687,0.9120525717793416,-6.19609789815221,26.73713537152728,-48.4718908766173
5.787874065755825,6.44856573278396,0.8500915927978195,-6.680816806918384,32.57578302864556,-55.17568379167018
5.852359723083665,6.774323563070416,0.7832834247286357,-7.232573644835085,39.739001088318496,-63.79371188701523
5.920102958714369,7.171713573953601,0.7109576882802848,-7.870510763705237,48.51778612719514,-74.73438603752808
5.991820094453905,7.656891435225552,0.6322525806432324,-8.617854624080518,59.013073830140094,-88.14537111110974
6.06838900880616,8.247022173526954,0.5460740344024272,-9.499308335191616,70.52101748038774,-103.06212568982069
6.15085923054143,8.952232348330831,0.45108095105051105,-10.529929592089823,79.84711318525157,-115.05998124155256
6.240381554024738,9.750703480183347,0.3457816551296128,-11.68052940450535,77.77692253830759,-111.32231879905747
6.337888588826572,10.528472705566422,0.22897636108455927,-12.793752592495924,47.01559671799065,-67.74816972562262
6.443173315882236,10.998628672746328,0.10103883515960002,-13.47123428975215,-19.872766593593735,25.976693224481416
6.553159602609699,10.79990100681039,-0.03367350773792149,-13.211467357507336,-83.54189460697812,114.92505305086719
6.661158612677803,9.96448206074061,-0.16578818131299486,-12.062216826998664,-100.85616063139123,139.29584042982424
6.76080343328521,8.955920454426696,-0.2864103495829815,-10.669258422700421,-87.80381545677486,121.65889553114373
6.850362637829477,8.077882299858947,-0.39310293380998573,-9.452669467388985,-69.73126420485345,97.19474033529625
6.931141460828067,7.380569657810413,-0.4876296284838756,-8.480722064036023,-54.77213471887017,77.07855315377438
7.00494715740617,6.832848310621711,-0.5724368491242358,-7.709936532498279,-43.54795912683875,62.11396151914197
7.073275640512388,6.397368719353324,-0.6495362144492185,-7.088796917306859,-35.214059319534115,51.1077460654659
7.137249327705921,6.0452281261579826,-0.7204241836222871,-6.577719456652201,-28.942625992431537,42.902776122820605
7.197701608967501,5.755801866233667,-0.7862013781888091,-6.148691695423994,-24.133437122636046,36.6586194053801
7.255259627629838,5.514467495007306,-0.847688295143049,-5.782105501370193,-20.37877666738108,31.797960053034817
7.310404302579911,5.310679728333495,-0.9055093501567509,-5.464125900839845,-17.405083349159483,27.923378887679878
7.363511099863246,5.1366288948419,-0.9601506091651494,-5.184892111963046,-15.028691098323133,24.754734863863813
7.414877388811664,4.986341983858669,-1.0119995302847797,-4.937344763324408,-13.126359544994934,22.08774703086573
7.464740808650251,4.855078388408719,-1.0613729779180239,-4.71646729301575,-11.6160378875616,19.76768495432892
7.513291592534338,4.738918009533103,-1.1085376508481815,-4.518790443472461,-10.443879993748448,17.673245853368865
7.560680772629669,4.634479209595619,-1.153725555282906,-4.342057984938772,-9.574701361415322,15.70756718060326
7.6070255647256255,4.538732195981465,-1.1971461351322936,-4.184982313132739,-8.983998176898755,13.794633870542297
7.65241288668544,4.448892214212478,-1.238995958263621,-4.047035974427316,-8.65040058300001,11.879950248088983
7.6969018088275645,4.362388208382478,-1.2794663180078942,-3.928236471946426,-8.548210350369825,9.934262682100211
7.740525690911389,4.27690610487878,-1.3187486827273585,-3.8288938451254237,-8.640598983536826,7.95841653584279
7.783294751960177,4.190500115043411,-1.3570376211786126,-3.749309679766996,-8.875004808563952,5.986435747686276
7.825199753110612,4.101750066957772,-1.3945307179762825,-3.689445322290133,-9.182824716898235,4.083364402726308
7.8662172537801895,4.009921819788789,-1.4314251711991839,-3.6486116782628697,-9.485003332982608,2.335293220486725
7.906316471978077,3.915071786458963,-1.4679112879818126,-3.6252587460580026,-9.703235095847456,0.8318300983833923
7.945467189842667,3.8180394355004883,-1.5041638754423927,-3.6169404450741687,-9.773810198777204,-0.35479618233404225
7.983647584197672,3.720301333512716,-1.5403332798931344,-3.620488406897509,-9.659248200239118,-1.1870855558097653
8.0208505975328,3.623708851510325,-1.5765381639621094,-3.6323592624556067,-9.353322418895717,-1.6698505639380088
8.057087686047902,3.530175627321368,-1.6128617565866654,-3.6490577680949867,-8.877936749867775,-1.8459617242931048
8.092389442321116,3.44139625982269,-1.6493523342676153,-3.6675173853379177,-8.273836159716227,-1.7832342824545842
8.126803404919343,3.3586578982255277,-1.6860275081209946,-3.6853497281624636,-7.589182846457466,-1.5583241198286037
8.160389983901599,3.282766069760953,-1.7228810054026191,-3.70093296936075,-6.869779902438057,-1.243062989168599
8.193217644599208,3.2140682707365724,-1.7598903350962267,-3.713363599252436,-6.15296001473909,-0.8960764639380168
8.225358327306575,3.1525386705891814,-1.797023971088751,-3.722324363891816,-5.465258683167997,-0.5597941439607337
8.256883714012467,3.0978860837575013,-1.8342472147276692,-3.7279223053314237,-4.822849726058291,-0.26134604738083966
8.287862574850042,3.0496575864969184,-1.8715264377809835,-3.7305357658052323,-4.233446870073394,-0.015476871059653143
8.318359150715011,3.0073231177961843,-1.908831795439036,-3.730690534515829,-3.6986345404186056,0.17199620888584982
8.348432381892973,2.9703367723919984,-1.9461387007841942,-3.7289705724269706,-3.216009534737098,0.30104734549186446
8.378135749616893,2.9381766770446274,-1.9834284065084637,-3.725960098972052,-2.7808710589069903,0.37498315423795753
8.40751751638734,2.9103679664555573,-2.020688007498184,-3.7222102674296726,-2.3874206656172063,0.39870080024746773
8.436621196051895,2.8864937597993854,-2.057910110172481,-3.718223259427198,-2.0295416810999884,0.37755357888839475
8.46548613364989,2.8661983429883855,-2.095092342766753,-3.714447723638314,-1.7012608740226678,0.3166716668357851
8.494148117079774,2.849185734248159,-2.132236820003136,-3.711281006969956,-1.3969900540192983,0.22059617728597186
8.522639974422257,2.835215833707966,-2.169349630072835,-3.7090750451970966,-1.111625793647501,0.09311458021641297
8.550992132759337,2.824099575771491,-2.206440380524806,-3.7081438993949325,-0.8405640591618517,-0.06278252690469739
8.579233128517052,2.815693935179872,-2.2435218195187554,-3.7087717246639795,-0.5796684342111124,-0.24487644322655097
8.60739006786885,2.809897250837761,-2.2806095367653954,-3.7112204890962452,-0.32521718222022433,-0.451660106400934
8.635489040377228,2.806645079015559,-2.317721741656358,-3.7157370901602547,-0.0738452909817447,-0.6822611382352324
8.663555491167385,2.8059066261057417,-2.3548791125579602,-3.722559701542607,0.17750796674005054,-0.9363568380024021
8.691614557428442,2.8076817057731422,-2.3921047095733865,-3.731923269922631,0.43163836931194366,-1.2140827121100182
8.719691374486175,2.8119980894662615,-2.4294239422726127,-3.744064097043731,0.6910962951508003,-1.5159306675265567
8.747811355380838,2.8189090524177693,-2.46686458324305,-3.759223403718997,0.9581790312354879,-1.8426280675547388
8.776000445905016,2.8284908427301243,-2.50445681728024,-3.7776496843945444,1.2348860883410684,-2.1949835647224045
8.804285354332317,2.840839703613535,-2.5422333141241857,-3.7995995200417685,1.5228239029771322,-2.5736792158242747
8.832693751368453,2.856067942643306,-2.5802293093246034,-3.8253363122000112,1.8230407328309381,-2.9789801901220487
8.861254430794887,2.8742983499716153,-2.6184826724466035,-3.855126114101232,2.1357651792958072,-3.4103229728781557
8.889997414294603,2.895656001764573,-2.657033933587616,-3.8892293438300136,2.4600128446854868,-3.865730490573372
8.918953974312249,2.920256130211428,-2.695926227025916,-3.9278866487357473,2.7930163414469416,-4.3409895615266105
8.948156535614363,2.9481862936258976,-2.7352050935132732,-3.9712965443510133,3.129427497186866,-4.828516980219074
8.97763839855062,2.9794805685977663,-2.7749180589567835,-4.019581714153204,3.4602445579750434,-5.31584564556481
9.007433204236598,3.014083014177517,-2.8151138760983154,-4.072740170608852,3.771446238746487,-5.783702000968747
9.037574034378373,3.051797476564982,-2.8558412778044038,-4.130577190618539,4.0423946899684235,-6.203757135981843
9.068092009144022,3.092221423464666,-2.8971470497105893,-4.192614761978358,4.244240416341238,-6.536371686438708
9.099014223378669,3.1346638276280783,-2.939073197330373,-4.257978478842745,4.338869178909282,-6.729082908653763
9.13036086165495,3.178052519417171,-2.9816529821188005,-4.3252693079292825,4.279389491906934,-6.717223545519674
9.162141386849122,3.2208464143362403,-3.0249056751980934,-4.3924415433844795,4.01366669390252,-6.428773653395814
9.194349850992484,3.2609830812752656,-3.068830090631938,-4.456729279918438,3.492598783245997,-5.79581601814775
9.226959681805237,3.2959090691077257,-3.1133973834311224,-4.514687440099915,2.6839721160444334,-4.773774441076201
9.259918772496315,3.3227487902681703,-3.1585442578321214,-4.562425184510677,1.5900242258213968,-3.3658311703145816
9.293146260398997,3.3386490325263845,-3.204168509677228,-4.596083496213823,0.2624626676882738,-1.6438050451543842
9.32653275072426,3.3412736592032672,-3.250129344639366,-4.612521546665367,-1.1947053105460104,0.24796279123747708
9.359945487316292,3.329326606097807,-3.29625456010602,-4.610041918752993,-2.64189229268026,2.1159572198066248
9.39323875337727,3.3029076831710045,-3.34235497929355,-4.588882346554926,-3.9375517437238936,3.764317027476555
9.42626783020898,3.2635321657337655,-3.3882438027590993,-4.55123917628016,-4.974339508315831,5.045054697662733
9.458903151866318,3.213788770650607,-3.433756194521901,-4.500788629303533,-5.700771562782375,5.887919478593741
9.491041039572824,3.1567810550227833,-3.4787640808149365,-4.441909434517595,-6.120980589772404,6.299708056520081
9.522608850123053,3.0955712491250593,-3.5231831751601126,-4.378912353952394,-6.278230986395862,6.341053020915646
9.553564562614303,3.0327889392611005,-3.5669722986996364,-4.315501823743237,-6.233770524628581,6.096892691664871
9.583892452006914,2.970451234014815,-3.610127316937069,-4.254532896826588,-6.049893873693804,5.652959595709794
9.613596964347062,2.909952295277877,-3.652672645905335,-4.19800330086949,-5.780277293512151,5.082471482194293
9.64269648729984,2.8521495223427555,-3.69465267891403,-4.147178586047548,-5.466524151146876,4.4414767695271955
9.671217982523268,2.797484280831287,-3.7361244647745053,-4.102763818352276,-5.138498826360852,3.769441164402669
9.699192825331581,2.7460992925676786,-3.777152102958028,-4.06506940670825,-4.816343535374834,3.0921326562473412
9.726653818257258,2.6979358572139303,-3.8178027970251103,-4.034148080145776,-4.5128742044391235,2.424994653958459
9.753633176829398,2.652807115169539,-3.858144277826568,-4.009898133606192,-4.235732435886477,1.7761507348740684
9.780161247981093,2.6104497908106743,-3.89824325916263,-3.992136626257451,-3.989087913763252,1.148765337522502
9.806265745889199,2.5705589116730416,-3.9381646254252045,-3.9806489728822263,-3.774890173436597,0.542767414536724
9.83197133500593,2.5328100099386757,-3.977971115154027,-3.975221298736859,-3.5937458482146885,-0.04395062502304139
