th1 (rad),w1 (rad/s),th2 (rad),w2 (rad/s),a1 (rad/s^2),a2 (rad/s^2)
0.5773249432515568,1.5805168963918867,1.0139869273948912,-1.6246815500380194,-0.9201234600657194,-8.542341008359383
0.5931301122154756,1.5713156617912296,0.997740111894511,-1.7101049601216132,-1.1613560164862564,-8.138805287302093
0.6088432688333879,1.559702101626367,0.9806390622932948,-1.791493012994634,-1.4436905658921768,-7.681071352075448
0.6244402898496516,1.5452651959674453,0.9627241321633484,-1.8683037265153886,-1.770552880169526,-7.165601515512576
0.6398929418093261,1.52755966716575,0.9440410948981945,-1.9399597416705143,-2.144161132459588,-6.590432032604067
0.6551685384809836,1.5061180558411542,0.9246414974814894,-2.005864061996555,-2.5650898857951456,-5.95574834851641
0.6702297190393951,1.4804671569832029,0.9045828568615238,-2.065421545481719,-3.031862063097738,-5.264417754830331
0.6850343906092271,1.4501485363522255,0.8839286414067067,-2.118065723030022,-3.5406369623919285,-4.522386418523203
0.6995358759727494,1.4147421667283062,0.8627479841764064,-2.163289587215254,-4.085070095538711,-3.738837930868638
0.7136832976400325,1.373891465772919,0.8411150883042539,-2.20067796652394,-4.6564124600371795,-2.9260227377212886
0.7274222122977616,1.3273273411725472,0.8191083086390144,-2.229938193901153,-5.243888517979509,-2.098707792129036
0.7406954857094871,1.2748884559927522,0.7968089267000029,-2.2509252718224433,-5.835345279978421,-1.2732609974228488
0.7534443702694146,1.216535003192968,0.7742996739817785,-2.263657881796672,-6.418108878997619,-0.4664621987414973
0.7656097203013442,1.1523539144029917,0.7516630951638117,-2.268322503784087,-6.979935529319764,0.3058001950173142
0.7771332594453741,1.082554559109794,0.7289798701259709,-2.2652645018339137,-7.509917329294541,1.0297532177374402
0.7879588050364721,1.0074553858168487,0.7063272251076317,-2.254966969656539,-7.999210184158708,1.6947020057733395
0.7980333588946406,0.9274632839752616,0.6837775554110663,-2.238019949598806,-8.44148993546287,2.2936050220839332
0.8073079917343932,0.8430483846206329,0.6613973559150783,-2.2150838993779667,-8.833101022985163,2.8232178137979185
0.8157384755805995,0.7547173743907812,0.6392465169212986,-2.1868517212399876,-9.172921390803754,3.2838438494842572
0.8232856493245073,0.6629881604827437,0.6173779997088987,-2.154013282745145,-9.462011666740194,3.6787916289729803
0.8299155309293348,0.5683680438153418,0.5958378668814472,-2.1172253664554153,-9.70313748105978,4.013664633187603
0.8355992113674882,0.47133666900474397,0.5746656132168931,-2.0770887201235393,-9.9002517847621,4.2956061299029535
0.8403125780575356,0.372334151157123,0.5538947260156577,-2.0341326588245097,-10.058006156372977,4.532594468641031
0.8440359195691068,0.2717540895933932,0.5335533994274126,-1.9888067141380994,-10.181335381454415,4.732849075492042
0.8467534604650407,0.16994073577884905,0.5136653322860316,-1.9414782233831789,-10.275135635371903,4.904373497238396
0.8484528678228292,0.06718937942513002,0.4942505500521998,-1.8924344884107949,-10.344037895976367,5.054635724343231
0.8491247616170805,-0.03625099953463365,0.4753262051680919,-1.8418881311673625,-10.392266223699464,5.190369544234374
0.8487622516217341,-0.1401736617716283,0.45690732385641825,-1.7899844357250188,-10.42356465696698,5.317472842883772
0.8473605150040179,-0.2444093083412981,0.4390074794991681,-1.736809707296181,-10.441175088865466,5.440977257331941
0.8449164219206049,-0.34882105922995277,0.42163938242620624,-1.6823999347228615,-10.44784987714323,5.565065892102457
0.8414282113283054,-0.4532995580013851,0.40481538307897763,-1.626749275801837,-10.445885656520243,5.693119911802202
0.8368952157482915,-0.5577584145665875,0.38854789032095927,-1.569818076683815,-10.43716787992741,5.8277793219779825
0.8313176316026256,-0.6621300933658616,0.3728497095541211,-1.5115402834640352,-10.423218438185517,5.971007353763919
0.824696330668967,-0.7663622777477168,0.35773430671948075,-1.451830209926396,-10.405241029928572,6.1241512162716605
0.8170327078914899,-0.8704146880470025,0.3432160046202168,-1.3905886977636794,-10.384160707234967,6.287994492458482
0.8083285610110198,-0.9742562951193522,0.32931011764258,-1.3277087528390945,-10.36065524745495,6.462798197247539
0.7985859980598263,-1.0778628475939016,0.31603303011418904,-1.2630807708666192,-10.335176785407931,6.648328622720214
0.7878073695838873,-1.181214615447981,0.30340222240552284,-1.196597484639417,-10.307962581612303,6.843870710466906
0.7759952234294075,-1.284294241264104,0.29143624755912867,-1.128158777534748,-10.279033995529769,7.048225953173235
0.7631522810167665,-1.3870845812194017,0.2801546597837812,-1.0576765180030157,-10.248182761994995,7.25969385889365
0.7492814352045725,-1.4895664088393517,0.26957789460375103,-0.9850795794140792,-10.214943610727419,7.476035924363292
0.734385771116179,-1.5917158449466258,0.25972709880961026,-0.9103192201704463,-10.178552199669772,7.6944209705191104
0.7184686126667127,-1.6935013669433234,0.2506239066079058,-0.8333750104652552,-10.137887339904788,7.911350722004929
0.7015335989972794,-1.7948802403423714,0.24229015650325325,-0.7542615032452059,-10.0913966837161,8.122564824863968
0.6835847965938557,-1.8957942071795324,0.23474754147080118,-0.6730358549965663,-10.037005577475917,8.322925310475293
0.6646268545220604,-1.9961642629542915,0.2280171829208355,-0.5898066018918133,-9.97200985172143,8.506282124159705
0.6446652118925175,-2.095884361471506,0.22211911690191738,-0.5047437806502163,-9.892955204035795,8.665324133509023
0.6237063682778025,-2.194813913511864,0.21707167909541522,-0.4180905393151261,-9.795508868060864,8.791424499631947
0.6017582291426838,-2.2927690021924727,0.21289077370226395,-0.3301762943188066,-9.674333842076603,8.874495977761672
0.5788305391207591,-2.389512340613239,0.20958901075907588,-0.24143133454118987,-9.522982431997207,8.902881102567656
0.5549354157146267,-2.484742164933211,0.20717469741366398,-0.1524025235155133,-9.333834412737966,8.863314507030458
0.5300879940652946,-2.5780805090605905,0.20565067217850885,-0.06376937844520873,-9.098115406425245,8.741009301461764
0.5043071889746887,-2.669061663124843,0.20501297839405677,0.023640714569408916,-8.806041844699038,8.51993460117376
0.4776165723434403,-2.7571220815718336,0.20524938553975086,0.10884006058114652,-8.447147310061332,8.18336280994515
0.45004535152772196,-2.841593554672447,0.20633778614556234,0.19067368868059803,-8.010846223233374,7.714766006233691
0.4216294159809975,-2.921702016904781,0.20824452303236832,0.26782134874293495,-7.487277662860808,7.099120504889549
0.3924123958119497,-2.996574793533389,0.21092273651979768,0.33881255379183045,-6.868436427582301,6.324625711909682
0.3624466478766158,-3.065259157809212,0.214310862057716,0.40205881091092727,-6.149534333293171,5.384749348020017
0.33179405629852365,-3.126754501142144,0.21833145016682526,0.45590630439112745,-5.330444156443663,4.2803790815598886
0.3005265112871022,-3.1800589427065806,0.22289051321073652,0.4987100952067263,-4.416978318431706,3.0217149754755823
0.2687259218600364,-3.2242287258908977,0.22787761416280378,0.5289272449614821,-3.4216795046379365,1.6294288289195014
0.23648363460112742,-3.258445520937277,0.2331668866124186,0.5452215332506771,-2.3637983824169213,0.13461408987170265
0.20389917939175467,-3.282083504761446,0.2386191019449254,0.5465676741493941,-1.2682437740782015,-1.4227895370812027
0.1710783443441402,-3.294765942502228,0.24408477868641934,0.5323397787785821,-0.16351449939330095,-2.997086983820584
0.13813068491911792,-3.2964010874961613,0.24940817647420516,0.5023689089403762,0.9210976384417578,-4.541015754929519
0.1051666740441563,-3.2871901111117436,0.2544318655636089,0.45695875139108105,1.9585124902625752,-6.0102721349693855
0.07229477293303888,-3.267604986209118,0.2590014530775197,0.3968560300413872,2.926472949526761,-7.367495261852446
0.039618723070947694,-3.23834025671385,0.2629700133779336,0.32318107742286273,3.8092764077109336,-8.584987757827696
0.007235320503809192,-3.200247492636741,0.2662018241521622,0.23733119984458578,4.598399106117524,-9.645823683622279
-0.024767154422558217,-3.1542635015755653,0.2685751361506081,0.140872963008363,5.292080185948708,-10.543421001519294
-0.05630978943831387,-3.1013426997160782,0.2699838657806917,0.035438752993170064,5.894150995522069,-11.279977785804627
-0.08732321643547465,-3.0424011897608576,0.27033825331062344,-0.07736102486487621,6.412483257242226,-11.864306921898116
-0.11774722833308322,-2.9782763571884354,0.2695646430619747,-0.19600409408385738,6.857397053837534,-12.309564825043855
-0.14752999190496757,-2.90970238665006,0.2676046021211361,-0.31909974233429594,7.240266483027555,-12.631226314048632
-0.17662701577146817,-2.8372997218197846,0.2644136046977932,-0.44541200547478227,7.572442374650206,-12.845489090186495
-0.20500001298966603,-2.7615752980732826,0.25995948464304536,-0.5738668963766472,7.864514765087415,-12.968151313458295
-0.23261576597039885,-2.6829301504224086,0.2542208156792789,-0.7035484095112302,8.12587697078425,-13.013915908446423
-0.2594450674746229,-2.601671380714566,0.24718533158416658,-0.8336875685956944,8.364525607300251,-12.996032925354323
-0.2854617812817686,-2.5180261246415636,0.23884845589820963,-0.9636478978492375,8.58702685599793,-12.926182979920874
-0.3106420425281842,-2.432155856081584,0.22921197691971726,-1.0929097276484463,8.798588120014388,-12.814515633989036
-0.3349636010890001,-2.3441699748814404,0.21828287964323279,-1.2210548839883366,9.00318792025984,-12.669775089752159
-0.35840530083781447,-2.254138095678842,0.2060723308033494,-1.3477526348858582,9.203730624418423,-12.499464705299022
-0.3809466817946029,-2.1621007894346578,0.19259480445449084,-1.4727472819388483,9.402204095854795,-12.310018164177043
-0.40256768968894946,-2.06807874847611,0.17786733163510235,-1.5958474635806188,9.599826941800456,-12.106957556540154
-0.42324847717371056,-1.9720804790581052,0.16190885699929616,-1.7169170391460202,9.797177925592154,-11.895027308892258
-0.44296928196429164,-1.8741086998021836,0.14473968660783595,-1.8358673122349427,9.994303812844928,-11.678298499551804
-0.4617103689623135,-1.7741656616737345,0.12638101348548653,-1.9526502972304607,10.190804022667189,-11.460241385007217
-0.4794520255790508,-1.6722576214470626,0.10685451051318193,-2.067252711080533,10.385891453027188,-11.243765619682364
-0.49617460179352146,-1.5683987069167906,0.0861819834023766,-2.1796903672773564,10.578429134104272,-11.031228216555691
-0.5118585888626894,-1.462614415575748,0.06438507972960303,-2.2900026494429135,10.766942224033974,-10.824409172179596
-0.5264847330184469,-1.354944993335408,0.04148505323517389,-2.3982467411647095,10.949604515180573,-10.624454173060368
-0.540034182951801,-1.2454489481836024,0.017502585823526793,-2.504491282895313,11.124198247394405,-10.431783168092041
-0.552488672433637,-1.1342069657096583,-0.007542327005426338,-2.6088091145762338,11.288045812324551,-10.24596309524947
-0.5638307420907336,-1.0213265075864129,-0.033630418151188675,-2.7112687455287285,11.437912109992041,-10.065543014732084
-0.5740440071665978,-0.9069473864864924,-0.06074310560647596,-2.8119241756760496,11.569877207718887,-9.88785077857218
-0.5831134810314627,-0.7912486144093036,-0.08886234736323645,-2.9108026834617715,11.679181015481754,-9.70875281076462
-0.5910259671755557,-0.6744568042544861,-0.11797037419785417,-3.0078902115694177,11.760045578161021,-9.522383497393426
-0.5977705352181005,-0.5568563484728759,-0.14804927631354833,-3.103114046543352,11.805487138385532,-9.320859296002482
-0.6033390987028293,-0.4388014770890206,-0.17908041677898184,-3.196322639503377,11.807140318274827,-9.094006376002245
-0.6077271134737195,-0.32073007390627234,-0.2110436431740156,-3.287262703263399,11.755131472234252,-8.82915069642663
-0.6109344142127823,-0.2031787591839298,-0.2439162702066496,-3.3755542102276657,11.638057693811398,-8.511046365112918
-0.6129662018046216,-0.08679818224581583,-0.27767181230892624,-3.460664673878795,11.443150674677376,-8.122050116463056
-0.6138341836270798,0.027633324500957943,-0.3122784590477142,-3.5418851750434257,11.15672594942748,-7.642680595066535
-0.6135578503820702,0.13920058399523275,-0.3476973107981484,-3.618311980994091,10.76502826069784,-7.052717591530213
-0.6121658445421179,0.24685086660221114,-0.38388043060808935,-3.6888391569093932,10.255566798148662,-6.3329763772459815
-0.6096973358760958,0.34940653458369775,-0.42076882217718325,-3.752168920681853,9.618969196097,-5.467807022102475
-0.6062032705302588,0.44559622654466774,-0.4582905113840018,-3.8068469909028777,8.851252696683094,-4.448192879221872
-0.6017473082648122,0.5341087535114987,-0.4963589812930306,-3.8513289196950966,7.956215990797643,-3.2750566362640856
-0.5964062207296972,0.6136709134194751,-0.5348722704899815,-3.8840794860577375,6.947437030925849,-1.9620814654741747
-0.5902695115955024,0.6831452837287336,-0.5737130653505589,-3.903700300712479,5.849213515193947,-0.537145506606023
-0.5834380587582151,0.7416374188806731,-0.6127500683576836,-3.9090717557785393,4.695827936068843,0.9584792083926843
-0.5760216845694084,0.7885956982413616,-0.651840785915469,-3.8994869636946126,3.5288453225874252,2.4735759631400436
-0.5681357275869948,0.8238841514672358,-0.6908356555524151,-3.874751204063212,2.392718490435177,3.9527267607574883
-0.5598968860723225,0.8478113363715876,-0.7295831675930472,-3.835223936455637,1.3295747752648495,5.343182025887524
-0.5514187727086066,0.8611070841242361,-0.7679354069576035,-3.781792116196762,0.37439756799423607,6.601226082812777
-0.5428077018673643,0.8648510598041784,-0.8057533281195711,-3.715779855368634,-0.44829866164319965,7.696561449844699
-0.5341591912693224,0.8603680731877464,-0.8429111266732574,-3.638814240870187,-1.125721615761534,8.613938490407113
-0.525555510537445,0.8491108570301311,-0.8792992690819593,-3.552674855966116,-1.6560667280455517,9.35215025719863
-0.5170644019671436,0.8325501897496757,-0.9148260176416205,-3.4591533533941297,-2.0463828090191116,9.921187597109801
-0.508738900069647,0.8120863616594846,-0.9494175511755618,-3.359941477423032,-2.309812073044265,10.33859373631113
-0.5006180364530521,0.788988240929042,-0.9830169659497922,-3.2565555400599204,-2.4628777278707568,10.62591410478226
-0.49272815404376175,0.7643594636503344,-1.0155825213503913,-3.150296399012098,-2.523242603873107,10.805796738830667
-0.4850845594072584,0.7391270376116033,-1.0470854853405123,-3.042238431623791,-2.508104168446874,10.899951085761337
-0.4776932890311424,0.7140459959271345,-1.0775078696567502,-2.9332389207661778,-2.4332049482193105,10.927925429779927
-0.470552829071871,0.6897139464449413,-1.106840258864412,-2.8239596664683786,-2.312340270949455,10.906536987203957
-0.4636556896074216,0.6665905437354468,-1.1350798555290957,-2.714894296596339,-2.1572181176418694,10.849756487446527
-0.45698978417006714,0.6450183625590281,-1.1622287984950592,-2.606396731721874,-1.9775394969468363,10.768870541665441
-0.45053960054447684,0.6252429675895598,-1.188292765812278,-2.4987080263052195,-1.7811978842170813,10.672787514319323
-0.4442871708685812,0.607430988747389,-1.2132798460753302,-2.3919801511620262,-1.5745280187684143,10.568396138413885
-0.43821286098110734,0.5916857085597048,-1.2371996475869504,-2.2862961897778873,-1.3625608297853615,10.46092182269403
-0.4322960038955103,0.5780601002618512,-1.2600626094847294,-2.181686971550947,-1.1492606064180304,10.354251309888712
-0.4265154028928918,0.5665674941976708,-1.2818794792002388,-2.07814445845206,-0.9377333688073463,10.25121313803149
-0.4208497279509151,0.5571901605095974,-1.3026609237847595,-1.9756323270717449,-0.7304032253632945,10.153811382452137
-0.4152778263458191,0.5498861282559644,-1.322417247055477,-1.8740942132472236,-0.5291578462989278,10.063415545666578
-0.40977896506325945,0.5445945497929751,-1.3411581891879492,-1.7734600577905577,-0.33546628821929,9.980911919062502
-0.4043330195653297,0.5412398869107822,-1.3588927897658547,-1.6736509385999327,-0.15047316734930175,9.906822475405153
-0.39892062069622186,0.5397351552372892,-1.375629299151854,-1.5745827138458812,0.024926801886583392,9.841397160725403
-0.39352326914384894,0.539984423256155,-1.3913751262903127,-1.4761687422386272,0.1900302363182386,9.78468482828104
-0.3881234249112874,0.5418847256193374,-1.406136813712699,-1.3783218939558168,0.34427931328951156,9.73658727942134
-0.382704577655094,0.5453275187522325,-1.4199200326522572,-1.2809560211616033,0.48722615613737874,9.696900098351168
-0.3772513024675717,0.5501997803136063,-1.4327295928638732,-1.1839870201780918,0.6185052217167324,9.665343262816354
-0.3717493046644357,0.5563848325307736,-1.4445694630656543,-1.0873335875499281,0.7378119637764186,9.641583908227211
-0.3661854563391279,0.5637629521685378,-1.4554427989411536,-0.990917748467656,0.8448864057521867,9.625253122123732
-0.3605478268174425,0.5722118162260597,-1.46535197642583,-0.8946652172464187,0.9395005511664746,9.615958240856017
-0.3548257086551819,0.5816068217377244,-1.4742986285982942,-0.7985056348378585,1.021448796760579,9.613291797913547
-0.3490096404378047,0.5918213097053302,-1.4822836849466727,-0.702372716858723,1.0905407015182673,9.616838019567869
-0.3430914273407514,0.6027267167205129,-1.4893074121152599,-0.6062043366630443,1.1465956124512904,9.626177565386042
-0.33706416017354623,0.6141926728450259,-1.4953694554818904,-0.5099425610091839,1.1894387630767027,9.640891057387982
-0.33092223344509597,0.6260870604757929,-1.5004688810919822,-0.4135336504353041,1.2188985494456688,9.66056182267497
-0.32466136284033803,0.6382760459702496,-1.5046042175963352,-0.3169280322085544,1.2348047567571088,9.684778182523093
-0.31827860238063554,0.6506240935378207,-1.5077734979184207,-0.2200802503833235,1.2369875613421975,9.713135550028271
-0.31177236144525733,0.6629939691512426,-1.509974300422254,-0.12294889488304077,1.225277171585816,9.745238543516239
-0.3051424217537449,0.6752467408671008,-1.5112037893710843,-0.025496509447878374,1.1995039998759363,9.78070328025093
-0.29838995434507387,0.6872417808658602,-1.511458754465563,0.07231052335463094,1.159499278072396,9.819159981490536
-0.29151753653641527,0.6988367736465841,-1.5107356492320168,0.17050212316953628,1.1050960429325218,9.860255993320465
-0.28452916879994944,0.7098877340759093,-1.5090306280003214,0.26910468310274094,1.0361304267377351,9.903659306126697
-0.27743029145919035,0.7202490383432867,-1.506339581169294,0.36814127616400794,0.9524431930819771,9.949062637659244
-0.2702278010757575,0.7297734702741064,-1.5026581684076539,0.4676319025406004,0.8538814592660858,9.996188129288527
-0.2629300663730164,0.7383122848667673,-1.4979818493822479,0.5675937838334857,0.740300545718207,10.044792691435664
-0.25554694352434876,0.7457152903239493,-1.492305911543913,0.6680417107478424,0.6115658899768077,10.094674021606151
-0.24808979062110925,0.7518309492237174,-1.4856254944364347,0.7689884509639039,0.46755495864578767,10.145677306455777
-0.24057148112887208,0.7565064988101753,-1.4779356099267955,0.8704452240284617,0.30815908598877395,10.197702607439162
-0.23300641614077033,0.7595880896700631,-1.469231157686511,0.9724222501028533,0.13328516315406996,10.250712917449658
-0.2254105352440697,0.7609209413016038,-1.4595069351854824,1.07492937927735,-0.05714290180441983,10.304742863058632
-0.21780132583105366,0.7603495122835596,-1.4487576413927088,1.1779768079079362,-0.26318303498604556,10.35990801302979
-0.21019783070821807,0.7577176819336991,-1.4369778733136294,1.2815758880382342,-0.4848742397605399,10.41641473808048
-0.20262065388888106,0.7528689395360938,-1.424162114433247,1.385740035419039,-0.7222363076300622,10.47457054845811
-0.19509196449352012,0.7456465764597932,-1.4103047140790566,1.49048574090362,-0.9752700609629039,10.534794813406963
-0.18763549872892218,0.7358938758501641,-1.3953998566700203,1.5958336890376896,-1.2439581714462,10.597629737926228
-0.18027655997042055,0.7234542941357021,-1.3794415197796435,1.701809986416952,-1.5282665658501955,10.663751434227796
-0.17304201702906352,0.7081716284772,-1.3624234199154739,1.80844750075923,-1.8281463820815473,10.733980873325017
