th1 (rad),w1 (rad/s),th2 (rad),w2 (rad/s),a1 (rad/s^2),a2 (rad/s^2)
4.740960455182392,1.2279896660901348,2.281770101520594,-0.07268706320941888,10.419674562200782,1.6115773961553979
4.753240351843293,1.3321864117121427,2.2810432308885,-0.056571289247864906,10.55451497547539,1.9476844517962106
4.766562215960414,1.4377315614668966,2.280477517996021,-0.037094444729902795,10.700223977471087,2.3085044507629116
4.780939531575084,1.5447338012416074,2.280106573548722,-0.01400940022227368,10.856349644139586,2.693036244364488
4.7963868695875,1.6532972976830034,2.279966479546499,0.0129209622213712,11.022206690965472,3.0999291935112057
4.81291984256433,1.7635193645926581,2.2800956891687125,0.04392025415648326,11.196827923038583,3.527407388355111
4.8305550362102565,1.875487643823044,2.2805348917102775,0.07919432804003437,11.378911691062134,3.9731854896949637
4.849309912648487,1.9892767607336652,2.281326834990678,0.11892618293698401,11.566766200998787,4.434377161297382
4.869202680255824,2.104944422743653,2.2825160968200477,0.16326995454995782,11.758252001626264,4.907397852323316
4.89025212448326,2.2225269427599157,2.2841487963655474,0.212343933073191,11.95072454439285,5.3878646646667745
4.9124773939108595,2.342034188203844,2.2862722356962792,0.26622257971985874,12.140979359205142,5.870497190479652
4.9358977357928975,2.4634439817958955,2.288934461493478,0.32492755162465525,12.325203087350715,6.349024494199429
4.960532175610856,2.5866960126694027,2.2921837370097244,0.38841779656664954,12.498934307742417,6.81610477141884
4.986399135737551,2.711685355746827,2.296067914975391,0.45657884428083795,12.657038711974808,7.263265534986053
5.013515989295019,2.8382557428665747,2.300633703418199,0.5292114996306985,12.793703633205538,7.680873306635704
5.041898546723685,2.96619277919863,2.305925818414506,0.6060202326970555,12.90245710462749,8.058142544089241
5.071560474515671,3.095217350244905,2.3119860207414766,0.6866016581379479,12.976216403922622,8.383193702005627
5.10251264801812,3.224979514284131,2.318852037322856,0.7704335951580042,13.007370336304396,8.64316970965194
5.1347624431609615,3.3550532176471752,2.326556373274436,0.8568652922545237,12.987898268518297,8.824418592264815
5.168312975337433,3.4849322003323584,2.335125026196981,0.9451094781771718,12.909527166830765,8.912747399802907
5.203162297340757,3.614027472000666,2.344576120978753,1.0342369521752008,12.763925722977188,8.893749101873293
5.2393025720607636,3.741666729230438,2.3549184905005047,1.1231744431939337,12.542932284026785,8.753199887852103
5.276719239353068,3.867096052070706,2.366150234932444,1.2107064420724547,12.23881103422952,8.47751976296741
5.315390199873775,3.9894841624130013,2.3782572993531685,1.2954816397021287,11.844529054455599,8.054284956251317
5.355285041497905,4.107929452957557,2.3912121157501898,1.3760244892646418,11.354045828018368,7.472776981097126
5.396364336027481,4.221469911237741,2.4049723606428364,1.450752259075613,10.76260667376222,6.724550635155827
5.438579035139858,4.3290959779753635,2.4194798832335924,1.5179977654271712,10.067032461234128,5.804001967844913
5.481869994919611,4.429766302587705,2.434659860887864,1.5760377851056204,9.265999512434762,4.708917091868756
5.526167657945488,4.522426297712053,2.45042023873892,1.623126956024308,8.360305238975196,3.4409830728471804
5.571391920922609,4.606029350101805,2.466651508299163,1.6575367867527797,7.353115985624652,2.006242059949989
5.6174522144236265,4.679560509958051,2.483226876166691,1.6775992073522796,6.250192843073654,0.41546824014380146
5.664247819523207,4.742062438388788,2.500002868240214,1.6817538897537176,5.060088077964075,-1.315556786156775
5.711668443907095,4.792663319168429,2.516820407137751,1.6685983218921498,3.7942989404094827,-3.1659012970242895
5.759595077098779,4.8306063085725235,2.533506390356673,1.6369393089219069,2.467357282661801,-5.109513161846484
5.807901140184504,4.855279881399142,2.549875783445892,1.585844177303442,1.0968239339453094,-7.115470302364879
5.856453938998496,4.866248120738595,2.565734225218926,1.5146894742797932,-0.29685154954861437,-9.148505230444739
5.905116420205882,4.863279605243108,2.580881119961724,1.4232044219753457,-1.6906490717581824,-11.169853869459466
5.953749216258313,4.846373114525527,2.5951131641814773,1.3115058832807511,-3.059513330708822,-13.138462913844302
6.002212947403568,4.815777981218439,2.608228223014285,1.180121254142308,-4.377130252603496,-15.012557836148632
6.0503707272157525,4.772006678692404,2.620029435555708,1.0299956757808217,-5.616940744588703,-16.75152518759626
6.098090794002677,4.715837271246516,2.6303293923135165,0.8624804239048591,-6.753349572734968,-18.318002902086405
6.145249166715142,4.6483037755191665,2.638954196552565,0.6793003948839951,-7.763043841418384,-19.680011437895825
6.191732204470333,4.570673337104982,2.645747200501405,0.4825002805050368,-8.626296696129689,-20.812911794929715
6.237438937841383,4.484410370143685,2.650572203306455,0.2743711625557397,-9.328108602248355,-21.700959678400878
6.28228304154282,4.3911292841212015,2.6533159149320125,0.057361565771730905,-9.859040345706799,-22.33824991048442
6.326194334384033,4.292538880664133,2.65388953058973,-0.16602093333311332,-10.215622859493608,-22.728913541011025
6.369119723190674,4.190382652069197,2.6522293212563985,-0.3933100687432236,-10.400285300390875,-22.88653150661525
6.411023549711366,4.086379799065289,2.6482962205689664,-0.6221753838093761,-10.420812929544063,-22.83284194397305
6.451887347702019,3.982171669769848,2.6420744667308727,-0.8505038032491066,-10.289414205708564,-22.595917575423925
6.491709064399718,3.8792775277127625,2.6335694286983817,-1.0764629790033458,-10.021526639482113,-22.20805285223445
6.5305018396768455,3.779062261317941,2.6228047989083483,-1.2985435075256904,-9.63451351665668,-21.70361634503943
6.5682924622900245,3.6827171261513745,2.6098193638330915,-1.5155796709760847,-9.146396913914636,-21.117094216735047
6.6051196335515385,3.591253157012228,2.5946635671233307,-1.7267506131434351,-8.574742464767816,-20.481488636905425
6.64103216512166,3.5055057323645498,2.577396060991896,-1.9315654995124893,-7.935768600847417,-19.8271592486809
6.676087222445306,3.4261480463560754,2.5580804059967712,-2.129837091999298,-7.243708622386053,-19.181123915357848
6.710348702908866,3.353710960132215,2.5367820350767785,-2.321648331152877,-6.510416546841887,-18.566779197337425
6.743885812510188,3.2886067946637962,2.5135655517652498,-2.507316123126251,-5.745181858403379,-18.003966604827603
6.776771880456826,3.2311549760797624,2.4884923905339873,-2.6873557891745268,-4.954704817590352,-17.50929685057045
6.8090834302176235,3.1816079279038587,2.461618832642242,-2.862448757680231,-4.143181017501158,-17.096646501952502
6.840899509496662,3.140176117728847,2.4329943450654397,-3.033415222699756,-3.312448308566874,-16.777753594237407
6.87230127067395,3.1070516346431782,2.402660192838442,-3.2011927586421303,-2.4621579622945244,-16.56285522917125
6.903371787020382,3.082430055020233,2.370648265252021,-3.366821310933843,-1.5899426514303079,-16.461326444178283
6.934196087570585,3.0665306285059297,2.3369800521426827,-3.5314345753756258,-0.6915652238691012,-16.482292470933533
6.964861393855644,3.059614976267239,2.3016657063889263,-3.696257500084961,0.23895571143510136,-16.635193505609987
6.995457543618317,3.06200453338159,2.2647031313880768,-3.862609435141061,1.2092334134854663,-16.930279892214223
7.026077588952132,3.0740968675164444,2.2260770370366663,-4.031912234063203,2.228385097552091,-17.37900264576978
7.056818557627297,3.0963807184919654,2.185757914696034,-4.2057022605209005,3.3068308006473632,-17.994233215358047
7.087782364812217,3.129449026498439,2.143700892090825,-4.385644592674481,4.455913031329004,-18.79018572268006
7.119076855077201,3.174008156811729,2.0998444461640804,-4.573546449901282,5.68714762760067,-19.78180368401968
7.1508169366453185,3.230879633087736,2.0541089816650677,-4.771364486741478,7.010770406358876,-20.983174765433183
7.183125732976196,3.3009873371513248,2.006395336797653,-4.98119623439581,8.432991714372369,-22.404189962105573
7.216135606347709,3.3853172542950483,1.9565833744536947,-5.205238134016866,9.950944190882637,-24.044072593282365
7.24998877889066,3.4848266962038745,1.904530993113526,-5.445678859949689,11.543622402491643,-25.879445171056897
7.284837045852698,3.600262920228791,1.850074204514029,-5.704473311660259,13.156118896057455,-27.843203684521225
7.320839675054986,3.7318241091893656,1.7930294713974264,-5.98290534850547,14.673370766320977,-29.78890505454349
7.3581579161468795,3.878557816852575,1.7332004179123717,-6.280794399050905,15.87958392336678,-31.43519901059339
7.396943494315405,4.037353656086243,1.6703924739218625,-6.595146389156839,16.404184511440075,-32.29113660739973
7.437317030876267,4.201395501200643,1.6044410100302942,-6.918057755230836,15.673349619652356,-31.588174145024603
7.479330985888273,4.358128997397167,1.5352604324779857,-7.233939496681082,12.930712760438803,-28.306278116184174
7.522912275862245,4.4874361250015555,1.462921037511175,-7.517002277842924,7.454412001616883,-21.46979660157752
7.567786637112261,4.5619802450177245,1.3877510147327456,-7.7317002438586995,-0.9211444941948139,-10.862943894207536
7.6134064395624375,4.552768800075777,1.3104340122941587,-7.840329682800775,-11.189590923171785,2.1278069108179443
7.658934127563195,4.440872890844059,1.232030715466151,-7.819051613692595,-21.197602546788335,14.560607436266206
7.703342856471636,4.228896865376175,1.1538401993292249,-7.673445539329934,-28.77749469124921,23.509202473626555
7.745631825125398,3.9411219184636828,1.0771057439359255,-7.438353514593668,-33.02870239986675,27.815194850133715
7.785043044310035,3.610834894465015,1.0027222087899887,-7.160201566092331,-34.43150394393026,28.21086540021601
7.821151393254685,3.2665198550257126,0.9311201931290655,-6.878092912090171,-34.03831448058087,26.183335401249426
7.853816591804942,2.926136710219904,0.8623392640081637,-6.616259558077677,-32.782267183407505,23.025570817496067
7.883077958907141,2.598314038385829,0.796176668427387,-6.386003849902716,-31.260984750639402,19.55280732924922
7.909061099291,2.285704190879435,0.7323166299283599,-6.190475776610223,-29.78892199265103,16.18622219408068
7.9319181411997945,1.9878149709529245,0.6704118721622576,-6.028613554669416,-28.50455292330636,13.106512152770916
7.951796290909324,1.7027694417198609,0.6101257366155635,-5.897548433141707,-27.452407787818096,10.369043219422107
7.968823985326523,1.4282453638416799,0.5511502522841464,-5.793858000947486,-26.631773461892486,7.971327609726509
7.98310643896494,1.161927629222755,0.4932116722746715,-5.714144724850221,-26.022352174190004,5.88815652344109
7.994725715257168,0.9017041074808549,0.43607022502616927,-5.65526315961581,-25.59679084601841,4.088533603392169
8.003742756331977,0.6457361990206708,0.3795175934300112,-5.614377823581888,-25.32636338860691,2.5432242285852
8.010200118322183,0.3924725651346017,0.3233738151941923,-5.588945581296036,-25.18326549580207,1.227709647499938
8.01412484397353,0.140639910176581,0.26748435938123194,-5.576668484821036,-25.141311012388392,0.12298377338056671
8.015531243075296,-0.11077319994730295,0.21171767453302157,-5.575438647087231,-25.17592616978174,-0.7846143606762612
8.014423511075822,-0.3625324616451203,0.15596328806214926,-5.583284790693994,-25.263882551815406,-1.5039690204420273
8.010798186459372,-0.6151712871632744,0.10013044015520933,-5.598324480898414,-25.382982784396454,-2.039903694010251
8.004646473587739,-0.869001115007239,0.04414719534622519,-5.618723517838517,-25.511801338334426,-2.3939402278033395
7.9959564624376664,-1.1241191283905834,-0.012040039832159982,-5.642662920116551,-25.629527992143952,-2.565065615554945
7.98471527115376,-1.380414408312023,-0.06846666903332549,-5.6683135762721,-25.715933813690324,-2.5504994527620424
7.97091112707064,-1.6375737464489262,-0.12514980479604648,-5.69381857079972,-25.75146414556643,-2.346463371364362
7.954535389606151,-1.8950883879045906,-0.18208799050404367,-5.717283204513364,-25.71745271495151,-1.948951781349524
7.935584505727105,-2.1522629150541057,-0.2392608225491773,-5.736772722326859,-25.59644228096814,-1.3544962594831045
7.914061876576564,-2.4082273378637873,-0.2966285497724459,-5.75031768492169,-25.3725890183493,-0.5609071331416549
7.889979603197926,-2.66195322804728,-0.3541317266216628,-5.755926756253107,-25.032120247899673,0.4320324747137863
7.8633600709174525,-2.912274430526277,-0.41169099418419386,-5.751606431505969,-24.563809058005354,1.6219507306635859
7.83423732661219,-3.1579125211063306,-0.46920705849925354,-5.735386924199333,-23.959426056408326,3.003381778296924
7.802658201401126,-3.3975067816704136,-0.5265609277412469,-5.705353106416364,-23.21412911223985,4.567400425558214
7.768683133584422,-3.629648072792812,-0.5836144588054105,-5.659679102160782,-22.326757166001745,6.301418092277556
7.732386652856494,-3.8529156444528296,-0.6402112498270184,-5.596664921238006,-21.30000382377987,8.189149076850672
7.693857496411966,-4.065915682690628,-0.6961778990393984,-5.5147734304695,-20.14045930550667,10.210742054545559
7.65319833958506,-4.2673202757456945,-0.7513256333440934,-5.4126660099240445,-18.858523234681844,12.343058565333086
7.6105251368276035,-4.455905508092513,-0.8054522934433339,-5.289235424270713,-17.468203034058593,14.560071215302775
7.565966081746678,-4.630587538433099,-0.858344647686041,-5.143634712117685,-15.986820711453815,16.833351886543987
7.519660206362348,-4.7904557455476375,-0.9097809948072179,-4.975301193252245,-14.434652790717584,19.132625434394225
7.471755648906871,-4.934802273454814,-0.9595340067397403,-4.783974938908303,-12.834523721470614,21.426376118014414
7.4224076261723235,-5.06314751066952,-1.0073737561288234,-4.569711177728158,-11.211363691545612,23.682509217056772
7.371776151065628,-5.175261147584976,-1.053070867906105,-4.332886085557591,-9.591730364293454,25.869084200651262
7.320023539589778,-5.271178451227911,-1.096399728761681,-4.0741952435510775,-8.003284630424341,27.955143188561717
7.267311755077499,-5.351211297532155,-1.1371416811971917,-3.7946438116654604,-6.474206938694227,29.911654949867234
7.2137996421021775,-5.415953366919097,-1.1750881193138463,-3.495527262166788,-5.032545930017622,31.712578376215347
7.159640108432987,-5.466278826219273,-1.2100433919355142,-3.178401478404634,-3.7055055668919716,33.336021778428915
7.104977320170794,-5.503333881888193,-1.2418274067195605,-2.845041260620345,-2.518698636456988,34.76544082195391
7.049943981351912,-5.528520868252763,-1.270277819325764,-2.497386852400806,-1.4954187674441313,35.99078681597489
6.994658772669384,-5.543475055927205,-1.295251687849772,-2.1374789842410573,-0.6560037127425121,37.00949793621546
6.939224022110112,-5.55003509305463,-1.3166264776921826,-1.7673840048789027,-0.017373459287679017,37.827226810958415
6.883723671179566,-5.550208827647507,-1.3343003177409716,-1.3891117367693187,0.4071764330721071,38.45822254439518
6.828221582903091,-5.5461370633167855,-1.3481914351086648,-1.004529511325367,0.6078636682656631,38.925331557752514
6.772760212269923,-5.540058426634129,-1.3582367302219185,-0.6152761957478419,0.5779567868253623,39.25964153437629
6.717359628003582,-5.534278858765876,-1.3643894921793969,-0.22267978040407893,0.3129621474836795,39.49985420101678
6.662016839415923,-5.531149237291039,-1.3666162899834378,0.1723187616060889,-0.1905073698126567,39.69152277029521
6.606705347043013,-5.533054310989166,-1.364893102367377,0.569233989309041,-0.936126249703947,39.88631789372805
6.551374803933121,-5.542415573486205,-1.3592007624742866,0.9680971682463215,-1.9294435198983961,40.14148465504369
6.495950648198259,-5.561710008685189,-1.3495197907918233,1.3695120147967583,-3.179584856156671,40.51961672893981
6.440333548111408,-5.593505857246756,-1.3358246706438557,1.7747081820861563,-4.700971602745308,41.08879175036526
6.38439848953894,-5.640515573274209,-1.318077588822994,2.1855960995898087,-6.514897178316565,41.92295565718471
6.327993333806198,-5.705664545057375,-1.296221627827096,2.6048256561616556,-8.650635738571356,43.10214160179665
6.270936688355624,-5.792170902443089,-1.2701733712654795,3.0358470721796222,-11.145361717079457,44.711495910279126
6.213014979331193,-5.903624519613883,-1.2398149005436832,3.4829620312824137,-14.041268800682172,46.83679854306479
6.1539787341350545,-6.044037207620705,-1.204985280230859,3.9513300167130616,-17.37634724222686,49.551447735404764
6.0935383620588475,-6.2178006800429735,-1.1654719800637283,4.4468444940671095,-21.161221960894142,52.884206365785786
6.031360355258418,-6.429412899651915,-1.1210035351230572,4.975686557724967,-25.326347445662247,56.745688143211616
5.967066226261898,-6.682676374108537,-1.0712466695458076,5.543143439157083,-29.609434003476743,60.771426002521466
5.900239462520813,-6.978770714143304,-1.0158152351542369,6.150857699182297,-33.33503029398062,64.01434159313634
5.8304517553793795,-7.31212101708311,-0.9543066581624139,6.7910011151136604,-35.04948835064728,64.43557693828653
5.757330545208548,-7.662615900589583,-0.8863966470112773,7.435356884496525,-32.150643869971184,58.39036769504066
5.6807043862026525,-7.984122339289295,-0.812043078166312,8.019260561446933,-21.27760143985889,41.18512634190062
5.60086316280976,-8.196898353687883,-0.7318504725518428,8.431111824865939,-1.0201345439539151,10.894113805908937
5.518894179272881,-8.207099699127422,-0.6475393543031833,8.540052962925028,23.65967903422193,-25.433133711547114
5.436823182281607,-7.970502908785202,-0.5621388246739331,8.285721625809558,42.66043691349401,-53.53978772993503
5.357118153193755,-7.543898539650263,-0.47928160841583745,7.7503237485102074,50.32412778732998,-65.45436582311095
5.281679167797253,-7.040657261776963,-0.4017783709307354,7.0957800902790975,49.18958487060795,-64.75180113842714
5.211272595179484,-6.548761413070884,-0.3308205700279444,6.448262078894826,44.164256365326786,-58.35041223009213
5.145784981048775,-6.107118849417616,-0.2663379492389961,5.864757956593905,38.363194027430566,-50.65971267249679
5.084713792554599,-5.72348690914331,-0.20769036967305707,5.358160829868938,33.054221726386054,-43.49498388316529
5.027478923463166,-5.39294469187945,-0.1541087613743677,4.923210991037285,28.57255177761879,-37.35619185824076
4.973549476544371,-5.107219174103262,-0.10487665146399483,4.549649072454877,24.901818243951332,-32.242621995390984
4.922477284803339,-4.8582009916637485,-0.059380160739446054,4.227222852500967,21.924603469874892,-28.00554137414692
4.873895274886701,-4.638954956965,-0.017107932214436385,3.947167438759498,19.512933314577964,-24.47667516108086
4.827505725317051,-4.44382562381922,0.022363742173158598,3.7024006871486894,17.55559084414989,-21.50784801851581
4.783067469078859,-4.268269715377721,0.05938774904464549,3.4873222069635315,15.962993362843337,-18.978853208821263
4.740384771925082,-4.108639781749288,0.0942609711142808,3.297533674875319,14.66503045521295,-16.795192064133364
4.699298374107589,-3.961989477197158,0.127236307863034,3.129581754233985,13.607316882783984,-14.883402616506931
4.659678479335618,-3.8259163083693184,0.15853212540537384,2.980747728068916,12.747625780310804,-13.186513423170634
4.621419316251925,-3.6984400505662105,0.188339602686063,2.8488825938372093,12.05295386576762,-11.660300759138018
4.584434915746263,-3.5779105119085344,0.2168284286244351,2.7322795862458293,11.497233027370834,-10.270400547656681
4.548655810627177,-3.462938181634826,0.2441512244868934,2.6295755807692625,11.059580513218043,-8.990144793205461
4.514026428810829,-3.3523423765026457,0.270446980294586,2.5396741328372077,10.722965522597269,-7.798964268154958
4.480503005045803,-3.245112721276673,0.2958437216229581,2.4616844901556583,10.473187847186498,-6.68121811975396
4.448051877833036,-3.1403808428048077,0.32046056652451466,2.3948723089581185,10.298088026877533,-5.625339268324264
4.416648069404988,-3.0373999625360324,0.34440928961409584,2.338618916274876,10.186930033020841,-4.623209864221073
4.386274069779628,-2.935530662205824,0.3677954787768446,2.292386817632665,10.129914958393009,-3.669700766166883
