th1 (rad),w1 (rad/s),th2 (rad),w2 (rad/s),a1 (rad/s^2),a2 (rad/s^2)
0.6087214926197663,-2.4553043010850466,5.616873347001533,0.8548690540835447,-8.017082166845341,14.160789565851221
0.5841684496089158,-2.5354751227535,5.625422037542369,0.9964769497420569,-8.255154518980094,14.741491326291255
0.5588136983813807,-2.618026667943301,5.635386807039789,1.1438918630049695,-8.542803106454606,15.361010635717912
0.5326334317019478,-2.703454699007847,5.646825725669839,1.2975019693621486,-8.884724442897207,16.02507214811738
0.5055988847118693,-2.792301943436819,5.6598007453634605,1.4577526908433223,-9.285729486224112,16.73976125242807
0.4776758652775011,-2.8851592382990603,5.674378272271894,1.625150303367603,-9.750519214085026,17.51118887758581
0.4488242728945105,-2.9826644304399106,5.6906297753055695,1.800262192143461,-10.283275900365192,18.344893718784732
0.41899762859011136,-3.0854971894435623,5.708632397227004,1.9837111293313083,-10.886953552321861,19.244819638192308
0.3881426566956757,-3.194366724966781,5.728469508520317,2.1761593257132312,-11.562084591944936,20.211613411088482
0.3561989894460079,-3.3099875708862303,5.750231101777449,2.378275459824116,-12.304821211116673,21.239850341442995
0.3230991137371456,-3.433035782997397,5.77401385637569,2.590673963238546,-13.103791743597172,22.313602624417953
0.28876875590717166,-3.5640737004333687,5.799920596008076,2.8138099894827255,-13.935181292612608,23.399526820698632
0.253128018902838,-3.7034255133594947,5.828058695902903,3.0478052576897117,-14.755292790170907,24.43643424407146
0.21609376376924302,-3.8509784412612036,5.8585367484798,3.292169600130426,-15.48987758501163,25.320357352271714
0.17758397935663098,-4.00587721711132,5.8914584444811045,3.545373173653143,-16.0201710397868,25.8850366604606
0.13752520718551778,-4.166078927509188,5.926912176217636,3.804223540257749,-16.16772349300371,25.88078300379844
0.0958644179104259,-4.327756162439226,5.964954411620213,4.063031370295733,-15.685204561903062,24.961818506246544
0.052586856286033636,-4.4846082080582566,6.00558472532317,4.312649555358199,-14.269396773294941,22.704891520027168
0.007740774205451072,-4.627302175791206,6.048711220876752,4.539698470558471,-11.622384512303707,18.695689003376344
-0.038532247552460985,-4.743526020914243,6.094108205582337,4.726655360592234,-7.582639115111279,12.713445367433467
-0.08596750776160342,-4.8193524120653555,6.14137475918826,4.853789814266569,-2.3021332124122846,4.9799798971072295
-0.13416103188225698,-4.842373744189478,6.189912657330925,4.903589613237641,3.6442029234250173,-3.6869173822910843
-0.18258476932415177,-4.8059317149552285,6.238948553463302,4.86672043941473,9.372452596324184,-12.034759143258645
-0.23064408647370405,-4.712207188991987,6.2876157578574485,4.746372847982144,14.03806922252714,-18.86726224277529
-0.2777661583636239,-4.5718264967667155,6.33507948633727,4.557700225554391,17.181405203516455,-23.530861858262764
-0.32348442333129107,-4.4000124447315505,6.380656488592814,4.322391606971763,18.81417245170142,-26.036555746768887
-0.36748454777860656,-4.211870720214536,6.4238804046625315,4.062026049504074,19.25356626167765,-26.82678948381542
-0.4096032549807519,-4.019335057597759,6.464500665157572,3.79375815466592,18.899570166620848,-26.46229649221652
-0.4497966055567295,-3.830339355931551,6.502438246704231,3.529135189743755,18.095432465460455,-25.425632316743247
-0.488099999116045,-3.6493850312769465,6.537729598601668,3.2748788665763224,17.08401949615955,-24.0593382581893
-0.5245938494288145,-3.478544836315351,6.570478387267432,3.0342854839944295,16.017151199204076,-22.57859281810274
-0.559379297791968,-3.3183733243233102,6.600821242107377,2.8084995558134023,14.980826315285391,-21.106313407532564
-0.5925630310352011,-3.1685650611704563,6.628906237665511,2.5974364217380765,14.018782386751901,-19.70605269819365
-0.6242486816469057,-3.028377237302937,6.654880601882891,2.40037589475614,13.149591914483256,-18.405918461629614
-0.6545324540199351,-2.896881318158105,6.678884360830453,2.216316710139844,12.37770663880178,-17.214059179748187
-0.6835012672015162,-2.773104251770087,6.701047527931851,2.0441761183423623,11.700139313667371,-16.128059226672327
-0.711232309719217,-2.6561028586334134,6.721489289115275,1.882895526075639,11.11033338831527,-15.140401820138448
-0.7377933383055512,-2.544999524750261,6.740318244376032,1.7314915078742545,10.600323656096878,-14.241537341561889
-0.7632433335530537,-2.438996288189292,6.757633159454774,1.5890761344586357,10.161894369967968,-13.42154285023448
-0.7876332964349466,-2.3373773444896124,6.77352392079936,1.4548607059562908,9.787163908659858,-12.670972164755646
-0.8110070698798427,-2.2395057054030136,6.788072527858923,1.3281509843087342,9.46884894107203,-11.981250328287148
-0.8334021269338728,-2.144817215992293,6.80135403770201,1.2083384810258628,9.200354443741874,-11.344817569485516
-0.8548502990937957,-2.0528136715548744,6.813437422512269,1.0948903053310077,8.975773055533447,-10.755140101771426
-0.8753784358093445,-1.9630559409995398,6.8243863255655794,0.9873389043132934,8.789840707022705,-10.20665404742273
-0.8950089952193399,-1.8751575339293127,6.834259714608712,0.8852723638390662,8.637874412128037,-9.69467934480112
-0.913760570558633,-1.7887787898080323,6.843112438247103,0.788325570391055,8.515706075210138,-9.215323660628407
-0.9316483584567133,-1.7036217290559308,6.850995693951013,0.696172333784771,8.419619344796534,-8.76538677725534
-0.9486845757472726,-1.6194255356079654,6.857957417288861,0.6085184660122176,8.346292725265975,-8.342270569951383
-0.9648788311033523,-1.5359626083553057,6.8640426019489835,0.5250957603127038,8.292750061865128,-7.943896743023062
-0.9802384571869053,-1.4530351077366546,6.86929355955211,0.4456567928824732,8.256318404134726,-7.5686329217491854
-0.9947688082642718,-1.3704719236953073,6.873750127480935,0.3699704636649813,8.234592702225608,-7.215226901983094
-1.0084735275012249,-1.2881259966730512,6.877449832117585,0.29781819464515036,8.225406554051585,-6.8827484958947265
-1.0213547874679554,-1.2058719311325352,6.880428014064036,0.2289907096862031,8.226808157339523,-6.570538282415663
-1.0334135067792807,-1.12360384955914,6.882717921160898,0.16328532686204647,8.237040648245488,-6.278162561411301
-1.044649545274872,-1.0412334430766852,6.884350774429518,0.10050370124793347,8.254526081013701,-6.005373857898206
-1.055061879705639,-0.9586881822665482,6.885355811441998,0.0404499626689514,8.277852395013026,-5.752076392013617
-1.0646487615283045,-0.8759096583164179,6.885760311068688,-0.01707080125118477,8.305762811867053,-5.518296003843256
-1.0734078581114685,-0.7928520301977473,6.885589603056176,-0.07225376128961733,8.337147198463068,-5.304154091062585
-1.081336378413446,-0.7094805582131166,6.88486706544328,-0.12529530220024318,8.37103501739012,-5.109845178405453
-1.0884311839955771,-0.6257702080392155,6.883614112421277,-0.1763937539842977,8.4065895630295,-4.9356177908466385
-1.0946888860759694,-0.5417043124089205,6.881850174881435,-0.2257499318927641,8.443103248583878,-4.7817583480687444
-1.1001059292000586,-0.4572732799230817,6.879592675562507,-0.27356751537345153,8.479993767001293,-4.648577837827408
-1.1046786619992894,-0.3724733422530688,6.876857000408773,-0.3200532937517256,8.51680099767647,-4.536401061863083
-1.1084033954218202,-0.28730533227630406,6.873656467471256,-0.3654173043703564,8.553184571901802,-4.445558281499847
-1.1112764487445832,-0.20177348655728605,6.870002294427552,-0.40987288718535486,8.588922044356266,-4.376379122216364
-1.113294183610156,-0.11588426611372339,6.865903565555699,-0.45363667840751853,8.623907646616058,-4.329188628169712
-1.1144530262712933,-0.02964518964756281,6.861367198771624,-0.49692856468921565,8.658151622947681,-4.304305389521261
-1.114749478167769,0.056936326581914,6.856397913124732,-0.5399716185844282,8.691780169721154,-4.302041697853469
-1.1141801149019497,0.14385412827912553,6.850998196938887,-0.5829920355629629,8.72503601886856,-4.322705718210651
-1.1127415736191584,0.23110448846781112,6.845168276583258,-0.6262190927450694,8.758279724091707,-4.3666057004759855
-1.1104305287344802,0.3186872857087282,6.8389060856558075,-0.6698851497498293,8.791991727122868,-4.434056287996891
-1.107243655877393,0.40660720297995684,6.832207234158309,-0.7142257126297982,8.826775301320112,-4.5253870176675335
-1.1031775838475935,0.49487495599315795,6.825064977032011,-0.7594795828064735,8.86336049218841,-4.640953143164153
-1.0982288342876618,0.583508560915042,6.817470181203946,-0.805889114238115,8.902609199865863,-4.7811489517964505
-1.0923937486785114,0.6725346529137006,6.809411290061565,-0.8537006037560796,8.945521577794711,-4.946423785516725
-1.0856684021493743,0.7619898686916478,6.800874284024004,-0.9031648416112469,8.993243954976405,-5.137301017852872
-1.0780485034624578,0.8519223082414118,6.791842635607892,-0.9545378517897756,9.047078526149098,-5.3544002802913555
-1.0695292803800438,0.9423930935029028,6.7822972570899935,-1.008081854592689,9.108495093876783,-5.598463272458279
-1.0601053494450148,1.0334780444416707,6.772216438544067,-1.0640664873172718,9.179145186558124,-5.870383527285855
-1.049770569000598,1.125269496307252,6.761575773670894,-1.1227703225901304,9.260878912310247,-6.1712405294494665
-1.0385178740375256,1.2178782854303545,6.750348070444993,-1.184482727884625,9.355764932723737,-6.502338592383809
-1.026339091183222,1.311435934757592,6.7385032431661465,-1.249506113808463,9.466113939278555,-6.865250868218006
-1.013224731835646,1.4060970741503775,6.726008182028062,-1.3181586224906432,9.594505966473154,-7.261868765639562
-0.9991637610941422,1.502042133815109,6.712826595803156,-1.3907773101470389,9.743821742636534,-7.694456832289862
-0.9841433397559911,1.5994803512414744,6.698918822701685,-1.4677218784699375,9.917278001509406,-8.165712736917433
-0.9681485362435763,1.6986531312565685,6.684241603916986,-1.549379005839112,10.118466156018794,-8.678831224196736
-0.9511620049310107,1.7998377928167564,6.6687478138585945,-1.6361673180810792,10.351392808399195,-9.237569585663085
-0.933163627002843,1.9033517209007482,6.652386140677784,-1.72854301393771,10.620518973410153,-9.846309923353063
-0.9141301097938356,2.0095569106348496,6.635100710538407,-1.8270061131712407,10.930792191481935,-10.51010967281781
-0.8940345406874871,2.118864832549669,6.616830649406695,-1.9321072098994188,11.287661199661986,-11.234725509235895
-0.8728458923619904,2.231741444546289,6.597509577307701,-2.0444544649917775,11.697055357519698,-12.026585269051301
-0.8505284779165275,2.348711998121486,6.577065032657783,-2.1647203176822907,12.165298719305278,-12.89266525445658
-0.8270413579353126,2.470364985314539,6.555417829480961,-2.2936469702268565,12.698908482337668,-13.840202015921319
-0.8023377080821672,2.5973540701379156,6.532481359778692,-2.4320489903860696,13.304194728472275,-14.876121705273018
-0.7763641673807881,2.7303960174226383,6.508160869874831,-2.5808102074388,13.986525501665549,-16.0059959701717
-0.7490602072065616,2.8702612724392935,6.482352767800443,-2.740870167140517,14.749037461774156,-17.232215875986693
-0.7203575944821687,3.017751647057035,6.4549440661290385,-2.913192325900384,15.590443271869102,-18.550894354615547
-0.6901800780115984,3.1736560797757263,6.4258121428700345,-3.0987012694465395,16.501398068483322,-19.946742904482086
-0.6584435172138412,3.3386700604605597,6.394825130175569,-3.2981686984913603,17.458638050901854,-21.38481856852399
-0.6250568166092356,3.5132564409695783,6.361843443190655,-3.5120168841766004,18.41584810333996,-22.79767792789302
-0.5899242521995398,3.697414922002978,6.326723274348889,-3.7399936634555306,19.290163023903272,-24.06640168643017
-0.5529501029795101,3.8903165522420107,6.289323337714333,-3.9806576803198324,19.943943374760515,-24.99498837542754
-0.51404693745709,4.0897559859896155,6.249516760911135,-4.230607564074107,20.1642998779639,-25.281597314725957
-0.4731493775971938,4.291398984769255,6.207210685270394,-4.483423537221367,19.64998085038998,-24.50016017359143
-0.4302353877495012,4.487898793273154,6.16237644989818,-4.728425138957282,18.02843370401509,-22.124441721922015
-0.38535639981676967,4.668183130313305,6.1150921985086075,-4.949669556176502,14.94021182443067,-17.646843894259575
-0.33867456851363664,4.817585248557612,6.0655955029468425,-5.126137995119098,10.21953722453781,-10.832527876570053
-0.29049871602806054,4.91978062080299,6.014334122995652,-5.234463273884799,4.126476147213062,-2.0463146394687644
-0.24130090982003066,4.96104538227512,5.961989490256804,-5.254926420279487,-2.5459593743577944,7.595992070859145
-0.19169045599727946,4.935585788531543,5.909440226054009,-5.178966499570896,-8.693356804629891,16.53810733013765
-0.14233459811196403,4.848652220485244,5.857650561058301,-5.013585426269519,-13.389841534020174,23.471223488985682
-0.09384807590711158,4.714753805145042,5.807514706795605,-4.778873191379662,-16.265447030202992,27.86464914563863
-0.04670053785566116,4.552099334843012,5.759725974881809,-4.500226699923276,-17.495605979347822,29.952618480696668
-0.0011795445072310395,4.377143275049534,5.714723707882576,-4.20070051511631,-17.529297902071992,30.35442137875491
0.0425918882432643,4.201850296028813,5.672716702731413,-3.897156301328761,-16.831123340835287,29.71347479154359
0.08461039120355243,4.03353906262046,5.633745139718125,-3.600021553413325,-15.758650446143395,28.525349621590276
0.12494578182975703,3.8759525581590264,5.597744924183992,-3.314768057197422,-14.545430524465306,27.113491044773742
0.1637053074113473,3.7304982529143733,5.564597243612018,-3.043633146749684,-13.327772459955561,25.6661707705558
0.20101028994049105,3.5972205283148178,5.534160912144521,-2.7869714390441263,-12.177622308954989,24.282088499199016
0.23698249522363923,3.4754443052252677,5.50629119775408,-2.544150554052136,-11.128242222328513,23.0060309565268
0.2717369382758919,3.3641618830019824,5.4808496922135586,-2.314090244486868,-10.191159777603012,21.85243099175547
0.3053785571059117,3.262250285225952,5.45770878976869,-2.095565934569313,-9.36643123505745,20.819655111065885
0.33800105995817126,3.1685859728753774,5.436753130422996,-1.8873693834586542,-8.648536300767443,19.898234295835906
0.369686919686925,3.082100609867703,5.41787943658841,-1.6883870405002952,-8.029629162379573,19.075430799455713
0.40050792578560207,3.001804318243907,5.400995566183407,-1.4976327325057381,-7.501256735803598,18.33768147435547
0.43052596896804113,2.926791750885871,5.386019238858349,-1.3142559177621833,-7.055212869132657,17.67184432788681
0.45979388647689984,2.8562396221945443,5.3728766796807275,-1.1375374744833153,-6.683916933071927,17.065785918102463
0.4883562826988453,2.789400452863825,5.361501304935894,-0.9668796153022907,-6.380537785340943,16.50861479791868
0.5162502872274836,2.725595075010416,5.351832508782871,-0.801793467323104,-6.138987084460188,15.99073155815484
0.5435062379775877,2.664205204165814,5.34381457410964,-0.6418861517415555,-5.953850641623207,15.503789274081816
0.5701482900192458,2.604666697749582,5.337395712592224,-0.48684825900073736,-5.820295293653234,15.04061485888265
0.5961949569967416,2.5464637448130496,5.332527230002217,-0.33644211041191086,-5.733971284320796,14.595117598526095
0.6216595944448722,2.4891240319698418,5.329162808898098,-0.1904909344266499,-5.6909203932127,14.162197726432805
0.6465508347645706,2.432214828037715,5.327257899553832,-0.04886895716232187,-5.687494660256982,13.737660594274626
0.6708729830449478,2.375339881435145,5.326769209982208,0.08850764878042439,-5.720287602077506,13.318138143943106
0.6946263818592993,2.31813700541437,5.327654286470012,0.22168903021985545,-5.786078222412166,12.901017475096085
0.7178077519134429,2.2602762231902482,5.329871176772211,0.3506992049708163,-5.88178727575014,12.484375474142073
0.7404105141453454,2.201458350432747,5.333378168821919,0.47554295971223703,-6.004444812429051,12.066918233546922
0.7624250976496729,2.1414139023084564,5.3381335984190414,0.5962121420477062,-6.1511678278337065,11.647924063062092
0.7838392366727575,2.0799022240301195,5.344095719839519,0.7126913826783272,-6.319146756717304,11.227189113993614
0.8046382589130586,2.0167107564629463,5.3512226336663025,0.8249632738182634,-6.505639542275081,10.804974909752652
0.8248053664776881,1.9516543610401955,5.359472266404485,0.9330130229157899,-6.7079720405354255,10.38195734687172
0.8443219100880901,1.8845746406348414,5.368802396633643,1.036832596384507,-6.923543579413269,9.959176971129551
0.8631676564944385,1.8153392048407087,5.379170722597488,1.1364243660958027,-7.149836570359817,9.537990529423286
0.8813210485428455,1.7438408391371105,5.390534966258446,1.2318042713900355,-7.384429163610252,9.120023945450521
0.8987594569342167,1.669996547501008,5.402853008972347,1.3230045108445407,-7.62501004113984,8.707126968390634
0.9154594224092267,1.5937464470896094,5.416083054080792,1.4100757805284472,-7.869394550370974,8.301329804820776
0.9313968868801228,1.5150525015858998,5.430183811886076,1.4930890785766548,-8.115541492391264,7.904802073376536
0.9465474118959818,1.4338970866619871,5.445114702671843,1.5721370993104202,-8.361569987340365,7.519814428114624
0.9608863827626016,1.3502813867885834,5.460836073664947,1.6473352435915665,-8.605775943860777,7.1487031886151176
0.9743891966304875,1.2642236273499756,5.477309426100862,1.7188222754777176,-8.846647757270341,6.793838299752035
0.9870314329039873,1.1757571497772723,5.494497648855639,1.786760658475238,-9.082880951737094,6.457594927203967
0.99878900440176,1.0849283402599013,5.5123652554403915,1.8513366077472777,-9.313391565657776,6.142328979728741
1.009638287804359,0.9917944246033235,5.530878621517864,1.9127598975445652,-9.537328158004161,5.850356837808387
1.0195562320503924,0.8964211430232818,5.55000622049331,1.9712634659226491,-9.75408238854916,5.583939560916487
1.0285204434806252,0.7988803191377902,5.569718855152536,2.027102861531814,-9.96329819879781,5.345271841906205
1.0365092466720032,0.6992473371498121,5.5899898837678546,2.080555579950876,-10.164879695183142,5.13647597602567
1.0435017200435013,0.5975985401979808,5.610795439567363,2.131920339711133,-10.358997913265975,4.9596011131028614
1.0494777054454811,0.494008561065321,5.632114642964475,2.1815163508421618,-10.546096722252573,4.816628064218884
1.0544177910561343,0.38854759384279525,5.653929806472897,2.2296826314843505,-10.726898213244938,4.709479939030292
1.0583032669945622,0.28127861171034585,5.67622663278774,2.2767774308746533,-10.902408001474846,4.640038897657619
1.0611160531116657,0.1722545316955974,5.698994407096487,2.3231778198512294,-11.073920960540033,4.610169312737155
1.0628385984286217,0.06151532209019707,5.722226185294999,2.369279512978601,-11.24302799235006,4.621747653282738
1.0634537516495237,-0.050914957833303534,5.7459189804247846,2.4154969895114284,-11.411624515466452,4.676699421140803
1.0629446020711906,-0.16503120298796806,5.770073950319899,2.4622639837228366,-11.581921419666456,4.777043488215243
1.061294290041311,-0.2808504171846326,5.794696590157128,2.510034418604989,-11.756459274654095,4.924944187114132
1.0584857858694645,-0.39841500993117357,5.819796934343177,2.55928386047613,-11.938126577723747,5.122771477516209
1.0545016357701529,-0.517796275708411,5.8453897729479385,2.610511575251292,-12.130182748888606,5.373169405705878
1.0493236730130688,-0.6390981031972971,5.871494888700451,2.664243269308351,-12.33628638262988,5.6791328265687575
1.042932691981096,-0.7624609670235959,5.898137321393535,2.7210345975740386,-12.560528859685432,6.044091849201704
1.03530808231086,-0.8880662556204502,5.925347667369276,2.7814755160660556,-12.807472671073347,6.4720025036827655
1.0264274197546555,-1.0161409823311836,5.953162422529936,2.846195541102883,-13.082192477889286,6.967440381750725
1.0162660099313436,-1.1469629071100764,5.981624377940965,2.9158699449203906,-13.390314638100554,7.535690936678716
1.004796380860243,-1.2808660534910818,6.010783077390169,2.9912268542871776,-13.738047033264857,8.18282483803103
0.9919877203253321,-1.4182465238237305,6.040695345933041,3.073055102667488,-14.132184457281541,8.915737772325297
