th1 (rad),w1 (rad/s),th2 (rad),w2 (rad/s),a1 (rad/s^2),a2 (rad/s^2)
1.9361653821600033,-2.819612372678992,5.624896576751542,0.3503167969632455,-7.647819894085156,3.5999861435114733
1.9079692584332135,-2.8960905716198435,5.628399744721174,0.38631665839836027,-7.497534375855304,4.2802223834921564
1.8790083527170152,-2.9710659153783965,5.632262911305158,0.4291188822332818,-7.347961763302751,4.9911337184924145
1.8492976935632313,-3.044545533011424,5.6365541001274915,0.47903021941820595,-7.203783078502385,5.728424032085921
1.818852238233117,-3.116583363796448,5.641344402321674,0.5363144597390652,-7.070022422486035,6.487836025423721
1.7876864045951524,-3.1872835880213084,5.646707546919065,0.6011928199933024,-6.951994270092868,7.265352412335424
1.7558135687149392,-3.256803530722237,5.652719475118998,0.6738463441166567,-6.855253629448011,8.057410652725421
1.7232455334077168,-3.3253560670167173,5.659457938560164,0.754420450643911,-6.785554427594277,8.861126124412479
1.6899919727375496,-3.39321161129266,5.667002143066603,0.8430317118880357,-6.748822125313508,9.674519022783953
1.656059856624623,-3.460699832545795,5.675432460185483,0.9397769021158753,-6.751147047257394,10.4967413828952
1.621452858299165,-3.528211303018369,5.684830229206642,1.0447443159448273,-6.798805260431347,11.32830249884464
1.5861707452689813,-3.5961993556226823,5.69527767236609,1.1580273409332738,-6.898314116226764,12.17129367983925
1.5502087517127545,-3.66518249678495,5.706857945775423,1.2797402777316662,-7.056529912173081,13.029616699264036
1.513556926744905,-3.7357477959066805,5.719655348552739,1.4100364447243066,-7.280795701345177,13.909224407114706
1.476199448785838,-3.808555752920132,5.733755712999982,1.5491286887954536,-7.579148288885091,14.818386733095005
1.4381138912566367,-3.884347235808983,5.749246999887936,1.6973125561264037,-7.9605951319784305,15.768000673741007
1.3992704188985468,-3.963953187128767,5.7662201254492,1.8549925628638138,-8.435474409008878,16.77196881606525
1.359630887027259,-4.048307931218856,5.784770051077838,2.0227122510244664,-9.015915068075694,17.84767744692519
1.3191478077150705,-4.138467081899613,5.804997173588083,2.201189025493718,-9.716418105526802,19.016612062683066
1.2777631368960742,-4.235631262954881,5.82700906384302,2.391355146120549,-10.554585042055194,20.305154225074368
1.2354068242665255,-4.341177113375433,5.850922615304226,2.5944066883712926,-11.55202275587838,21.745606724495744
1.1919950531327712,-4.456697340934216,5.876866682187939,2.81186275561625,-12.73545105125554,23.377487765558353
1.147428079723429,-4.584051851446771,5.904985309744101,3.045637633271834,-14.138020244975753,25.24910498867913
1.1015875612089614,-4.725432053896529,5.935441686076819,3.298128683158625,-15.800787206114416,27.419333818953685
1.0543332406699961,-4.883439925957672,5.968422972908406,3.5723220213481617,-17.77414711724938,29.959308257763478
1.0054988414104193,-5.0611813971301665,6.004146193121887,3.8719151039257964,-20.11865730811847,32.953221223335255
0.9548870274391177,-5.2623679702113515,6.042865344161145,4.201447316159149,-22.90385742914057,36.496259473110115
0.9022633477370041,-5.491406544502757,6.0848798173227365,4.56640991089025,-26.20181061269574,40.68505701087828
0.8473492822919766,-5.753424650629714,6.130543916431639,4.973260480999032,-30.06792684720585,45.59020726045758
0.7898150357856795,-6.054103919101773,6.1802765212416295,5.429162553603608,-34.492716999055304,51.187870089540034
0.7292739965946617,-6.399031089092326,6.234568146777666,5.941041254499009,-39.29047811719992,57.20275381910866
0.6652836857037385,-6.791935870264325,6.293978559322656,6.513068792690095,-43.86267266182868,62.775150410690586
0.5973643270010953,-7.230562596882612,6.359109247249557,7.140820296797001,-46.75925142607774,65.8444597700653
0.5250587010322691,-7.6981551111433895,6.430517450217527,7.799264894497654,-45.10225179394315,62.340317986727015
0.44807714992083525,-8.149177629082821,6.508510099162504,8.422668074364925,-34.64538996020879,46.2706180501062
0.36658537363000704,-8.495631528684909,6.592736779906153,8.885374254865987,-12.61163253744174,13.719971339671828
0.28162905834315793,-8.621747854059326,6.6815905224548136,9.022573968262705,16.195494288697247,-28.547879192021348
0.19541157980256468,-8.459792911172354,6.771816262137441,8.73709517634249,39.19102393031649,-62.80431042029134
0.11081365069084115,-8.067882671869189,6.859187213900865,8.109052072139578,48.44794680305406,-77.83666702030399
0.030134823972149255,-7.583403203838648,6.940277734622261,7.330685401936538,46.94783451043608,-77.74413385131315
-0.04569920806623723,-7.113924858734287,7.013584588641626,6.553244063423406,40.88278476581406,-71.16519263182938
-0.1168384566535801,-6.7050970110761465,7.07911702927586,5.8415921371051125,34.02210774427248,-63.379757538046896
-0.18388942676434156,-6.364875933633422,7.137532950646912,5.2077945617246435,27.793773525091925,-56.40381027439292
-0.2475381861006758,-6.086938198382502,7.189610896264158,4.6437564589807145,22.52641721584219,-50.71414876878204
-0.3084075680845008,-5.8616740262240805,7.236048460853965,4.136614971292894,18.16766714386239,-46.24816559784047
-0.3670243083467416,-5.679997354785456,7.277414610566894,3.674133315314489,14.570420207993028,-42.80322177767544
-0.42382428189459614,-5.534293152705526,7.314155943720039,3.2461010975377347,11.588100228672118,-40.170205237897456
-0.4791672134216514,-5.418412150418805,7.346616954695417,2.84439904515876,9.099961236060693,-38.16955534261639
-0.5333513349258394,-5.327412538058199,7.375060945147005,2.4627034917325963,7.013409686611043,-36.65516570540457
-0.5866254603064214,-5.2572784411920885,7.39968798006433,2.0961518346785506,5.259891941203093,-35.509303378260256
-0.6391982447183423,-5.204679521780058,7.420649498411116,1.741058800895948,3.789768954441122,-34.63620865256488
-0.6912450399361428,-5.166781832235647,7.438060086420076,1.394696714370299,2.567732337715935,-33.95664054534248
-0.7429128582584993,-5.141104508858487,7.452007053563778,1.0551303089168742,1.5690395758176876,-33.4038277966027
-0.7943239033470841,-5.125414113100311,7.462558356652947,0.7210920309508473,0.7764739390093847,-32.92072766318771
-0.8455780444780873,-5.117649373710217,7.469769276962455,0.39188475431897013,0.17786845647621066,-32.458353028723074
-0.8967545382151895,-5.115870689145455,7.473688124505645,0.06730122403173938,-0.23593722977569304,-31.97491213511038
-0.947913245106644,-5.118230061443212,7.474361136745962,-0.2524478973193644,-0.47278697348036675,-31.43551831777428
-0.9990955457210761,-5.122957931178016,7.471836657772768,-0.5668030804971071,-0.5405779610646017,-30.812243104099238
-1.0503251250328562,-5.128363710788662,7.466168626967797,-0.8749255115380996,-0.4483099945354388,-30.084303239303544
-1.1016087621407429,-5.132846810734017,7.457419371852416,-1.175768543931135,-0.20679857814591215,-29.238196270958323
-1.1529372302480831,-5.134914796515476,7.445661686413104,-1.4681505066407181,0.17096123230171573,-28.26763563041301
-1.2042863782132378,-5.133205184192459,7.430980181346698,-1.7508268629448482,0.6697754568710168,-27.173186198699636
-1.2556184300551625,-5.126507429623748,7.413471912717249,-2.0225587249318444,1.2725441293998623,-25.961561483379043
-1.3068835043514,-5.11378198832975,7.39324632546793,-2.2821743397656347,1.9608048876261484,-24.644605676035134
-1.3580213242346975,-5.094173939453489,7.370424582070274,-2.528620396525986,2.715441717702513,-23.238037840139885
-1.4089630636292323,-5.067019522276464,7.3451383781050135,-2.7610007749273846,3.517461154696911,-21.76007218177035
-1.459633258851997,-5.031844910729495,7.317528370355739,-2.978601496745088,4.348740403663332,-20.23004248314296
-1.509951707959292,-4.988357506692862,7.287742355388288,-3.1809019215765177,5.192667367113739,-18.66715023581401
-1.5598352830262205,-4.936430833021724,7.255933336172523,-3.3675734239346578,6.034617407598751,-17.08942951803522
-1.6091995913564379,-4.876084658945737,7.222257601933177,-3.53846771911501,6.862240276035005,-15.51298494288008
-1.6579604379458952,-4.807462256185387,7.186872924742027,-3.6935975685438107,7.665557592797595,-13.95152038847296
-1.706035060507749,-4.730806680257411,7.149936949056589,-3.8331127724285405,8.436892613197733,-12.416142561585128
-1.753343127310323,-4.646437754125433,7.1116058213323035,-3.957274198044392,9.170667785630283,-10.915398935305458
-1.7998075048515774,-4.55473107626913,7.0720330793518595,-4.066428187397446,9.863111758097705,-9.45549560352887
-1.8453548156142687,-4.456099958688153,7.031368797477885,-4.160983143432735,10.511917282482349,-8.040636221906178
-1.8899158152011502,-4.35098078586333,6.989758966043558,-4.241389505651797,11.115886821636554,-6.673426240907854
-1.9334256230597835,-4.239821917646965,6.947345070987041,-4.3081237680608755,11.674595540348657,-5.355294435938075
-1.975823842236253,-4.123075962243478,6.904263833306432,-4.361676712420256,12.188093376156043,-4.086893879953075
-2.0170546018586877,-4.001195028481917,6.86064706618223,-4.402545651219787,12.656660161633312,-2.8684551346321605
-2.0570665521435068,-3.874628426865584,6.816621609670031,-4.431230202566109,13.080620943805688,-1.7000743619511705
-2.0958128364121626,-3.7438222174275273,6.77230930764437,-4.448230946185621,13.460222979686794,-0.5819276562528979
-2.133251058586438,-3.6092199876306594,6.727826998182514,-4.45405022274815,13.79557140108154,0.48559004434886843
-2.1693432584627446,-3.471264273619844,6.683286495955032,-4.4491943223046615,14.08661714206316,1.5017975595748863
-2.204055901198943,-3.3303981021992124,6.638794552731985,-4.434176346708913,14.333188286261368,2.465723501079767
-2.237359882220935,-3.187066219336599,6.5944527892648965,-4.409519111698115,14.535054415730013,3.376154712594897
-2.269230544414301,-3.0417156751792986,6.550357598147915,-4.375757564572166,14.692012759775217,4.23172424880444
-2.299647701166094,-2.8947955475815466,6.506600022502194,-4.3334403220841216,14.803984904838412,5.031025200579543
-2.3285956566419093,-2.7467556985331623,6.463265619281352,-4.283130070078326,14.871113489724316,5.772736790668818
-2.356063213627241,-2.598044563635919,6.420434318580569,-4.225402702171638,14.89384960479804,6.4557501364191925
-2.3820436592636,-2.449106067587939,6.378180291558853,-4.160845200807446,14.873023429507063,7.0792827846416815
-2.4065347199394793,-2.3003758332928683,6.336571839550778,-4.090052372961029,14.80989282518695,7.642973402121419
-2.429538478272408,-2.1522769050409987,6.295671315821168,-4.013622638939815,14.706166959271588,8.146950643892712
-2.451061247322818,-2.005215235448283,6.25553508943177,-3.9321531325008876,14.564004366485841,8.591872983853872
-2.471113399677301,-1.8595751917834245,6.216213558106761,-3.8462344026623487,14.38598695572387,8.978938941132636
-2.489709151595135,-1.7157153222261858,6.177751214080137,-3.7564450132510223,14.17507318627865,9.30986946060179
-2.506866304817397,-1.5739645903633994,6.140186763947627,-3.6633463186450044,13.934534856041857,9.586866048370934
-2.522605950721031,-1.4346192418029808,6.103553300761177,-3.567477658161295,13.667882622937512,9.812549530986912
-2.536952143139061,-1.2979404155736056,6.067878524179564,-3.469352162851426,13.378785537293473,9.98988497919621
-2.549931547294797,-1.1641525602006708,6.03318500255105,-3.3694533130594637,13.070989567155074,10.122098455899277
-2.561573072896804,-1.0334426645291201,5.999490469420455,-3.268232328500471,12.74823945611557,10.212590904376249
-2.571907499542095,-0.9059602699679644,5.966808146135451,-3.1661064194567086,12.414207385907405,10.264853807119948
-2.580967102241775,-0.7818181961088904,5.935147081940884,-3.063457881385509,12.072430944363958,10.282390347210372
-2.5887852842028636,-0.6610938866652508,5.904512503127029,-2.9606339779134054,11.726261928975017,10.268644815206104
-2.5953962230695162,-0.5438312673755007,5.874906163347895,-2.8579475297613444,11.378826628960564,10.226942027695717
-2.6008345357432714,-0.43004300108589505,5.846326688050282,-2.7556781094843874,11.03299747922527,10.160437635671236
-2.6051349657541305,-0.31971302629364234,5.818769906955438,-2.654073733127675,10.69137539606926,10.072079450936782
-2.608332096017067,-0.21279927233294976,5.792229169624162,-2.553352938618307,10.356281693049201,9.964579330707014
-2.6104600887403966,-0.10923645540245774,5.7666956402379785,-2.453707145311237,10.029758224937037,9.84039473751646
-2.611552453294421,-0.008938873153087376,5.742158568784866,-2.355303197936072,9.713574296326781,9.701718821613424
-2.611641842025952,0.08819686981018043,5.718605536805505,-2.2582860097199378,9.40923887145361,9.550477734747698
-2.6107598733278503,0.18228925852471653,5.6960226767083055,-2.1627812323724607,9.118016704256437,9.388333851717823
-2.608936980742603,0.27346942556728093,5.674394864384581,-2.0688978938552824,8.840947145445643,9.216693622486483
-2.6062022864869303,0.36187889702173737,5.653705885446028,-1.9767309576304175,8.578864552827598,9.036718878249882
-2.602583497516713,0.44766754255001334,5.633938575869724,-1.8863637688479187,8.33241941346142,8.849340548131353
-2.5981068220912125,0.5309917366846275,5.615074938181245,-1.797870363366605,8.1020994671935,8.655273891873206
-2.592796904724366,0.6120127313565625,5.597096234547578,-1.7113176244478732,7.888250290924967,8.455034504931243
-2.5866767774108004,0.6908952342658122,5.5799830583031,-1.6267672793985608,7.69109495555252,8.248954496488903
-2.579767825068142,0.7678061838213375,5.563715385509114,-1.5442777344336718,7.510752499817598,8.037198372145983
-2.5720897632299287,0.8429137088195134,5.548272608164777,-1.463905750712212,7.347255076474898,7.819778268063768
-2.5636606261417336,0.9163862595842625,5.533633550657655,-1.3857079680315743,7.200563716992378,7.596568280813905
-2.554496763545891,0.9883918967541863,5.519776470977339,-1.3097422852234353,7.070582733166219,7.367317717134878
-2.544612844578349,1.0590977240858486,5.506679048125105,-1.2360691080520865,6.957172829877679,7.13166315121476
-2.5340218673374904,1.1286694523846255,5.494318357044584,-1.1647524765399389,6.860163045268074,6.889139225500528
-2.5227351728136442,1.197271082837306,5.482670832279185,-1.0958610842849337,6.77936166539303,6.639188166133519
-2.510762461985271,1.2650646994912365,5.471712221436335,-1.0294692026235985,6.714566282321626,6.3811680077271795
-2.4981118149903585,1.3322103623144528,5.461417529410099,-0.9656575225463268,6.6655731798194005,6.114359536047821
-2.484789711367214,1.3988660941126467,5.4517609541846355,-0.9045139271858486,6.632186241072098,5.837971962775885
-2.4708010504260876,1.4651879565233676,5.442715814912777,-0.8461342075580897,6.614225579963052,5.551147345261783
-2.456149170860854,1.5313302123229982,5.434254472837196,-0.7906227341054718,6.611536102527755,5.252963757190799
-2.440835868737624,1.5974455733482757,5.426348245496142,-0.7380930965335638,6.623996209432384,4.942437204310676
-2.424861413004141,1.6636855354425997,5.418967314530806,-0.688668724490457,6.651526854469285,4.6185222637056285
-2.408224557649715,1.7302008039872925,5.412080627285902,-0.6424835018534008,6.694101178699596,4.280111406334162
-2.390922549609842,1.7971418157742884,5.405655792267368,-0.5996823877900591,6.751754945310451,3.9260329415690722
-2.372951131452099,1.8646593652273928,5.399658968389467,-0.5604220583743684,6.824598006494069,3.555047500402273
-2.354304537799825,1.9329053452923335,5.394054747805723,-0.5248715833703457,6.91282704030007,3.1658429523824485
-2.3349754843469017,2.0020336156953342,5.3888060319720195,-0.4932131538465212,7.01673980149053,2.7570276326149066
-2.314955148189948,2.0722010137102393,5.383873900433554,-0.46564287752037214,7.136751134119207,2.3271217429402498
-2.294233138052846,2.1435685250514314,5.37921747165835,-0.4423716600909696,7.273410991737471,1.8745467914337528
-2.2727974528023314,2.216302634968806,5.374793755057441,-0.4236261921766321,7.427424698655641,1.3976129555143895
-2.250634426452643,2.2905768819553627,5.370557493135674,-0.40965006262148823,7.599675654269823,0.8945043100018034
-2.2277286576330897,2.366573638498061,5.3664609925094595,-0.4007050195214702,7.791250618904259,0.36326197372792723
-2.204062921248109,2.4444861446871036,5.362453942314245,-0.3970723997841909,8.003467603063056,-0.19823457028722447
-2.179618059801238,2.524520820717734,5.358483218316403,-0.39905474548706316,8.237906179627165,-0.7922873847698491
-2.1543728515940606,2.6068998825140057,5.354492670861532,-0.4069776193347616,8.496439698917927,-1.421400062353028
-2.1283038527689206,2.691864279503185,5.350422894668185,-0.4211916199582919,8.781268329132779,-2.088295729422808
-2.101385209973889,2.779676962794513,5.346210978468602,-0.44207457725252,9.094950943566477,-2.7959295908160144
-2.0735884403459437,2.8706264722301778,5.341790232696077,-0.4700338731606801,9.440432434888967,-3.54749029874623
-2.0448821756236417,2.965030796579067,5.33708989396447,-0.5055087761481424,9.821060749978225,-4.346380934351759
-2.015231867657851,3.0632414040788496,5.332034806202989,-0.54897258549166,10.240584332821966,-5.196164956285178
-1.9845994536170624,3.1656472474070694,5.3265450803480725,-0.6009342350545117,10.703115008832766,-6.100454056464112
-1.9529429811429917,3.272678397495397,5.3205357379975275,-0.6619387756191528,11.21303253204931,-7.062701895274281
-1.9202161971680378,3.3848087228158903,5.313916350241336,-0.7325657945718956,11.774793389685863,-8.08584783476588
-1.886368109939879,3.502556656712749,5.306590692295617,-0.8134242729195544,12.392585617344668,-9.171724701382017
-1.8513425433727515,3.6264825128861955,5.298456449566421,-0.9051415199333745,13.069740039393192,-10.320099758897365
-1.8150777182438895,3.7571799132801273,5.289405034367087,-1.0083425175223482,13.80776248701352,-11.527153006747813
-1.7775059191110882,3.8952575381502625,5.2793216091918636,-1.1236140475898262,14.60478743042864,-12.783106842265463
-1.7385533437295857,4.041305412454549,5.268085468715966,-1.2514451160124809,15.453171012473781,-14.068606825517925
-1.6981402896050402,4.195837122579287,5.255571017555841,-1.3921311842676602,16.33585298215211,-15.34933376022253
-1.6561819183792472,4.359195652400809,5.241649705713164,-1.5456245218698856,17.221067009692714,-16.568268235311866
-1.612589961855239,4.531406322497736,5.226193460494465,-1.7113072042230044,18.055083686019874,-17.635199037936996
-1.5672758986302617,4.711957159357935,5.209080388452235,-1.8876591946023744,18.753183713716385,-18.41383102431757
-1.5201563270366825,4.899488996495099,5.1902037965062116,-2.07179750484555,19.190438635746478,-18.70886058389984
-1.4711614370717314,5.091393382852564,5.169485821457756,-2.258886110684548,19.19672590114784,-18.259502031435925
-1.4202475032432058,5.283360641864042,5.146896960350911,-2.4414811309989073,18.56491131846388,-16.752414013248412
-1.3674138968245655,5.469009755048681,5.122482149040922,-2.6090052711313914,17.085396643051737,-13.87304621326295
-1.3127237992740786,5.639863721479198,5.096392096329608,-2.7477357332640207,14.617657179755577,-9.410643274862185
-1.2563251620592866,5.786040293276754,5.068914738996968,-2.8418421660126425,11.189223502075363,-3.403102574218921
-1.198464759126519,5.897932528297508,5.040496317336841,-2.875873191754832,7.073072955646501,3.7489167086291095
-1.1394854338435438,5.968663257853973,5.011737585419293,-2.838384024668541,2.7674996756786743,11.308260440973207
-1.0797988012650042,5.99633825461076,4.983353745172607,-2.725301420258809,-1.1549489993866398,18.41736174280714
-1.0198354187188965,5.984788764616893,4.956100730970019,-2.541127802830738,-4.254501394086979,24.398283664834015
-0.9599875310727276,5.942243750676024,4.930689452941712,-2.2971449661823975,-6.352167863385402,28.94294590850151
-0.9005650935659674,5.87872207204217,4.9077180032798875,-2.0077155070973824,-7.515163354116795,32.09948258729062
-0.8417778728455456,5.803570438501002,4.887640848208914,-1.6867206812244762,-7.9520756105336945,34.126408574908616
-0.7837421684605356,5.724049682395665,4.870773641396669,-1.3454565954753899,-7.905539990198582,35.33935749951288
-0.7265016716365789,5.64499428249368,4.857319075441915,-0.9920630204802611,-7.588159462510597,36.01723043492806
