th1 (rad),w1 (rad/s),th2 (rad),w2 (rad/s)
4.502572534833401,0.787747781308644,5.159177281902274,1.2423165274644625
4.510450012646488,0.8854580827563082,5.171600447176918,1.249515446748527
4.519304593474051,0.984270148775473,5.184095601644404,1.254557675778922
4.529147294961806,1.0842756251934906,5.196641178402193,1.2571702133278346
4.539990051213741,1.1855637446136673,5.209212880535471,1.257075768518155
4.551845688659878,1.2882217001409073,5.221783638220653,1.2539928266090352
4.564727905661287,1.3923350823079077,5.234323566486743,1.247635847470289
4.578651256484366,1.4979883721833345,5.246799924961445,1.2377156348586464
4.5936311402062,1.605265477429912,5.259177081310032,1.2239399236634965
4.609683794980499,1.7142502890626907,5.271416480546667,1.2060142449919038
4.626826297871125,1.8250272239264358,5.283476622996586,1.1836431465609634
4.6450765701103895,1.9376817002487303,5.295313054462196,1.1565318700510059
4.664453387112877,2.052300469419391,5.306878373162706,1.124388620099337
4.684976391807071,2.1689716942874546,5.318122259363699,1.086927604432231
4.706666108749945,2.287784620041238,5.328991535408021,1.0438730850235913
4.7295439549503575,2.408828624743308,5.339430266258257,0.9949647608303231
4.75363224119779,2.5321913587322613,5.349379913866561,0.939964909160251
4.778954154785113,2.657955580760703,5.358779562958164,0.878667851187366
4.80553371059272,2.786194169351286,5.367566241470038,0.810912483244702
4.833395652286233,2.916962627244115,5.3756753663024845,0.7365988325152756
4.862565278558675,3.0502882059019845,5.383041354627637,0.6557098502246888
4.893068160617695,3.1861545659335824,5.389598453129884,0.5683399298771182
4.92492970627703,3.3244806861336564,5.395281852428655,0.47473188775673586
4.958174513138367,3.4650925992420802,5.4000291713062225,0.3753242750215179
4.992825439130788,3.607686581009033,5.403782414056438,0.2708107335956118
5.028902304940878,3.7517828466833985,5.406490521392394,0.16221237230041222
5.066420133407712,3.8966699189009626,5.4081126451153985,0.05096238262909951
5.1053868325967215,4.041342034636372,5.40862226894169,-0.061001258288802165
5.1458002529430855,4.184435700967218,5.408012256358802,-0.17114476713634313
5.187644609952757,4.324177030113549,5.406300808687439,-0.2762671659130085
5.230886380253893,4.458358322744024,5.403538137028309,-0.3724764991445951
5.275469963481333,4.584368608952148,5.399813372036863,-0.4552506523236832
5.321313649570855,4.699304459946794,5.395260865513626,-0.5196218568515574
5.368306694170323,4.80017856780187,5.39006464694511,-0.5605106759997341
5.416308479848341,4.884219642035605,5.384459540185112,-0.573199718012487
5.465150676268697,4.949220043303503,5.378727543004987,-0.5538823321994711
5.514642876701733,4.993851005399253,5.373188719682992,-0.5001670805777686
5.564581386755726,5.017852226897523,5.368187048877214,-0.41139833036625817
5.614759909024701,5.02203045062559,5.364073065573551,-0.28869266022307044
5.664980213530957,5.00806420494936,5.361186138971321,-0.13468168622021512
5.715060855580451,4.978177543623484,5.359839322109119,0.046951012551375154
5.764842631016686,4.934779354972694,5.360308832234633,0.25199919794694225
5.814190424566413,4.88015447587068,5.362828824214103,0.47620177646626044
5.86299196932512,4.816254069233905,5.367590841978766,0.7155758212765639
5.911154510017459,4.744591410513947,5.374746600191531,0.9666013548061836
5.958600424122599,4.666222552333624,5.384412613739593,1.2262842752549923
6.005262649645935,4.581782253289564,5.396675456492143,1.4921385589039775
6.051080472178831,4.491548385760963,5.411596842081183,1.762126108359102
6.0959959560364405,4.3955157045971776,5.429218103164774,2.0345823165685877
6.139951113082413,4.293467625861979,5.44956392633046,2.3081444566545155
6.182885789341032,4.185040522444739,5.472645370897005,2.581691446717957
6.224736194565479,4.069778724105968,5.498462285364184,2.854297925618456
6.265433981806539,3.9471803825920833,5.527005264620368,3.125202357161589
6.30490578563246,3.816735234107563,5.558257288191984,3.393787262126715
6.343073137973536,3.677955560419718,5.592195160813252,3.659568989427559
6.3798526935777335,3.5304016583711304,5.628790850707527,3.922194214793225
6.415156710161445,3.3737030889628272,5.66801279285546,4.181440306959626
6.448893741051073,3.2075770201194183,5.7098271959250555,4.4372166506264135
6.480969511252267,3.0318451836017424,5.7541993624313195,4.689563845411959
6.511287963088285,2.846451398065803,5.801095000885439,4.93864731412733
6.539752477068943,2.651482324845443,5.850481474026712,5.18474115058697
6.566267300317397,2.4471951797320872,5.902328885532582,5.428196901133791
6.590739252114718,2.234057571367454,5.9566108545439205,5.669390288144193
6.613079827828392,2.0128064679593285,6.013304757425362,5.908636587922024
6.633207892507985,1.784535334024048,6.072391123304582,6.146062616301093
6.651053245848225,1.5508201425878214,6.133851749467593,6.381420734659008
6.666561447274104,1.3138947980803104,6.197665956814183,6.613829818688164
6.6797003952549066,1.0768814204414203,6.263804255001065,6.841433803515006
6.69046920945932,0.8440653598658046,6.332218593036215,7.06098779446308
6.698909863057978,0.6211705994025998,6.402828470980846,7.26742609507867
6.705121569052005,0.4155312219425663,6.475502731931632,7.453546265910549
6.70927688127143,0.23597495137006141,6.550038194590738,7.610051619525108
6.71163663078513,0.09217844059327401,6.626138710785989,7.726274846323576
6.712558415191063,-0.006680588204051124,6.703401459249225,7.79182556950823
6.712491609309023,-0.053852767043378935,6.781319714944307,7.799015909417751
6.711953081638589,-0.04692290685980352,6.859309874038485,7.745277288258731
6.711483852569991,0.011228070240254524,6.936762646921072,7.634365021618074
6.711596133272393,0.11301971348143708,7.013106297137253,7.475558203233772
6.712726330407207,0.24807633098833132,7.087861879169591,7.281208722597293
6.7152070937170905,0.4054874414903248,7.160673966395564,7.063899381887352
6.719261968131994,0.575515620019954,7.231312960214437,6.834380507772954
6.725017124332193,0.7504106477931716,7.299656765292166,6.600686562848824
6.732521230810124,0.9244955435342693,7.365663630920655,6.368175944833566
6.741766186245467,1.0938626252206938,7.429345390368991,6.140033789224217
6.752704812497674,1.2559530304684003,7.490745728261233,5.917882287819291
6.765264342802358,1.4091671990495374,7.549924551139426,5.702317071233871
6.779356014792854,1.5525587072784628,7.606947721851765,5.4933134361186715
6.794881601865638,1.685614192498488,7.661880856212951,5.290508246940512
6.811737743790624,1.8081035583025642,7.714785938682357,5.093384184862363
6.82981877937365,1.9199815880180222,7.76571978053098,4.901384357802712
6.849018595253829,2.021324878715519,7.8147336241090075,4.713979924424128
6.869231844040985,2.112292073317694,7.861873423353249,4.530707096365501
6.890354764774162,2.1930989966194927,7.907180494316903,4.35118465876315
6.912285754740356,2.2640030660770285,7.950692340904535,4.175119343955289
6.934925785401126,2.325293305171838,7.992443534344088,4.002303800062726
6.958178718452844,2.377283618650618,8.032466572344715,3.8326101935557007
6.98195155463935,2.420307874685575,8.070792674280272,3.665981390529206
7.006154633386206,2.454715919786346,8.107452488185563,3.5024209653784055
7.03070179258407,2.4808700285683294,8.142476697839347,3.3419828437465906
7.055510492869753,2.4991415307328437,8.175896526276814,3.1847611042558
7.080501908177081,2.5099075075557793,8.207744137319372,3.0308802800760444
7.105600983252639,2.513547540121255,8.238052940120133,2.880486378964794
7.1307364586538515,2.5104405416345905,8.266857803909781,2.733738755760432
7.155840864070197,2.500961729948982,8.294195191467386,2.5908029104372856
7.180850481369687,2.4854798031688126,8.32010322057176,2.451844239462237
7.205705279401375,2.464354377221994,8.344621662966382,2.3170227335563034
7.230348823173595,2.4379337340694196,8.367791890301945,2.1864885883349205
7.25472816051429,2.4065529158482017,8.389656776185294,2.0603786741111696
7.278793689672772,2.3705321858753416,8.410260562926405,1.938813796439226
7.302499011531525,2.3301758635146133,8.429648700890798,1.8218966690791867
7.325800770166671,2.285771527350846,8.44786766758159,1.7097105154145207
7.348658485440179,2.23758957044802,8.464964772735735,1.60231821240397
7.37103438114466,2.1858830829245406,8.480987954859774,1.4997618923408467
7.392893211973905,2.130888030684941,8.495985573783182,1.4020629214483777
7.414202092280754,2.072823694782904,8.510006202997666,1.3092221800819062
7.4349303292285835,2.011893333346764,8.523098424798485,1.221220576476692
7.455049262562051,1.9482850270187488,8.535310630563252,1.1380197340498972
7.474532112832239,1.8821726691705833,8.54669082790375,1.0595628007659594
7.4933538395239445,1.8137170634953335,8.557286455911411,0.9857753375987995
7.511491010158898,1.7430670936954373,8.567144209287399,0.9165662513353239
7.528921681095852,1.6703609326772402,8.576309871800753,0.8518287445979791
7.545625290422625,1.5957272617442881,8.584828159246733,0.7914412628261919
7.5615825630400675,1.5192864736092724,8.592742571874995,0.7352684239209071
7.57677542777616,1.4411518365013247,8.600095256114203,0.6831619212580076
7.591186946141173,1.361430600139149,8.606926875326783,0.6349613948045394
7.604801252142565,1.2802250277977845,8.613276489274828,0.5904952681625905
7.617603502420542,1.1976333420578178,8.619181441956453,0.5495815515942534
7.62957983584112,1.1137505750401555,8.624677257472396,0.5120286125521483
7.640717341591522,1.0286693169531202,8.629797543597917,0.47763591607923495
7.651004034761053,0.9424803595729425,8.63457390275871,0.446194737786461
7.660428838356783,0.8552732338102367,8.639035850136574,0.41748885210687736
7.668981570694885,0.7671366427568918,8.643210738657643,0.3912951982932564
7.676652937122453,0.6781587935416473,8.647123690640576,0.3673845262912662
7.683434525057869,0.5884276329408868,8.65079753590349,0.345522024278577
7.689318801387278,0.49803099299896,8.654252756146276,0.3254679293820766
7.694299111317268,0.407056653928413,8.657507435440097,0.30697812291173787
7.698369677856553,0.3155923323171182,8.660577216669214,0.28980471139262104
7.701525601179724,0.22372560321054918,8.663475263783141,0.2736965947217557
7.70376285721183,0.131543765016205,8.666212229730359,0.25840002288893443
7.705078294861992,0.03913365645069633,8.668796229959248,0.24365914283074663
7.705469631426499,-0.05341856502522081,8.671232821387555,0.22921653708137407
7.704935445776247,-0.14602767361208085,8.67352498675837,0.21481375589156604
7.703475169040126,-0.23860964447931204,8.675673124317285,0.200191844371065
7.701089072595333,-0.33108193170623945,8.677675042760995,0.18509186595123703
7.697778253278271,-0.423363744188443,8.679525961420508,0.16925542306955563
7.6935446158363865,-0.5153763083873781,8.681218515651203,0.1524251754775627
7.688390852752513,-0.6070431063242595,8.682742767405978,0.1343453560251212
7.682320421689271,-0.6982900767660496,8.684086220966229,0.11476228325226626
7.675337520921611,-0.7890457671784169,8.685233843798752,0.09342486971456604
7.667447063249827,-0.8792414237880429,8.686168092495897,0.07008512477097122
7.658654649011947,-0.9688110070624277,8.686868943743606,0.04449865066039134
7.648966538941322,-1.0576911201285462,8.68731393025021,0.01642513115372973
7.638389627740037,-1.1458208381479786,8.687478181561747,-0.014371187064679863
7.626931419358558,-1.2331414274643329,8.6873344696911,-0.04812101884718707
7.614600005083914,-1.3195959444399,8.686853259502628,-0.08504956774753618
7.601404045639515,-1.4051287052869559,8.686002763825153,-0.1253760507747362
7.587352758586645,-1.4896846198461116,8.684749003317405,-0.16931321336877594
7.572455912388184,-1.5732083841328133,8.683055871183717,-0.21706682488300835
7.556723828546856,-1.6556435285248992,8.680885202934887,-0.26883514255517704
7.540167393261607,-1.7369313206653518,8.678196851509336,-0.3248083298582048
7.522798080054953,-1.8170095244824138,8.674948768210754,-0.3851678134182883
7.504627984810129,-1.8958110191774444,8.671097090076572,-0.4500855615481186
7.485669874618354,-1.9732622846117538,8.66659623446109,-0.5197232670392548
7.465937251772237,-2.0492817622694695,8.661399001790699,-0.5942314173531065
7.445444434149542,-2.12377810393463,8.655456687617168,-0.6737482368961064
7.424206653110196,-2.196648323461113,8.648719205248206,-0.7583984887991053
7.402240169875585,-2.2677758706042543,8.641135220360216,-0.8482921276656666
7.379562411169542,-2.337028649890913,8.632652299083558,-0.9435228002124882
7.356192124670633,-2.4042570119840367,8.623217071081433,-1.0441661976792167
7.332149554550792,-2.469291749974962,8.612775409104641,-1.150278272387789
7.307456637051042,-2.5319421384967944,8.601272626380762,-1.2618933408992856
7.282137215666074,-2.591994059423528,8.58865369297177,-1.3790221078161256
7.256217275071839,-2.6492082640585553,8.57486347189361,-1.501649657312319
7.229725192431253,-2.703318827892916,8.559846975320486,-1.6297334737665239
7.202692004152325,-2.754031859898995,8.543549640582821,-1.7632015681449933
7.175151685553335,-2.8010245334819026,8.525917624901371,-1.901950802641247
7.147141440218515,-2.8439445100880674,8.50689811687496,-2.045845522003513
7.118701995117635,-2.882409828408197,8.486439661654924,-2.19471661530881
7.089877896833553,-2.916009331351347,8.464492495501835,-2.348361145876704
7.060717803520039,-2.9443036986765887,8.441008884043068,-2.506542698637045
7.031274766533273,-2.9668271444821572,8.415943457056697,-2.6689926025637596
7.001606495088452,-2.9830898248232303,8.38925353103106,-2.835412189709443
6.971775596840219,-2.9925809808072774,8.360899409133964,-3.005476250901385
6.9418497870321465,-2.9947728160350056,8.33084464662495,-3.1788378403903974
6.911902058871797,-2.989125073945179,8.299056268221046,-3.35513456701605
6.882010808132345,-2.9750902406303394,8.265504922550885,-3.533996487462417
6.852259905726042,-2.95211925271321,8.230164957676262,-3.7150556881102075
6.82273871319891,-2.9196675392857245,8.19301440079516,-3.8979576066214507
6.793542037806053,-2.877201173895509,8.154034824728946,-4.082374104153985
6.764770026067098,-2.824202860222828,8.113211083687405,-4.268018256052708
6.7365279974648695,-2.7601774275687365,8.070530901126878,-4.454660785504125
6.708926223189182,-2.6846564749032904,8.025984293271836,-4.642148023491271
6.6820796584401485,-2.5972017817693023,7.979562813036924,-4.830421241189679
6.656107640622455,-2.497407109510861,7.931258600625027,-5.019537167286379
6.631133569527346,-2.3848980587733535,7.881063228952163,-5.2096894677182
6.607284588939613,-2.259329745678051,7.828966334274981,-5.4012309159310075
6.584691291482832,-2.120382235032961,7.7749540251156715,-5.5946958904293735
6.563487469132502,-1.9677539658237484,7.719007066211378,-5.790822650718117
6.543809929474264,-1.8011538919136114,7.661098839704197,-5.990574467790632
6.525798390555128,-1.6202938596066963,7.60119309502629,-6.1951579533997805
6.50959545195906,-1.4248840614948501,7.539241515492292,-6.40603555143567
6.495346611344112,-1.2146366007638247,7.475181159977935,-6.624926621747407
6.483200245336474,-0.9892858785938353,7.408931893760461,-6.853787007044142
6.473307386550536,-0.748640678001958,7.34039402369002,-7.0947490113707605
6.465820979770516,-0.49269301401620225,7.269446533576312,-7.349990102811875
6.460894049630354,-0.22182519786528587,7.1959466325481936,-7.6214762225485435
6.458675797651701,0.06281875847248158,7.119731870322708,-7.910490973971701
6.459303985236425,0.3586990286993681,7.0406269605829905,-8.216815302078984
6.462890975523419,0.6608574883646121,6.9584588075622005,-8.537379164884543
6.469499550407066,0.9604054579082063,6.873085015913355,-8.864228823308247
6.479103604986148,1.2426172562088427,6.784442727680272,-9.18190495814752
6.491529777548236,1.4853126709920492,6.692623678098797,-9.465108133396363
6.506382904258157,1.6593193181055004,6.5979725967648335,-9.679028144894655
6.522976097439211,1.7337198383815033,6.501182315315887,-9.785977267980128
6.540313295823026,1.6868579672956785,6.403322542636086,-9.759666401408776
6.557181875495982,1.5178740238380806,6.305725878621998,-9.600124866898657
6.572360615734363,1.2487734996941229,6.209724629953011,-9.335963487839678
6.5848483507313045,0.9139294775347874,6.116364995074615,-9.01017143822057
6.593987645506652,0.5462132658577692,6.026263280692409,-8.66203094894379
6.59944977816523,0.16941767446922695,5.9396429712029715,-8.31783794945039
6.601143954909922,-0.20221709164216162,5.856464591708468,-7.991020615950338
6.599121783993501,-0.5613428033736316,5.776554385548964,-7.686115452233288
6.593508355959765,-0.9047021634414697,5.6996932310266315,-7.402651381362939
6.58446133432535,-1.2311662783834092,5.625666717213002,-7.137768171908709
6.572149671541515,-1.5405810222126148,5.554289035493914,-6.887707499514139
6.556743861319389,-1.8331564762149284,5.485411960498773,-6.64858065592136
6.53841229655724,-2.1091728267305876,5.41892615393956,-6.416732966253773
6.517320568289934,-2.3688580606391363,5.354758824277022,-6.188900356976366
6.493631987683543,-2.6123547947122026,5.292869820707258,-5.9622646779794515
6.46750843973642,-2.839731208002202,5.233247173927464,-5.73446222884852
6.439111127656398,-3.051011959095648,5.175902551638979,-5.503571802560635
6.408601008065442,-3.2462161443222177,5.1208668336133725,-5.268094080720606
6.3761388466222195,-3.4253952474950697,5.0681858928061665,-5.02692705838212
6.3418848941472685,-3.5886671725510717,5.017916622222345,-4.779338847196758
6.305998222421758,-3.73624419264575,4.970123233750377,-4.524937850830485
6.268635780495301,-3.868453695448559,4.9248738552420726,-4.263639955028287
6.229951243540816,-3.9857513060076717,4.88223745569179,-3.9956325116764613
6.190093730480739,-4.088726491311398,4.842281130575025,-3.721335241564171
6.149206465567625,-4.178101164062959,4.805067778159383,-3.4413585765794714
6.107425453926996,-4.254722129184813,4.770654192393589,-3.1564603181922033
6.064878232635148,-4.3195484563659265,4.739089589211667,-2.867501754857817
6.0216827480714885,-4.373635010559812,4.7104145716630885,-2.5754045329702446
5.977946397965891,-4.418113426131252,4.684660526333386,-2.281109610777839
5.933765263704578,-4.454171770435794,4.661849430225607,-1.9855395545513155
5.8892235460002205,-4.483034015360812,4.641994034680094,-1.6895652858999872
5.844393205846612,-4.505940231128716,4.625098381821094,-1.39397819239877
5.799333803535324,-4.524128147378751,4.611158599897107,-1.0994683110144037
5.754092522061537,-4.538816402451499,4.600163916786963,-0.8066091298001259
5.708704358037022,-4.551189427850902,4.5920978254889615,-0.5158494754177562
5.663192463758513,-4.562383486988593,4.586939330734784,-0.2275130125351686
5.617568628888627,-4.5734728890187695,4.584664200609432,0.05819386950661887
5.571833899998439,-4.585454798471744,4.585246139304498,0.34116450659246306
5.525979352013722,-4.599230313431565,4.588657784370423,0.6213626511147727
5.479987048879406,-4.615578535060124,4.594871410881571,0.8987781065323528
5.433831263528805,-4.6351191587176475,4.603859191946895,1.1733623833336946
5.387480071941628,-4.658257708619503,4.615592815780231,1.4449374745371801
5.340897494855433,-4.68510612755954,4.630042190525603,1.7130688435095585
5.294046433579838,-4.71537065918432,4.647172878960698,1.9768926145829588
5.246892726987994,-4.748200305533455,4.666941805106528,2.234888868765231
5.19941072393266,-4.78199553639381,4.68929069379418,2.4846020034347016
5.151590768568722,-4.814193232071549,4.714136713828527,2.7223321316534332
5.103448836248007,-4.84107609080626,4.741360035145061,2.9428668642481717
5.055038075339945,-4.857705437900404,4.770788703787543,3.1393938456788675
5.00646102096094,-4.85813229035318,4.802182642244332,3.3038120727471423
4.9578796980574085,-4.836055648758056,4.835220762971803,3.427677680851826
4.909519141569828,-4.7859874590350255,4.869497539780321,3.503862195575527
4.861659266979478,-4.7046986842089265,4.904536161736076,3.528596298595488
4.814612280137389,-4.592376852790314,4.939822124722031,3.5030866064183996
4.768688511609486,-4.452848289911943,4.974852990786215,3.43378896757904
