th1 (rad),w1 (rad/s),th2 (rad),w2 (rad/s),a1 (rad/s^2),a2 (rad/s^2)
1.373976045101313,-2.3587162943846733,3.82770872420317,2.926423370363155,-8.350646071076975,-3.7753122460254174
1.3503888821574663,-2.442222755095443,3.8569729579068017,2.8886702479029007,-8.765318121264714,-4.166820484439509
1.3259666546065119,-2.5298759363080903,3.885859660385831,2.8470020430585055,-9.181492730741072,-4.549167535521231
1.300667895243431,-2.621690863615501,3.914329680816416,2.801510367703293,-9.584499237407263,-4.900610947404236
1.274450986607276,-2.7175358559895737,3.942344784493449,2.752504258229251,-9.955183602433609,-5.192662664339747
1.2472756280473802,-2.8170876920139096,3.9698698270757418,2.7005776315858534,-10.269807861757466,-5.389836027752033
1.219104751127241,-2.9197857706314845,3.9968756033916004,2.646679271308333,-10.50058369661107,-5.45030086282058
1.1899068934209263,-3.0247916075975954,4.023342396104684,2.5921762626801272,-10.61711856693775,-5.327865634238051
1.1596589773449504,-3.130962793266973,4.049264158731485,2.5388976063377466,-10.588990795234313,-4.9756230554784295
1.1283493494122807,-3.236852701219316,4.074653134794862,2.489141375782962,-10.389486805846495,-4.351333412299308
1.0959808224000875,-3.340747569277781,4.099544548552692,2.445628041659969,-10.000216683400314,-3.4241546419972364
1.0625733467073097,-3.440749736111784,4.124000828969292,2.4113864952399964,-9.415921834285722,-2.1817260585822296
1.0281658493461918,-3.5349089544546413,4.148114693921692,2.389569234654174,-8.648429426974749,-0.6360606910388827
0.9928167598016454,-3.621393248724389,4.172010386268234,2.383208627743785,-7.728576173100228,1.173524916107142
0.9566028273144015,-3.698679010455391,4.195842472545672,2.3949438769048568,-6.705175524644897,3.1818706439871045
0.9196160372098476,-3.76573076570184,4.21979191131472,2.4267625833447277,-5.640758000266893,5.3042885810281994
0.8819587295528293,-3.8221383457045093,4.244059537148168,2.4798054691550098,-4.6046958354144145,7.446876042835211
0.8437373460957842,-3.8681853040586534,4.268857591839718,2.554274229583362,-3.6651035226028523,9.518769155727973
0.8050554930551976,-3.9048363392846817,4.294400334135552,2.6494619211406416,-2.8812656810944928,11.44370431709045
0.7660071296623508,-3.9336489960956267,4.320894953346958,2.763898964311546,-2.2981408467351443,13.168537121012351
0.7266706397013946,-3.9566304045629783,4.348533942990073,2.8955843355216695,-1.9438302568832724,14.667363394653583
0.6871043356557648,-3.976068707131811,4.37748978634529,3.0422579694682055,-1.8300694996767397,15.941163102105644
0.6473436485844467,-3.9943694021285783,4.407912366039972,3.2016696004892617,-1.9551072915824228,17.013964352920212
0.607399954563161,-4.013920475044403,4.439929062044865,3.371809244018464,-2.3079739296406663,17.92709422239319
0.5672607498127169,-4.037000214340809,4.473647154485049,3.551080186242396,-2.873138316389108,18.73310106126016
0.5268907476693088,-4.0657315975047,4.509157956347473,3.7384111968549973,-3.6348025280082448,19.490562086668092
0.48623343169426175,-4.102079622784783,4.546542068316024,3.9333168177216784,-4.580434242632466,20.26047032061947
0.44521263546641393,-4.147883965211108,4.585875236493241,4.135921520927873,-5.703462689659783,21.10442724573554
0.40373379581430285,-4.204918592107705,4.6272344517025195,4.346965793385229,-7.005295539396655,22.084558524796662
0.3616846098932258,-4.274971547501671,4.670704109636372,4.567811378633195,-8.496941186254348,23.264936642165694
0.3189348944182091,-4.359940959364215,4.716382223422704,4.800460745054852,-10.200565124059981,24.71429763098027
0.27533548482456693,-4.461946610604815,4.764386830873252,5.047603721364655,-12.151299171955268,26.50991816662225
0.23071601871851877,-4.583459602324368,4.814862868086898,5.312702903030877,-14.39957084507932,28.74260489658635
0.18488142269527508,-4.727455310775161,4.867989897117207,5.600128951996741,-17.01409945617668,31.522745889271718
0.13760686958752347,-4.897596305336928,4.923991186637174,5.915356410889458,-20.085400971336764,34.98710053011239
0.08863090653415417,-5.098450315050296,4.983144750746069,6.265227416190582,-23.72883763761673,39.30501565492899
0.03764640338365122,-5.335738691426463,5.045797024907975,6.6582775727398715,-28.084120223594542,44.67992247020919
-0.015710983530613412,-5.616579893662408,5.112379800635374,7.1050767974419635,-33.302633882363715,51.33440247918535
-0.0718767824672375,-5.949606232486045,5.1834305686097935,7.6184208222338174,-39.499821566645316,59.44757855556649
-0.13137284479209793,-6.344604448152498,5.259614776832132,8.212896607789482,-46.61503917176216,68.96516300015938
-0.1948188892736229,-6.810754839870119,5.341743742910027,8.902548237791075,-54.043263856948165,79.09338366934898
-0.2629264376723241,-7.351187478439601,5.430769225287937,9.693482074484566,-59.77457893164757,87.10705355873522
-0.3364383124567201,-7.948933267756077,5.527704046032783,10.564552610071917,-58.82583956642488,86.16475505194018
-0.4159276451342809,-8.537191663420327,5.633349572133502,11.42620016059132,-42.27184584578197,63.94328389110818
-0.5012995617684841,-8.959910121878146,5.747611573739415,12.065632999502402,-3.31338010846457,11.06370391105259
-0.5908986629872656,-8.99304392296279,5.868267903734439,12.176270038612927,45.53143209727902,-55.036796482081826
-0.6808291022168935,-8.53772960199,5.990030604120568,11.625902073792108,75.52852040788603,-94.64780390236058
-0.7662063982367935,-7.7824443979111395,6.106289624858489,10.679424034768502,79.09610075816772,-97.6920433533231
-0.8440308422159049,-6.991483390329463,6.2130838652061735,9.702503601235271,70.12876600439766,-83.63284275562042
-0.9139456761191995,-6.290195730285486,6.310108901218526,8.866175173679068,59.30707229727937,-67.17334545707519
-0.9768476334220544,-5.6971250073126924,6.398770652955316,8.194441719108315,50.13072543791625,-53.02062793607035
-1.0338188834951814,-5.19581775293353,6.4807150701464,7.664235439747612,43.06024674231521,-41.71690631747444
-1.0857770610245168,-4.7652152855103775,6.557357424543876,7.247066376572868,37.776717222295396,-32.763978579787675
-1.1334292138796205,-4.387448113287424,6.629828088309605,6.919426590774991,33.87658963880233,-25.56922412514506
-1.1773036950124947,-4.048682216899401,6.699022354217354,6.663734349523541,31.02862404303037,-19.653243784214126
-1.2177905171814887,-3.7383959764690973,6.765659697712589,6.467201911681399,28.986475002594172,-14.663206153888805
-1.2551744769461797,-3.4485312264431554,6.830331716829403,6.320569850142511,27.570608044855152,-10.347127109047706
-1.2896597892106112,-3.172825145994604,6.893537415330829,6.217098579052034,26.648324274570026,-6.527697223224505
-1.3213880406705572,-2.9063419032489035,6.955708401121349,6.151821606819789,26.117596183962945,-3.083007500458722
-1.3504514597030461,-2.645165941409274,7.0172266171895465,6.120991531815202,25.894725189562422,0.06604449423318254
-1.3769031191171388,-2.3862186895136497,7.078436532507698,6.1216519767575335,25.904803479492184,2.9632630162268105
-1.4007653060122753,-2.1271706547187277,7.139653052275274,6.151284606919802,26.074114936726897,5.621139257487337
-1.4220370125594626,-1.8664295053514586,7.201165898344472,6.207495999494675,26.324034260369842,8.022703178058826
-1.440701307612977,-1.6031891627477601,7.263240858339419,6.287723031275264,26.566474822710948,10.122627365409125
-1.4567331992404546,-1.3375244145206506,7.326118088652171,6.388949304929355,26.70145156144468,11.849155821885672
-1.470108443385661,-1.0705098989062038,7.3900075817014645,6.5074408631482115,26.617804819220083,13.10870118572167
-1.480813542374723,-0.804331850714003,7.455081990332947,6.638527875005428,26.198412755637687,13.795060524746273
-1.488856860881863,-0.5423477231576261,7.521467269083002,6.776478480252891,25.33100961826548,13.804746322503677
-1.4942803381134393,-0.2890376269749713,7.589232053885531,6.914525943477927,23.924666522802998,13.058466449079992
-1.497170714383189,-0.04979096174694134,7.65837731332031,7.045110607968727,21.929900852968828,11.526121081319753
-1.4976686240006583,0.16950804678274695,7.728828419399997,7.1603718187819245,19.357662348336483,9.24937129074526
-1.4959735435328307,0.3630846702661118,7.8004321375878165,7.252865531689377,16.290379106192436,6.35350585314281
-1.4923426968301696,0.5259884613280361,7.87296079290471,7.316400590220805,12.87865984785519,3.0412095119376534
-1.4870828122168893,0.654775059806588,7.946124798806918,7.346812685340182,9.321243238759372,-0.4339005831105344
-1.4805350616188235,0.7479874921941817,8.01959292566032,7.342473679509077,5.832250753563211,-3.8080948312765903
-1.4730551866968817,0.8063099997298138,8.09301766245541,7.304392731196311,2.605348237516773,-6.850413201149904
-1.4649920866995836,0.8323634821049815,8.166061589767372,7.235888599184811,-0.21439979818777313,-9.394582790920618
-1.4566684518785338,0.8302194841231038,8.23842047575922,7.141942771275605,-2.544082750391816,-11.352335271869356
-1.4483662570373028,0.8047786566191856,8.309839903471977,7.028419418556912,-4.361311761904973,-12.708403132035722
-1.440318470471111,0.7611655390001358,8.380124097657546,6.901335387236555,-5.691867996154779,-13.50337239056436
-1.4327068150811095,0.7042468590385881,8.449137451529912,6.766301663330911,-6.592895917224619,-13.812263933584378
-1.4256643464907237,0.6383178998663419,8.516800468163222,6.6281790239950675,-7.136839813745092,-13.724993477515001
-1.4192811674920602,0.566949501728891,8.583082258403172,6.490929089219917,-7.399011315198284,-13.331850412515788
-1.4136116724747714,0.4929593885769082,8.647991549295371,6.3576105850947595,-7.449549310843017,-12.71455519672927
-1.4086820785890022,0.418463895468478,8.711567655146318,6.230465033127467,-7.349223436488876,-11.941971498296168
-1.4044974396343175,0.34497166110358923,8.773872305477592,6.111045318144505,-7.1480213564282735,-11.069052432007483
-1.4010477230232816,0.2734914475393065,8.834982758659038,6.000354793824431,-6.885461990039229,-10.137695863984275
-1.3983128085478886,0.2046368276389142,8.894986306597282,5.8989778351845885,-6.5918058913202735,-9.178515381043452
-1.3962664402714995,0.13871876872571146,8.953976084949128,5.807192681374154,-6.289605738219674,-8.212885684307015
-1.3948792525842424,0.07582271134351472,9.01204801176287,5.725063824531084,-5.995268414065429,-7.254902024388315
-1.3941210254708072,0.015870027202860425,9.06929865000818,5.6525148042872,-5.720462172696821,-6.313084570702848
-1.3939623251987785,-0.04133459452410779,9.125823798051053,5.589383958580172,-5.473304234868634,-5.391774188636321
-1.3943756711440196,-0.09606763687279413,9.181717637636854,5.535466216693809,-5.259321533867289,-4.492228086930616
-1.3953363475127476,-0.14866085221146702,9.237072299803792,5.490543935824503,-5.0822055519431855,-3.613451988795716
-1.3968229560348622,-0.19948290773089888,9.291977739162038,5.454409415936546,-4.944393023196306,-2.752814351112406
-1.3988177851121713,-0.24892683796286194,9.346521833321402,5.426881272425422,-4.847505635495076,-1.9064871329963071
-1.4013070534918,-0.2974018943178127,9.400790646045657,5.407816401095459,-4.792678597210253,-1.069752341837573
-1.4042810724349781,-0.34532868028991526,9.454868810056611,5.397118877677083,-4.780802773114941,-0.2372072113696569
-1.4077343592378773,-0.39313670802106465,9.508839998833382,5.394746805563386,-4.812699403603097,0.5971049521715093
-1.4116657263180878,-0.44126370205709564,9.562787466889016,5.400717855085102,-4.889240729306554,1.4396156304540821
-1.4160783633386589,-0.4901561093501612,9.616794645439867,5.415114011389642,-5.011424155494784,2.297183531013426
-1.4209799244321606,-0.540270350905109,9.670945785553764,5.438085846699776,-5.1804015544352,3.177058585374072
-1.4263826279412117,-0.592074366449461,9.725326644020761,5.469856432553517,-5.397458251373439,4.086834543333458
-1.4323033716057063,-0.6460489489631954,9.780025208346297,5.510724777986852,-5.663927138516712,5.034360087161623
-1.4387638610953382,-0.7026882203483625,9.835132456126166,5.561068378858468,-5.981010680536596,6.0275652988892645
-1.4457907432988217,-0.7624983271537285,9.89074313991475,5.621344031847361,-6.349465074596033,7.074138382930475
-1.4534157265703591,-0.8259929778996888,9.946956580233223,5.692085415676666,-6.769073299811801,8.180952456454035
-1.461675656349356,-0.8936837108978068,10.00387743438999,5.773894940241206,-7.237792867402047,9.35308785529784
-1.470612493458334,-0.9660616395718273,10.061616383792401,5.867425818794184,-7.750404461013333,10.59221402786876
-1.4802731098540522,-1.0435656841819607,10.120290641980343,5.973347959072872,-8.296404680642734,11.893979293707433
-1.4907087666958718,-1.1265297309883882,10.180024121571073,6.0922877520099465,-8.856780970805344,13.243906244729663
-1.5019740640057557,-1.2150975406964415,10.240946999091172,6.224726814457243,-9.399200426342533,14.61113076482485
-1.5141250394127201,-1.3090895449598667,10.303194267235744,6.370838122105492,-9.871109412715722,15.939248537419177
-1.5272159348623189,-1.407800639087024,10.366902648456799,6.530230607479684,-10.190468434431972,17.133799659111926
-1.5412939412531892,-1.5097053234313436,10.432204954531596,6.701568604070803,-10.234753271820393,18.047096282556005
-1.5563909944875027,-1.6120528561495475,10.499220640572304,6.882039566896363,-9.831182820946514,18.464203792350975
-1.572511523048998,-1.7103646843590126,10.568041036241267,7.066681604819873,-8.755779897119007,18.10017465375499
-1.5896151698925882,-1.7979224833302025,10.638707852289466,7.2476833513574235,-6.755661738766214,16.627933379022668
-1.6075943947258902,-1.8654791007178646,10.71118468580304,7.41396268514765,-3.6133206838483707,13.762343880734582
-1.6262491857330688,-1.9016123075563482,10.785324312654517,7.551586123954996,0.7395157810668538,9.411052262874286
-1.6452653088086322,-1.8942171497456797,10.860840173894067,7.645696646583739,6.093540974994063,3.844808560623875
-1.664207480306089,-1.833281739995739,10.937297140359904,7.684144732189977,11.914608077708348,-2.2419503056394308
-1.6825402977060462,-1.7141356592186556,11.014138587681805,7.661725229133583,17.473774967831933,-7.90911600634134
-1.6996816542982327,-1.5393979095403363,11.09075583997314,7.58263406907017,22.122336224825762,-12.340226961273528
-1.7150756333936361,-1.3181745472920787,11.166582180663841,7.459231799457434,25.526478858971686,-15.149963245595373
-1.728257378866557,-1.062909758702362,11.241174498658415,7.307732167001481,27.705144482102735,-16.422202834199325
-1.7388864764535805,-0.7858583138813346,11.31425182032843,7.1435101386594875,28.90009676046567,-16.525642243735234
-1.746745059592394,-0.49685734627667794,11.385686921715024,6.978253716222135,29.414856485027777,-15.895431587637145
-1.7517136330551606,-0.20270878142640014,11.455469458877245,6.819299400345764,29.513193333819373,-14.900874862042564
-1.7537407208694247,0.09242315191179362,11.523662452880702,6.670290651725338,29.384820320964828,-13.805147107340648
-1.7528164893503067,0.3862713551214419,11.590365359397955,6.532239180651931,29.14972532476281,-12.775791546876135
-1.7489537757990923,0.6777686083690699,11.655687751204475,6.40448126518317,28.875508551847545,-11.91077263859118
-1.7421760897154015,0.9665236938875454,11.719732563856306,6.285373538797258,28.594745826976865,-11.262944205650225
-1.732510852776526,1.2524711521573142,11.78258629924428,6.172744096740756,28.3182679233163,-10.857952600273022
-1.7199861412549529,1.5356538313904773,11.844313740211687,6.064164570738026,28.0442101606388,-10.705816015991667
-1.7046296029410481,1.8160959329968653,11.904955385919067,5.957106410578109,27.763855329042478,-10.807831405065919
-1.6864686436110794,2.09373448628729,11.964526450024847,5.84902809652745,27.465340340443,-11.160406233676953
-1.6655312987482065,2.36838788969172,12.023016730990122,5.73742403419068,27.13603524661215,-11.756994776566012
-1.6418474198512893,2.6397482421578418,12.08039097133203,5.61985408642502,26.76413046323675,-12.588923886944885
-1.6154499374297109,2.9073895467902093,12.136589512196279,5.493964847555572,26.339760905575588,-13.645608843050645
-1.5863760419618087,3.1707871558459653,12.191529160671834,5.357508759125065,25.85585559787909,-14.914476493658189
-1.5546681704033491,3.429345711824756,12.245104248263084,5.208363994188483,25.308811613048356,-16.380800708904797
-1.5203747132851015,3.6824338279552395,12.297187888204968,5.044555987099435,24.699035926395872,-18.027587453485577
-1.4835503750055492,3.9294241872191984,12.347633448075962,4.864280112564579,24.031366477691524,-19.835604634617802
-1.4442561331333572,4.169737851996113,12.396276249201607,4.665924066218401,23.3153671169974,-21.78362289844577
-1.4025587546133962,4.402891523166088,12.44293548986379,4.448087837233944,22.56548565455061,-23.84891021554785
-1.3585298393817353,4.628546379711594,12.487416368236131,4.209598735078465,21.801067017729412,-26.008001122640014
-1.3122443755846194,4.846557049888888,12.529512355586915,3.9495187238520653,21.04622227669512,-28.237738742206012
-1.2637788050857304,5.05701927265584,12.569007542825435,3.667141336430005,20.329566764608547,-30.51656338079099
-1.2132086123591719,5.260314940301925,12.605678956189735,3.3619757026220953,19.683853866440202,-32.8259953319828
-1.1606054629561526,5.457153478966328,12.639298713215956,3.0337157493022673,19.145541330479002,-35.152230661312935
-1.1060339281664893,5.648608892271118,12.669635870708978,2.682193442689138,18.754328227600606,-37.487734130425935
-1.049547839243778,5.836152174547124,12.69645780513587,2.307316101384879,18.552683424600982,-39.83266460964261
-0.9911863174983068,6.021679008793133,12.71953096614972,1.9089894552884528,18.585334356951893,-42.195886091528436
-0.9309695274103754,6.207532352362652,12.738620860702603,1.4870305943731683,18.898568441913703,-44.59516156908713
-0.8688942038867489,6.3965180367817895,12.753491166646334,1.041078978682297,19.53896299383148,-47.05581768361281
-0.804929023518931,6.591907666720104,12.763901956433157,0.5705208018461688,20.55069660534133,-49.6065512290227
-0.7390099468517299,6.797414632773517,12.76960716445162,0.07445528955594183,21.969705145138622,-52.26983718645546
-0.6710358005239948,7.017111684224903,12.770351717347179,-0.44824308230861276,23.811270417779806,-55.04208695093458
-0.6008646836817457,7.255224388402701,12.765869286524092,-0.9986639518179586,26.044610434495663,-57.854523534229656
-0.5283124397977187,7.515670492747658,12.755882647005912,-1.5772091871602552,28.543129815271257,-60.49897302409197
-0.4531557348702421,7.80110179090037,12.74011055513431,-2.182198917401175,30.993023407228435,-62.49474470634005
-0.37514471696123836,8.111032024972655,12.718288565960298,-2.8071463644645758,32.74342253371916,-62.874408872325766
-0.2940343967115118,8.438466250309846,12.690217102315653,-3.4358904531878336,32.617096843977656,-59.9188643913165
-0.20964973420841337,8.764637218749622,12.655858197783775,-4.035079097100999,28.842256774149096,-51.07541959997888
-0.12200336202091716,9.053059786491113,12.615507406812766,-4.545833293100788,19.565487047630526,-33.71892341457594
-0.03147276415600603,9.248714656967419,12.570049073881759,-4.883022527246547,4.4895304464019,-7.528977517029629
0.06101438241366816,9.293609961431438,12.521218848609292,-4.958312302416844,-13.192971326300581,22.713507650403233
0.15395048202798253,9.161680248168432,12.471635725585124,-4.731177225912812,-27.75568168321161,48.48810393803432
0.24556728450966686,8.884123431336317,12.424323953325995,-4.246296186532469,-35.423668114004364,64.0162020136995
0.33440851882303,8.529886750196273,12.381860991460671,-3.606134166395474,-36.740746069798575,69.78616230141047
0.4197073863249927,8.162479289498286,12.345799649796717,-2.908272543381369,-34.40099103546632,69.53493782162886
0.5013321792199756,7.818469379143623,12.316716924362904,-2.2129231651650803,-30.71955892391462,66.5893797250552
0.5795168730114119,7.511273789904476,12.294587692711254,-1.5470293679145284,-26.973110121248272,62.841274992213584
0.6546296109104566,7.241542688691993,12.279117399032108,-0.9186166179923926,-23.698403176312063,59.12395976199358
