th1 (rad),w1 (rad/s),th2 (rad),w2 (rad/s),a1 (rad/s^2),a2 (rad/s^2)
3.4865645933012424,1.6402412790764382,6.147905105455353,0.8369598991968591,5.7864942874653,5.210654727058119
3.502967006092007,1.6981062219510912,6.156274704447322,0.8890664464674403,5.90245379305563,5.100358664698957
3.5199480683115176,1.7571307598816475,6.165165368911996,0.9400700331144298,6.017801579961464,4.975053134647316
3.537519375910334,1.817308775681262,6.1745660692431406,0.9898205644609029,6.132065614154846,4.833835045843305
3.5556924636671465,1.8786294318228105,6.184464274887749,1.038158914919336,6.24471975908548,4.675738658392414
3.5744787579853745,1.9410766294136652,6.194845864036942,1.0849163015032601,6.355183878216587,4.499737190636723
3.5938895242795112,2.0046284681958313,6.205695027051975,1.1299136734096273,6.46282463866736,4.304745517287396
3.6139358089614695,2.069256714582505,6.2169941637860715,1.1729611285825012,6.566957187460537,4.089624178378707
3.6346283761072944,2.13492628645711,6.228723775071897,1.2138573703662883,6.666847899670873,3.8531849456063028
3.6559776389718657,2.201594765453819,6.2408623487755595,1.2523892198223514,6.76171842642905,3.5941982169729307
3.6779935866264037,2.2692119497181094,6.253386240973783,1.2883312019920807,6.850751299108914,3.311402530164001
3.700685706123585,2.3377194627091984,6.266269552993704,1.3214452272937207,6.933097372488363,3.003516496530414
3.724062900750677,2.407050436434082,6.2794840052666405,1.3514803922590248,7.007885412031536,2.669253456918985
3.748133405115018,2.4771292905543976,6.292998809189231,1.3781729268282148,7.074234145855186,2.3073391428832304
3.7729046980205623,2.5478716320129493,6.306780538457513,1.4012463182570472,7.131267106890181,1.9165325861187539
3.798383414340692,2.619184303081851,6.320793001640084,1.4204116441182346,7.178130581027093,1.495650448556439
3.82457525737151,2.690965608892122,6.334997118081266,1.435368148603799,7.21401494785939,1.0435948380897884
3.8514849134604314,2.763105758370716,6.349350799567304,1.4458040969846968,7.2381796468606145,0.5593845229479663
3.8791159710441385,2.835487554839322,6.363808840537152,1.4513979422141765,7.2499819183238206,0.04218925435146465
3.9074708465925316,2.9079873740225604,6.378322819959293,1.4518198347576912,7.2489093506233475,-0.5086333530607321
3.9365507203327574,2.980476467528794,6.3928410183068705,1.4467335012270839,7.234616110215513,-1.0934992529990404
3.9663554850080454,3.052822628630949,6.4073083533191415,1.4357985086970935,7.206962537627588,-1.7125589583607854
3.996883711294355,3.124892254007225,6.421666338406112,1.4186729191134857,7.166057564567396,-2.3656597643900024
4.028132633834427,3.196552829652899,6.435853067597247,1.3950163214695857,7.11230315239408,-3.0523113374277417
4.060098162130956,3.2676758611768397,6.449803230811942,1.3644932080953083,7.046439685136679,-3.7716572710906053
4.092774920742724,3.3381402580282065,6.463448162892895,1.3267766353844022,6.969590993137352,-4.522455653843952
4.1261563233230065,3.40783616795958,6.47671592924674,1.2815520788459627,6.883307466290736,-5.303072063318411
4.160234685002602,3.4766692426224877,6.489531450035199,1.2285213582127785,6.789605576264972,-6.111488652141076
4.195001377428827,3.5445652983851375,6.501816663617326,1.1674064716913677,6.691002108190886,-6.9453330640788495
4.2304470304126784,3.611475319467046,6.51349072833424,1.0979531410505792,6.590541549573213,-7.801930769450207
4.266561783607349,3.677380734962778,6.524470259744746,1.019933833356077,6.4918154405293205,-8.678384001071791
4.303335590956977,3.742298889368071,6.534669598078306,0.9331499933453591,6.398973089198556,-9.57167979805824
4.340758579850658,3.8062886202600565,6.544001098011759,0.8374331953647767,6.316723918563584,-10.478828752956103
4.3788214660532585,3.8694558594456923,6.552375429965407,0.7326449078352156,6.2503328347110445,-11.397034982387115
4.417516024647716,3.9319591877928026,6.559701879043759,0.6186745580113445,6.205611366891999,-12.323896728040925
4.456835616525644,3.994015301461723,6.565888624623873,0.49543559073093524,6.188908879304541,-13.257636018373871
4.496775769540261,4.055904390254768,6.570842980531182,0.3628592305471965,6.207109829951611,-14.197355196531078
4.537334813442809,4.1179754885542845,6.5744715728366545,0.2208856785818857,6.267644785913739,-15.143318083998585
4.578514568328352,4.180651936413422,6.576680429622473,0.06945249774189985,6.378524642300745,-16.097254338040955
4.620321087692486,4.244437182836429,6.577374954599892,-0.09152004563850971,6.548409210411484,-17.0626873810825
4.66276545952085,4.309921274940544,6.5764597541435075,-0.2621469194493347,6.786723061691364,-18.045289282178764
4.7058646722702555,4.377788505557458,6.573838284949014,-0.44259981227112233,7.103833310554006,-19.053270219380238
4.7496425573258305,4.448826838662998,6.569412286826303,-0.6331325144649247,7.511305995164276,-20.09781558816231
4.79413082571246,4.523939898614641,6.563080961681654,-0.8341106703465477,8.0222599446678,-21.19359018986634
4.839370224698607,4.604162498061319,6.554739854978188,-1.0460465722452112,8.651839402971463,-22.35933561812873
4.88541184967922,4.6906808920910334,6.5442793892557365,-1.2696399284264985,9.417828627220658,-23.61859259851108
4.93231865860013,4.78485917836324,6.531582989971471,-1.5058258544116092,10.341431470893134,-25.000581656877724
4.980167250383762,4.888273493072171,6.5165247314273556,-1.7558316709803865,11.448232357351511,-26.541266618458923
5.029049985314484,5.002755816645687,6.498966414717552,-2.0212443371649758,12.769332344464507,-28.28459196080198
5.079077543480941,5.130449140090332,6.478753971345903,-2.3040902567729957,14.342593646352535,-30.283796271399027
5.130382034881844,5.273875076553857,6.455713068778173,-2.606928219486986,16.213780877520183,-32.602493332339975
5.183120785647382,5.436012885329059,6.429643786583303,-2.9329531528103856,18.437054753398783,-35.31473499505349
5.237480914500673,5.620383432863046,6.400314255055199,-3.2861005027609207,21.073531494538496,-38.50221306691792
5.293684748829303,5.831118747808431,6.36745325002759,-3.6711226334301,24.184992173478772,-42.24445167261788
5.351995936307388,6.072968669543219,6.330742023693289,-4.093567150156279,27.81632209704268,-46.59290053605368
5.41272562300282,6.351131890513646,6.289806352191726,-4.559496155516816,31.952990725006757,-51.50961677998078
5.476236941907956,6.670661797763713,6.244211390636558,-5.074592323316623,36.42599367274268,-56.73173741631592
5.542943559885593,7.03492173449114,6.193465467403391,-5.641909697479782,40.71546032807533,-61.493286911574046
5.613292777230504,7.442076337771893,6.137046370428593,-6.256842566595523,43.59506163666712,-64.02366193075369
5.6877135406082235,7.878026954138565,6.074477944762638,-6.89707918590306,42.6664288714852,-60.894224841199964
5.766493810149609,8.304691242853417,6.005507152903607,-7.506021434315059,34.3491188419882,-47.01397800159502
5.849540722578143,8.6481824312733,5.930446938560456,-7.976161214331009,15.923281390515292,-18.530061719348723
5.936022546890876,8.807415245178452,5.850685326417146,-8.161461831524496,-9.61916451765868,20.303375476907878
6.02409669934266,8.711223600001865,5.769070708101901,-7.958428076755418,-32.101397945836716,55.0260787132649
6.111208935342679,8.390209620543498,5.689486427334347,-7.408167289622769,-43.16983594213151,73.68516618726107
6.195111031548114,7.958511261122183,5.615404754438119,-6.671315627750158,-43.659130301274494,77.28998030682256
6.274696144159336,7.5219199581094385,5.548691598160618,-5.8984158246819325,-38.82240187173459,73.16299066958409
6.34991534374043,7.1336959393920925,5.489707439913799,-5.1667859179860915,-32.554874542612794,66.79351971578605
6.421252303134351,6.808147193965964,5.438039580733938,-4.498850720828231,-26.580024093249154,60.64276441822567
6.489333775074011,6.542346953033473,5.393051073525656,-3.892423076645974,-21.418004602071257,55.47543638996244
6.554757244604346,6.32816690701276,5.354126842759196,-3.33766871274635,-17.11455967502514,51.37518659463801
6.618038913674473,6.157021310262509,5.320750155631732,-2.82391684679997,-13.570232501094539,48.207013717626815
6.679609126777098,6.021318985251564,5.292510987163732,-2.3418467096237015,-10.662190062316037,45.79057265022644
6.739822316629614,5.914697084628403,5.269092520067495,-1.883940983121437,-8.282481888942543,43.95626850004426
6.798969287475899,5.831872265738978,5.250253110236281,-1.4443782981209945,-6.346201223800057,42.55884501751472
6.8572880101332885,5.768410253500978,5.235809327255072,-1.0187898479458473,-4.789870822403699,41.47709490386385
6.914972112668298,5.720511545276941,5.2256214287756135,-0.6040188989072087,-3.5672857651669694,40.610009438139286
6.972177228121068,5.6848386876252714,5.2195812397865415,-0.19791880452581584,-2.645202982618506,39.87284000926381
7.0290256149973205,5.6583866577990864,5.2176020517412836,0.20080959556682226,-1.9995518958813874,39.194060539271604
7.085609481575311,5.638391138840273,5.219610147696952,0.5927502009595382,-1.6122752498561035,38.513346504393105
7.141993392963713,5.6222683863417116,5.225537649706547,0.9778836660034693,-1.4687553365706494,37.78039740097473
7.198216076827131,5.607580832976005,5.235316486366582,1.3556876400132167,-1.5557641887160565,36.954349713240944
7.254291885156891,5.5920231910888445,5.248873362766714,1.7252311371456261,-1.859895061064239,36.003523653840524
7.310212117067779,5.573424240478202,5.266125674138171,2.0852663736840316,-2.366449406620874,34.905275074776874
7.365946359472561,5.549759746411993,5.286978337875011,2.4343191244318003,-3.058756894242396,33.64577042920961
7.421443956936681,5.51917217746957,5.311321529119329,2.7707768287238963,-3.91789531043716,32.219561808774536
7.476635678711377,5.479993224365198,5.339029297406568,3.0929724468116415,-4.922757479387593,30.628904728228836
7.531435610955029,5.430765649571322,5.369959021874684,3.39926149409393,-6.050391102611036,28.8828250209186
7.585743267450742,5.370261738545212,5.4039516368156235,3.6880897443031158,-7.276522112080588,26.995993538695945
7.639445884836195,5.297496517424406,5.4408325342586545,3.9580496796900753,-8.576168071432088,24.98750055480728
7.692420850010439,5.211734836710085,5.480413031055555,4.207924685238148,-9.924257208643347,22.879632059129033
7.74453819837754,5.1124922646236515,5.522492277907936,4.436721005829439,-11.296188983357206,20.69673875432468
7.795663121023776,4.999530374790079,5.566859487966231,4.643688393372686,-12.668299015583809,18.464261222723763
7.845658424771677,4.872847384634241,5.613296371899958,4.828331005599924,-14.018218803307688,16.207939792325334
7.894386898618019,4.732665196601165,5.661579681955957,4.990410403523177,-15.325143437869674,13.953203751884509
7.941713550584031,4.579413762222468,5.711483785991189,5.129942441042022,-16.57003471142676,11.724708688995777
7.9875076882062555,4.413713415108201,5.762783210401609,5.24718952793198,-17.735791164777716,9.545976838199946
8.031644822357338,4.236355503460423,5.8152551056809285,5.342649296313979,-18.807411603450785,7.439094173701659
8.074008377391943,4.048281387425916,5.868681598644068,5.417040238050996,-19.77216702779182,5.424427541955634
8.114491191266202,3.8505597171479975,5.922852001024578,5.471284513470552,-20.61978135757193,3.520341545153464
8.152996788437681,3.6443619035722783,5.977564846159284,5.506487928922087,-21.34260749255741,1.7429135475589794
8.189440407473404,3.430935828646704,6.032629725448505,5.5239170643976765,-21.935775243487257,0.10566173486526773
8.223749765759871,3.2115780762118313,6.087868896092481,5.524973681746329,-22.397283463117326,-1.3806876776043646
8.25586554652199,2.987605241580658,6.143118632909944,5.511166804970285,-22.72801087255434,-2.7083639641728188
8.285741598937797,2.7603251328551144,6.198230300959647,5.484083165328557,-22.931627810108285,-3.8726191895248174
8.313344850266349,2.5310088547540315,6.2530711326129325,5.445356973433309,-23.01440255895575,-4.871681330960503
8.338654938813889,2.3008648291644738,6.307524702347266,5.396640160123704,-22.984908605725433,-5.706587681726122
8.361663587105534,2.0710157431072194,6.361491103948502,5.339574283306443,-22.853650728574305,-6.380906124273994
8.382373744536606,1.8424792358214763,6.414886846781567,5.275765222063703,-22.63263631144296,-6.9003632443561065
8.40079853689482,1.6161528727070467,6.467644499002204,5.206761589620142,-22.334922665765866,-7.272406158043568
8.416960065621891,1.392803646049388,6.519712114898406,5.134037528039706,-21.974171259486656,-7.5057285501500735
8.430888102082385,1.1730619334545214,6.571052490178802,5.0589802425382056,-21.564236228198077,-7.609790888128699
8.44261872141693,0.9574195711725406,6.621642292604184,4.982882333656918,-21.118808493315814,-7.594360882804867
8.452192917128654,0.7462314862393824,6.671471115940753,4.906938724828869,-20.651129530780512,-7.469094196419108
8.459655231991048,0.5397201909315773,6.720540503189042,4.832247782864678,-20.173781509494116,-7.243168400938953
8.465052433900365,0.33798237583663615,6.768862981017689,4.759816098855288,-19.698554049774117,-6.924976355848615
8.468432257658732,0.14099683533889498,6.816461142006242,4.690566335296802,-19.2363827670078,-6.521879305687634
8.469842226012121,-0.051366992331183026,6.86336680535921,4.625347542239926,-18.79735123191974,-6.040015578508139
8.46932855608881,-0.23934050465038045,6.909620280781609,4.564947386454845,-18.390745865829697,-5.484158017454938
8.466935151042305,-0.4232479633086774,6.9552697546461575,4.510105806280296,-18.025152248261257,-4.857612254307156
8.462702671409218,-0.60349948579129,7.000370812708961,4.461529683737225,-17.708580844627875,-4.162148651636079
8.456667676551305,-0.7805852942375687,7.044986109546333,4.419908197220864,-17.448609640793897,-3.3979633140962253
8.44886182360893,-0.9550713906455077,7.089185191518541,4.385928564079902,-17.252529831641134,-2.563668371667279
8.439311109702475,-1.1275966889619191,7.13304447715934,4.360291880363229,-17.12747754968166,-1.6563195971310865
8.428035142812856,-1.2988714644587358,7.176647395962973,4.343728684391918,-17.080528221222853,-0.6715018998896785
8.415046428168269,-1.4696767466709644,7.220084682806892,4.337013665393021,-17.11871837759306,0.39648695103818715
8.40034966070156,-1.640863930446895,7.263454819460822,4.340978534903403,-17.24893934845803,1.5542824097288275
8.38394102139709,-1.8133533239314754,7.3068646048098564,4.356521359000691,-17.477613169438865,2.80880657796444
8.365807488157776,-1.988129455625864,7.3504298183998635,4.3846094247803356,-17.810005698778554,4.166126419615786
8.345926193601517,-2.1662295126136497,7.394275912647667,4.426270688976493,-18.248944887846715,5.629489599842598
8.324263898475381,-2.348718961492117,7.438538619537432,4.482565584974919,-18.79258116014697,7.19602407139345
8.300776708860461,-2.5366447730935864,7.483364275387181,4.554525825688854,-19.430644294313623,8.851327351990308
8.275410261129526,-2.7309512160367224,7.52890953364407,4.643039099208758,-20.138434469340154,10.560861228223622
8.24810074896916,-2.932335560730124,7.5753399246361575,4.748647711490994,-20.86763031621572,12.25684103214503
8.218777393361858,-3.141011863892281,7.622826401751068,4.871216121812444,-21.53319923733181,13.819579213994798
8.187367274722936,-3.356343856265599,7.671538562969192,5.009411913952392,-21.996967328116522,15.054011914907028
8.15380383616028,-3.5763135295467645,7.721632682108716,5.1599520331014626,-22.052109712351715,15.667324271239512
8.118040700864812,-3.7968346266702815,7.77323220243973,5.316625275813857,-21.42065397197515,15.264600894444806
8.080072354598109,-4.011041166390033,7.826398455197869,5.469271284758305,-19.787546140807738,13.395601493195489
8.039961942934209,-4.208916627798111,7.881091168045452,5.60322729969026,-16.900243929606667,9.693580869613605
7.997872776656227,-4.377919067094178,7.937123441042354,5.700163108386396,-12.736480526819163,4.110454309828688
7.9540935859852855,-4.505283872362369,7.994125072126218,5.741267651484683,-7.66259714033198,-2.859787681615757
7.9090407472616615,-4.581909843765689,8.051537748641065,5.712669774668525,-2.42358805808514,-10.191811812116704
7.8632216488240045,-4.606145724346541,8.10866444638775,5.610751656547357,2.12516085908297,-16.70068221405781
7.817160191580539,-4.584894115755711,8.164771962953225,5.443744834406779,5.388156050994939,-21.55734966921055
7.771311250422983,-4.531012555245762,8.219209411297292,5.228171337714674,7.215784317483415,-24.548630553576466
7.726001124870525,-4.458854712070928,8.271491124674439,4.982685032178909,7.814302113545399,-25.95363235817227
7.681412577749815,-4.380711690935474,8.321317974996228,4.723148708597186,7.535170182141067,-26.2526174588455
7.637605460840461,-4.305359989114064,8.3685494620822,4.460622534008731,6.7129927664479325,-25.903288364932795
7.59455186094932,-4.238230061449585,8.413155687422288,4.201589650359403,5.598615045265015,-25.248755698696908
7.552169560334824,-4.1822439109969345,8.455171583925882,3.949102093372434,4.355459968330275,-24.512719519412162
7.5103471212248545,-4.138689311313632,8.494662604859606,3.7039748981783127,3.0798059149326598,-23.827441641057092
7.468960228111718,-4.107891252164306,8.53170235384139,3.4657004817677417,1.8233114459834856,-23.264603983598814
7.427881315590075,-4.089658137704471,8.566359358659067,3.2330544419317535,0.6104571660345272,-22.85902763222181
7.386984734213031,-4.083553566044126,8.598689903078384,3.0044641656095354,-0.5497640553854133,-22.62439479861743
7.34614919855259,-4.08905120659798,8.62873454473448,2.7782202176233612,-1.6565674006035036,-22.562852997284637
7.30525868648661,-4.105616880604015,8.656516746910713,2.552591687650515,-2.7130224027585492,-22.670554406868753
7.26420251768057,-4.1327471046316,8.682042663787218,2.3258861435818274,-3.7235033758478906,-22.94067160014179
7.222875046634254,-4.169982138390079,8.705301525223037,2.0964794275804097,-4.692204781932513,-23.364900312237303
7.181175225250353,-4.216904186209404,8.72626631949884,1.8628304244580367,-5.6222662912296295,-23.934071013749428
7.139006183388259,-4.2731268491217005,8.744894623743422,1.6234897143205425,-6.51523867039875,-24.63824043300331
7.096274914897043,-4.338279235825688,8.761129520886627,1.3771073099905093,-7.370737806799527,-25.466483417786876
7.052892122538786,-4.411986613893683,8.774900593986532,1.1224424758126406,-8.186205455725519,-26.406519520535028
7.008772256399849,-4.493848668450938,8.786125018744658,0.8583772806072902,-8.956739423837055,-27.44426271012466
6.96383376971534,-4.583416062689309,8.79470879155073,0.5839346535060437,-9.674983918087337,-28.563360707387368
6.917999609088446,-4.680165901870182,8.80054813808579,0.29830104643217,-10.3310889719901,-29.744782414148624
6.871197950069744,-4.783476791590083,8.803531148550112,0.0008532222906837417,-10.912759318963264,-30.966510848990985
6.823363182153844,-4.892604384779715,8.803539680773019,-0.3088118861992261,-11.405418878642207,-32.203399673328335
6.774437138306046,-5.0066585735661375,8.800451561911027,-0.6308458829325094,-11.79251698896063,-33.42724934257761
6.724370552570385,-5.1245837434557435,8.794143103081701,-0.9651183763582856,-12.055995958881011,-34.60715028065305
6.673124715135828,-5.245143703044554,8.78449191931812,-1.3111898791648162,-12.176925925208817,-35.710122297093434
6.620673278105383,-5.366912962296642,8.771380020526472,-1.6682911021357505,-12.13629279443032,-36.70205046435501
6.567004148482416,-5.488275890240945,8.754697109505114,-2.0353116067793007,-11.915900251276309,-37.54887917398813
6.512121389580007,-5.607434892753708,8.73434399343732,-2.410800398519182,-11.499321370972718,-38.21798272483977
6.45604704065247,-5.722428106463435,8.710235989452128,-2.7929802257675798,-10.87281492156464,-38.67959046226861
6.398822759587835,-5.8311562556790815,8.682306187194452,-3.179776130390266,-10.02611228836596,-38.90811716692058
6.340511197031044,-5.931417378562741,8.65050842589055,-3.568857302059472,-8.952988334245045,-38.883244756515424
6.281197023245417,-6.020947261905191,8.614819852869955,-3.957689749624626,-7.651555623813263,-38.59062566128529
