th1 (rad),w1 (rad/s),th2 (rad),w2 (rad/s)
0.15181135897529754,2.2695924869270505,5.836319115616487,-0.8994666651559667
0.17450728384456804,2.1988839522638193,5.827324448964927,-0.7696770020089
0.19649612336720623,2.128086069858712,5.819627678944839,-0.6408425888959279
0.21777698406579335,2.0573464404349617,5.8132192530558795,-0.5133736631302788
0.23835044847014297,1.9867294055467077,5.808085516424577,-0.38756055331682354
0.25821774252561003,1.9162366369655754,5.804209910891409,-0.26360090207873754
0.27738010889526576,1.8458238039572927,5.801573901870621,-0.141621514373774
0.2958383469348387,1.7754137700478745,5.800157686726884,-0.021695433181082982
0.3135924846353174,1.7049068643641117,5.799940732395073,0.09614501173064648
0.33064155327895856,1.634188763947213,5.800902182512379,0.2118984380861031
0.3469834409184307,1.5631364660377471,5.80302116689324,0.3255872571623665
0.36261480557880815,1.4916227546507277,5.806277039464864,0.4372525593558031
0.37753103312531544,1.4195194907020228,5.810649565058422,0.5469505684001709
0.39172622803233564,1.3466999875352368,5.816119070742424,0.6547502856405525
0.405193227907688,1.2730406769072982,5.82266657359883,0.7607320244362912
0.417923634676761,1.1984222246492569,5.830273893843192,0.8649865991505458
0.4299078569232536,1.1227302194253268,5.838923759834698,0.9676149843516488
0.4411351591175069,1.0458555309299788,5.848599909678214,1.0687282995108294
0.4515937144268067,0.9676944141303395,5.859287192673322,1.168448004392733
0.46127065856811006,0.8881484225996544,5.870971672717249,1.266906212023989
0.4701521427941066,0.8071241856850505,5.883640734837489,1.3642460407521129
0.4782233846509571,0.7245331005975393,5.89728319524501,1.4606219352215346
0.4854687156569325,0.6402909912049273,5.911889414597225,1.5561998884138637
0.4918716255689818,0.5543177903725569,5.927451413481364,1.6511574930974615
0.49741480347270733,0.4665373124971396,5.943962988412339,1.7456837405052752
0.5020801765976788,0.37687719815113463,5.961419825817392,1.8399784656899785
0.5058489485791902,0.2852691346472471,5.979819610474292,1.934251311092843
0.5087016399256626,0.19164948644907004,5.99916212358522,2.028720040061246
0.5106181347901534,0.09596050978342394,6.019449323985833,2.123607977316317
0.5115777398879876,-0.0018476209015045875,6.040685403758996,2.2191402799890896
0.5115592636789725,-0.10181367799439567,6.0628768065588865,2.315538646613621
0.5105411268990285,-0.20396075323524,6.086032193025023,2.4130139482701707
0.5085015193666761,-0.3082896461008551,6.110162332507724,2.511756113119791
0.5054186229056675,-0.4147696500514999,6.135279893638923,2.611920413896181
0.5012709264051525,-0.5233259807385886,6.161399097777885,2.7136091069993404
0.4960376665977666,-0.6338229603802588,6.188535188847879,2.8168471776279174
0.489699436993964,-0.74604199149474,6.216703660624158,2.9215508134303434
0.4822390170790166,-0.8596533973678422,6.245919168758461,3.0274872642440824
0.4736424831053382,-0.974181506294847,6.276194041400902,3.1342251278296707
0.4639006680423897,-1.0889631149728405,6.307536292679198,3.24107511392045
0.4530110368926613,-1.2031009660176666,6.339947043818403,3.3470233772859825
0.44098002723248464,-1.31541644153467,6.373417277591263,3.450663035939162
0.4278258628171379,-1.4244095462197766,6.4079239079506545,3.5501348476841987
0.4135817673549401,-1.528239277715663,6.4434252564274965,3.6430950188638094
0.39829937457778347,-1.6247426133562264,6.479856206616135,3.7267353393522997
0.3820519484442212,-1.7115130709337179,6.517123560009658,3.7978848154511695
0.364936817734884,-1.7860560388852456,6.55510240816417,3.8532170337088925
0.34707625734603154,-1.8460234663476467,6.593634578501259,3.8895675551483606
0.3286160226825551,-1.8895039608472914,6.632530254052742,3.9043291106610925
0.30972098307408213,-1.915312650432759,6.671573545159354,3.895848564618893
0.29056785656975453,-1.9232043006141015,6.710532030805543,3.8637206123087036
0.2713358135636135,-1.9139409083146277,6.74916923692863,3.8088835916533883
0.25219640448046726,-1.8891862472147776,6.787258072845163,3.733479451667682
0.2333045420083195,-1.8512574061264797,6.82459286736184,3.6405190370897746
0.21479196794705468,-1.8028069838840872,6.860998057732738,3.5334536315429155
0.19676389810821382,-1.7465182868705624,6.896332594048167,3.4157652933775178
0.1792987152395082,-1.6848720955356986,6.930490246981942,3.2906555438638865
0.1624499942841512,-1.620006838697478,6.963396802420581,3.160861467243976
0.14624992589717642,-1.5536637694762738,6.9950054170930205,3.028586983706344
0.13071328820241368,-1.4871934747695605,7.025291286930084,2.8955164887135814
0.11584135345471808,-1.42159799163932,7.05424645181722,2.7628755894414976
0.10162537353832488,-1.357587982730525,7.081875207711635,2.6315110135409574
0.08804949371101962,-1.2956415597208009,7.108190317847044,2.501971655644824
0.07509307811381162,-1.2360575212546991,7.1332100344034925,2.37458119701013
0.06273250290126463,-1.1790000579127062,7.156955846373594,2.2494985539309056
0.05094250232213757,-1.1245345049619742,7.179450831912903,2.126765802323863
0.039697157272517825,-1.07265498422045,7.200718489936142,2.0063448837356805
0.028970607430313322,-1.023305254614444,7.220781938773499,1.8881449967735362
0.01873755488416888,-0.9763941458995671,7.239663388741234,1.7720426115366446
0.00897361342517321,-0.9318068088616746,7.257383814856601,1.657895822786975
-0.0003444546634435372,-0.8894128064489548,7.27396277308447,1.5455544532483934
-0.009238582727933086,-0.8490718584219497,7.2894183176169545,1.4348670173354037
-0.017729301312152584,-0.8106378651607054,7.303766987790309,1.32568539365284
-0.02583567996375964,-0.7739616827307697,7.317023841726837,1.2178678416386868
-0.033575296791067334,-0.7388930004498181,7.329202520143224,1.1112808314974785
-0.040964226795565516,-0.7052815795856303,7.340315328458199,1.0058000301926513
-0.04801704259142182,-0.6729780420974368,7.350373328760125,0.9013106918586375
-0.05474682301239619,-0.6418343464667025,7.3593864356787115,0.7977076313204238
-0.061165166477063215,-0.6117040493848631,7.367363511991916,0.6948949084277816
-0.06728220697091185,-0.5824424239636905,7.374312461076194,0.5927853138387514
-0.07310663121054875,-0.553906484573017,7.380240314214581,0.49129972005310246
-0.07864569605627893,-0.5259549533972698,7.385153311415112,0.3903663421453665
-0.08390524559025163,-0.49844819285067715,7.389056974836566,0.28991993873665256
-0.0888897275187584,-0.47124812000386085,7.391956174223933,0.18990097377572546
-0.09360220871879701,-0.4442181133468327,7.39385518396169,0.0902547525792087
-0.09804438985226534,-0.4172229179573884,7.3947577314874815,-0.009069459486021489
-0.10221661903183922,-0.3901285520320482,7.3946670368926215,-0.10811933088306941
-0.1061179045521597,-0.3628022154595035,7.393585843583791,-0.2069403680764338
-0.10974592670675475,-0.3351121994513919,7.391516439903027,-0.3055768294805908
-0.11309704870126866,-0.30692779503400236,7.388460671608221,-0.40407264987498626
-0.11616632665160868,-0.2781191973375343,7.384419945109471,-0.5024723767722822
-0.11894751862498402,-0.2485574020245268,7.379395221341748,-0.6008221207189124
-0.12143309264522929,-0.21811408983380132,7.373387000134559,-0.699170521755845
-0.1236142335435673,-0.18666149506433566,7.366395294917001,-0.7975697343025078
-0.12548084849421065,-0.15407225389265228,7.358419597573976,-0.8960764325474055
-0.12702157103313716,-0.12021922874033622,7.349458833248502,-0.9947528380027504
-0.12822376332054053,-0.08497530554644403,7.339511304868474,-1.093667770138538
-0.12907351637600498,-0.0482131618490891,7.328574627167089,-1.1928977198392405
-0.12955564799449587,-0.009805005183094392,7.316645649968696,-1.292527943648477
-0.12965369804632682,0.030377716341073856,7.303720370532211,-1.3926535741263617
-0.12934992088291608,0.07246462601178383,7.289793834790948,-1.4933807377698793
-0.12862527462279824,0.11658674293550782,7.274860027413249,-1.5948276663096155
-0.12745940719344317,0.1628768019437274,7.258911750750153,-1.6971257790463379
-0.1258306391740059,0.21146954239075513,7.24194049295969,-1.8004207021685503
-0.12371594375009834,0.2625019257177047,7.223936285938004,-1.9048731742047749
-0.12109092449292129,0.3161132227113117,7.204887554195956,-2.0106597628167364
-0.11792979226580817,0.37244488489496186,7.1847809565677885,-2.1179732841020917
-0.11420534341685855,0.4316400775130994,7.163601223726768,-2.22702276737437
-0.10988894264172755,0.49384270007703107,7.141330996053024,-2.338032740406
-0.10495051564095724,0.5591956489691429,7.117950668648964,-2.4512415147064144
-0.09935855915126582,0.6278379779003059,7.0934382535019,-2.566898017332839
-0.09308017937226276,0.6999004767387544,7.0677692733285715,-2.685256531717032
-0.08608117460487522,0.7754990059409482,7.040916708011401,-2.806568458602686
-0.07832618454546574,0.8547246797603097,7.012851023425374,-2.931069870763248
-0.06977893774786263,0.9376296750488208,6.983540324717741,-3.058963194115443
-0.06040264099737443,1.0242070496273714,6.952950692776587,-3.190390794863629
-0.05016057050110071,1.114362501159409,6.921046784827951,-3.3253976061595516
-0.03901694548950662,1.2078755464006674,6.887792808766355,-3.463879269138465
-0.026938190025499943,1.3043473054046373,6.853154016074971,-3.6055117978386884
-0.01389471697145357,1.4031322556048895,6.817098898096583,-3.749658939746607
0.00013660558459532499,1.5032525671117414,6.7796023086991175,-3.895255002890525
0.01516913125571274,1.6032969101075942,6.740649758670212,-4.040665292028346
0.031202100356788685,1.7013122819900628,6.700243105749929,-4.183535310692041
0.04821522317668932,1.7947087889162072,6.658407752643009,-4.320655449395928
0.0661623110658514,1.8802135946606684,6.615201198149049,-4.447890285065094
0.08496444701245807,1.9539279016129587,6.570722295298398,-4.560246097881023
0.10450372602858767,2.0115493692698267,6.525119834319588,-4.65216237134163
0.12461921972128594,2.0488035051994693,6.4785982106061715,-4.718087626959556
0.14510725477328063,2.062063593489661,6.431417334336576,-4.753312468615091
0.16572789070817723,2.049034808094625,6.383884209650425,-4.754890213636952
0.18621823878912347,2.009284875397822,6.336335307514056,-4.722347774096747
0.20631108754310168,1.944402475327242,6.289111829773089,-4.657888791715194
0.2257551122963741,1.857696482679238,6.242532941855937,-4.565973230540824
0.24433207712316649,1.7535483084317294,6.196873209550529,-4.452430814094992
0.2618675602074838,1.6366618865296145,6.152348901409579,-4.323444805617004
0.27823417907278,1.5114432667098556,6.109114453353409,-4.184721785033757
0.29334861173987853,1.3816257413396147,6.0672672355030715,-4.041001506867818
0.3071648691532747,1.2501344914303287,6.026857220434393,-3.8958937147280492
0.31966621406757795,1.119118487164585,5.987898283287112,-3.751939757888728
0.3308573989392238,0.9900683691017227,5.950378885708225,-3.6107866478451065
0.340758082630241,0.8639598928562326,5.914271019229774,-3.473391282632002
0.3493976815588033,0.7413886746153315,5.879537106403453,-3.3402090738359917
0.35681156830495664,0.6226818646687423,5.8461350156650935,-3.211348530189709
0.3630383869516441,0.507984048441013,5.814021530363196,-3.0866891204515325
0.3681182274360542,0.39732013060398974,5.783154639158681,-2.965966917038801
0.3720914287420941,0.29063974155419187,5.753494969988293,-2.848834702314837
0.37499782615763605,0.18784769351742236,5.725006622965145,-2.734903005650358
0.3768763030928103,0.08882430622849782,5.697657592908641,-2.623767436719959
0.37776454615509525,-0.006561431847281751,5.671419918541441,-2.5150264264167688
0.37769893183662245,-0.09844367165020736,5.6462696542772735,-2.4082923810550887
0.3767144951201204,-0.18695490397031395,5.622186730466723,-2.3031983816189374
0.37484494608041724,-0.27222344067344867,5.599154746650534,-2.1994019087843584
0.37212271167368277,-0.35437240318479835,5.57716072756269,-2.0965866064294674
0.3685789876418348,-0.4335196846112159,5.556194861498396,-1.9944627675263495
0.3642437907957226,-0.5097785197490814,5.536250233823132,-1.8927669988712967
0.3591460055982318,-0.5832584136458896,5.517322563834419,-1.7912613656000813
0.3533134214617729,-0.6540662597119089,5.499409950178419,-1.689732211117352
0.3467727588646538,-0.722307533668558,5.482512628067245,-1.5879887774030164
0.3395496835279682,-0.7880874876672042,5.466632740293215,-1.4858617037443334
0.33166880865129617,-0.851512295135963,5.451774123255771,-1.383201451226943
0.3231536856999365,-0.912690115045812,5.437942108743502,-1.2798766806050057
0.3140267845494784,-0.9717320568829838,5.425143341937452,-1.175772598902078
0.30430946398064856,-1.0287530364045347,5.413385615948431,-1.0707892828425902
0.2940219336166032,-1.0838725184037061,5.4026777231200045,-0.9648399833291671
0.28318320843256617,-1.1372151469946188,5.393029323286713,-0.8578494135509639
0.27181105696262,-1.1889112668424098,5.384450829151204,-0.7497520231944721
0.2599219442941959,-1.2390973406228445,5.376953308919259,-0.6404902621588446
0.24753097088796747,-1.2879162689621715,5.3705484062976705,-0.5300128388768554
0.23465180819834575,-1.335517619243417,5.365248277908902,-0.4182729806878412
0.22129663200591157,-1.382057768939415,5.361065548102024,-0.30522670670921
0.20747605431651742,-1.4276999674314164,5.358013281034932,-0.19083112744211161
0.19319905464220324,-1.472614317391807,5.356104969760511,-0.07504279019135102
0.17847291146828517,-1.5169776724424708,5.355354541858597,0.04218390429878206
0.16330313474386046,-1.5609734415076537,5.3557763809015855,0.16089818017839613
0.14769340032878392,-1.6047912814514094,5.357385362703369,0.2811542146156712
0.13164548751426983,-1.648626647387084,5.360196904849526,0.40301225502515914
0.11515922104039898,-1.6926801533292684,5.364227027399778,0.5265394434549213
0.0982324195071063,-1.7371566730865258,5.369492421834328,0.6518102369916146
0.08086085277624104,-1.782264080404611,5.3760105242042435,0.7789062730036235
0.06303821197219493,-1.8282114856437826,5.38379958693428,0.9079154733261461
0.04475609711575711,-1.875206770189534,5.392878741667541,1.0389301071449764
0.026004029413861766,-1.9234531449358467,5.403268042738991,1.1720434321429543
0.0067694979645032995,-1.9731443602693481,5.414988477060421,1.3073444000060057
-0.012961945638190184,-2.0244580662597094,5.428061921060481,1.4449097375000637
-0.03320652630078728,-2.077546658039462,5.442511018435481,1.5847924906197637
-0.0539819928811819,-2.132524740437112,5.458358943341679,1.7270058434300033
-0.07530724028555302,-2.1894521134958635,5.475629001775979,1.8715007026543418
-0.09720176142051165,-2.2483109393214225,5.494344008802522,2.018135204852545
-0.11968487081372588,-2.308975556680141,5.514525360851048,2.166634032140121
-0.1427746263805273,-2.3711733781089097,5.536191701172449,2.3165353740553902
-0.1664863601616164,-2.4344356474229194,5.5593570549130025,2.467123841768221
-0.19083071663584558,-2.4980379084551863,5.584028293330685,2.6173491193446665
-0.21581109572039744,-2.560932366991946,5.610201784524132,2.765733359992494
-0.24142041939031691,-2.6216785743914257,5.637859118124057,2.9102762181569486
-0.26763720513423117,-2.6783855657659528,5.666961880305626,3.0483757070963686
-0.2944210607918907,-2.728687547872591,5.69744563737659,3.176795507572469
-0.3217079362706166,-2.7697843707316,5.729213592452314,3.291722023684895
-0.3494057799779326,-2.7985820280874814,5.762130812689163,3.3889599870856526
-0.3773916002588074,-2.811958614733908,5.796020412560019,3.464301619529778
-0.4055111864061465,-2.8071490330848294,5.830663428755317,3.514059465936447
-0.43358267673699474,-2.782188147309689,5.8658040234146815,3.535678302137568
-0.46140455821009163,-2.736297492728038,5.9011608064360574,3.5282657025940454
-0.48876753313737203,-2.6700828782313315,5.936443463461998,3.4928567713317076
-0.5154683619196854,-2.5854585950979065,5.971372031175315,3.432296919955456
-0.5413229478706645,-2.4853152368578475,6.00569500037487,3.3507684536135187
-0.5661761002392429,-2.3730446032404635,6.039202684911006,3.253121061061335
-0.5899065462716475,-2.252069583217013,6.071733895521619,3.144213293922997
-0.6124272421038176,-2.1254901349646182,6.103176028460848,3.0284195832362677
-0.6336821434534637,-1.9958863303907384,6.133460224293211,2.9093586947311216
-0.6536410067573711,-1.8652605156608955,6.162553811240522,2.7898172196050415
-0.6722936119139801,-1.735073137415374,6.1904519834365725,2.671803679424221
-0.6896443432881338,-1.60632611594808,6.217170020230815,2.5566683665927825
-0.7057076044476146,-1.4796599789304268,6.2427367038967425,2.4452416267201063
-0.7205042042369189,-1.3554451855132739,6.267189120163944,2.3379633430053506
-0.7340586560920516,-1.2338589825693613,6.290568753593997,2.2349916956164666
-0.7463972459177451,-1.114945807918713,6.312918670550162,2.136288590070636
-0.7575467039969322,-0.9986625993420726,6.334281556450868,2.0416837900544755
-0.767533329990353,-0.8849116276199185,6.354698394351413,1.95092151389777
-0.7763824462665522,-0.7735636283549934,6.374207609490391,1.8636934414227844
-0.7841180825501021,-0.6644736800872145,6.392844543904618,1.779661596837739
-0.7907628193509743,-0.5574918014702434,6.410641159872996,1.6984738930423018
-0.7963377373656767,-0.4524697763611881,6.427625898803419,1.6197744628361035
-0.8008624351292886,-0.34926532305003,6.44382364343178,1.5432103460131275
-0.8043550883597889,-0.24774441513790232,6.459255746891912,1.4684356645683183
-0.8068325325111679,-0.14778232912079134,6.473940103537595,1.395114089664742
-0.8083103558023759,-0.049263823450760844,6.487891244434243,1.3229201633100394
-0.8088029940368835,0.0479172686346129,6.501120446067343,1.2515398644101239
-0.8083238213505374,0.14385883720938777,6.513635844711445,1.180670685571008
-0.8068852329784435,0.23865155058229098,6.525442551567155,1.1100213999925868
-0.8044987174726206,0.3323800756925036,6.536542765567081,1.039311636733241
-0.8011749167156955,0.4251244022832454,6.546935881934413,0.9682713399889696
-0.796923672692863,0.5169612295885982,6.556618595334303,0.8966401584245792
-0.791754060396977,0.6079653882130015,6.565584996918549,0.824166790198996
-0.785674406514847,0.698211279264485,6.573826664820539,0.7506082954770561
-0.7786922937222022,0.7877743189540976,6.581332747775309,0.675729379085108
-0.7708145505326612,0.8767323806970075,6.58809004156616,0.5993016403213988
-0.7620472267256911,0.9651672288284907,6.594083057969374,0.5211027839952396
-0.7523955544374062,1.053165938717325,6.599294085809326,0.44091578610543847
-0.741863895050233,1.1408222974523607,6.603703243670381,0.3585280090255598
-0.7304556720757094,1.2282381773390625,6.607288523760636,0.27373026474723655
-0.7181732903023188,1.315524870919202,6.610025826408108,0.18631583101692964
-0.7050180415931268,1.4028043706377709,6.611888984718278,0.09607943477127333
-0.6909899978867491,1.4902105678571271,6.612849779065991,0.0028162312101741582
-0.6760878922081778,1.5778903335064525,6.612877941378093,-0.09367917325126172
-0.6603089888731133,1.6660044245785204,6.61194114964558,-0.19361357771859378
-0.6436489446273281,1.754728134547459,6.610005013868395,-0.2971958070080678
-0.6261016632818536,1.8442515681867875,6.607033055798314,-0.4046369229552848
-0.6076591475999857,1.9347793674604539,6.602986686568761,-0.5161497755244999
-0.5883113539253813,2.0265296385541407,6.597825188813516,-0.6319475314232841
-0.5680460575398398,2.119731721736975,6.591505713499283,-0.7522406625396486
-0.5468487403224701,2.214622293674116,6.583983306873887,-0.8772316602354119
-0.5247025173857289,2.3114390808351364,6.5752109902715326,-1.0071064433457253
-0.5015881265773776,2.4104111746568284,6.565139925838075,-1.142021022742001
-0.4774840148308093,2.5117445554000977,6.553719715610655,-1.282081447976992
-0.45236656927680835,2.6156009392468773,6.540898901130885,-1.4273143747856598
-0.4262105598843396,2.7220674696834215,6.526625757383028,-1.5776247683419882
-0.3989898851875054,2.8311141380566096,6.510849509699608,-1.7327363806734415
-0.37067874380693927,2.9425353059799995,6.493522145892873,-1.892109948994691
-0.3412533907471393,3.055871686911347,6.474601046402927,-2.054834083519254
-0.3106946738780258,3.1703103512508957,6.454052705567734,-2.2194855738090293
