th1 (rad),w1 (rad/s),th2 (rad),w2 (rad/s)
3.318507903733981,3.047631079474867,4.114179312220448,1.7858766350758382
3.3489842145287296,3.0787753825085313,4.132038078571206,1.7787158138152166
3.3797719683538148,3.113486048958012,4.149825236709359,1.7692003493834159
3.410906828843395,3.1518586167354927,4.167517240203193,1.75706533322584
3.44242541501075,3.193992377359951,4.185087893535451,1.7420415868347692
3.474365338784349,3.2399908639507773,4.2025083094037985,1.7238559409933072
3.506765247423857,3.2899622967296422,4.219746868813732,1.7022318329539048
3.5396648703911535,3.344019934390749,4.236769187143271,1.6768903350211706
3.573105069735061,3.4022822563717607,4.253538090493483,1.647551765249882
3.6071278922987786,3.4648728691187225,4.270013608145981,1.6139380806581907
3.641776620989966,3.531919986074522,4.286152988952563,1.5757763193380712
3.677095820850711,3.6035552728222306,4.301910752145943,1.5328034448280579
3.7131313735789333,3.6799117713927685,4.317238786594224,1.48477305956636
3.749930491292861,3.761120516561002,4.332086517189888,1.4314645999494107
3.787541696458471,3.8473053275805715,4.346401163189382,1.372695808456033
3.8260147497342767,3.938575098522568,4.3601281212739424,1.3083395002505345
3.8654005007195025,4.035012721114452,4.373211516276448,1.2383458967004688
3.905750627930647,4.136659567690087,4.385594975243452,1.1627720645080901
3.9471172236075476,4.243494269742583,4.397222695888534,1.0818202253178013
3.9895521663049736,4.355404414488941,4.408040898141712,0.9958867846904793
4.033106210449863,4.4721498669296,4.4179997659886165,0.905623688860367
4.077827709119159,4.5933169059754455,4.427056002877221,0.8120128554827785
4.1237608781789135,4.718263535413153,4.435176131432049,0.7164525041674518
4.170943513533045,4.846058572847762,4.442340656473723,0.6208506821683297
4.2194040992615225,4.975420799156573,4.448549163295406,0.5277156200086642
4.269158307253088,5.104669666186851,4.4538263194954935,0.44022465370579666
4.320205003914956,5.231705160740566,4.458228566032552,0.3622443286465637
4.372522055522362,5.354039364260247,4.461851009319017,0.2982670301900997
4.426062449164965,5.468902190667543,4.464833679620918,0.25322978114778877
4.48075147107164,5.5734338338290215,4.467365977432396,0.23219596112526492
4.53648580940993,5.664953553033812,4.469687937043649,0.2399151854596632
4.5931353449402685,5.741262088510213,4.472087088898246,0.2803253173255285
4.65054796582537,5.800906459999958,4.474890342071501,0.3561041386562654
4.70855703042537,5.843329944076995,4.478451383458064,0.46838875443184347
4.76699032986614,5.868857976674063,4.483135271002382,0.6167410949941403
4.82567890963288,5.878523806820104,4.489302681952323,0.799359952983254
4.884464147701081,5.873789182164819,4.497296281482156,1.0134626632767927
4.943202039522729,5.856239247277766,4.507430908114924,1.2557213828604903
5.0017644319955075,5.82732049598507,4.519988121943529,1.5226510956227954
5.060037636955358,5.788159550901547,4.5352146328997565,1.8108903836705457
5.117919232464374,5.7394684222550225,4.553323536736462,2.1173632048376847
5.175313916686924,5.681521174991327,4.574497168784839,2.4393416412050253
5.232129128436837,5.614179573518034,4.598890585196889,2.7744421040572984
5.288270924172017,5.536947031300087,4.626635006237462,3.1205863361823707
5.343640394485018,5.449035807519198,4.657840869599286,3.475951127181508
5.39813075256021,5.349438268565907,4.692600380871101,3.8389221885106632
5.451625135245869,5.2369975676267195,4.730989602756208,4.2080605814601855
5.503995110922136,5.110476021094526,4.773070208570809,4.582085004200823
5.5550998711330815,4.968621123285597,4.8188910586128175,4.959869767504326
5.604786082365937,4.810230065630924,4.868489756287861,5.340455800614365
5.652888383022246,4.634214330707746,4.921894314294005,5.723069920350471
5.699230526329323,4.439666892965796,4.97912501349751,6.1071453269596825
5.7436271952589815,4.2259362496668,5.040196466767107,6.492333329492224
5.785886557755649,3.9927144485404193,5.105119800062029,6.878492033261209
5.825813702241054,3.7401510771658497,5.173904720394641,7.265631344105177
5.863215213012713,3.4690124726569542,5.246561033835693,7.65378418272067
5.8979053377392825,3.1809155795042314,5.3230988756629,8.042760418946456
5.929714493534325,2.8786781082282435,5.403526479852365,8.431723203463617
5.958501274616608,2.566836459755577,5.487843711887002,8.818512092285488
5.984169639214164,2.2523767725752517,5.576028832809857,9.198640452276653
6.006693406939917,1.9456704866169654,5.668015237332623,9.563957821776603
6.0261501118060865,1.661444966575296,5.76365481555039,9.901170773963477
6.04276456147184,1.4192842416119527,5.862666523290025,10.190853710130403
6.056957403887959,1.242682115227818,5.964575060391328,10.408214695940925
6.0693842250402374,1.1554655772072944,6.068657207350737,10.527182129362577
6.080938880812311,1.1753737976150929,6.1739290286443635,10.52814648481852
6.092692618788462,1.3071691804564534,6.279210493492549,10.40632353461966
6.105764310593027,1.5398248128404355,6.383273728838746,10.174924065077944
6.121162558721431,1.850401361146714,6.485022969489525,9.859941862022563
6.139666572332898,2.2119593069320547,6.583622388109751,9.490223643541647
6.161786165402218,2.600349430765777,6.678524624545167,9.089467132999594
6.1877896597098765,2.9972432387073757,6.769419295875163,8.673245250659294
6.21776209209695,3.3901145579650387,6.856151748381755,8.249825057935
6.251663237676601,3.770932601352706,6.938649998961106,7.822391831157031
6.289372563690128,4.134755047841246,7.016873917272676,7.391180669444509
6.33072011416854,4.478662569620692,7.090785723967121,6.955024509710669
6.375506739864747,4.801071045328323,7.160335969064228,6.51233172794444
6.42351745031803,5.101326531895716,7.225459286343672,6.061646732507861
6.474530715636988,5.37947869282892,7.286075753668751,5.601939047873405
6.528325502565277,5.6361534941595,7.342095144147485,5.132724771371423
6.584687037506872,5.87247255827926,7.393422391861199,4.654088247278067
6.643411763089665,6.089986277798861,7.439963274333979,4.166648673593383
6.704311625867653,6.290600392531689,7.481629761069913,3.6715039884893113
6.76721762979297,6.476482626089747,7.5183448009548055,3.1701793637127578
6.831982456053868,6.649938345158219,7.550046594591933,2.6646074687868495
6.8984818395054495,6.813242773703743,7.576692669279802,2.157170915887402
6.966614267242487,6.968412711615474,7.598264378438675,1.6508429266094344
7.036298394358641,7.116894385732036,7.61477280770477,1.1494683686673899
7.107467338215962,7.259139920547279,7.626267491391444,0.6582285088824598
7.180058737421435,7.394052671767518,7.632849776480269,0.18431548943638398
7.25399926413911,7.518321670161633,7.634692931374633,-0.26222205491922174
7.329182480840727,7.625770998687735,7.632070710825441,-0.6676593814599099
7.405440190827604,7.707051156376966,7.625394117010842,-1.0142923738049534
7.482510702391374,7.750254814634017,7.615251193272792,-1.2815046320306012
7.560013250537714,7.74310406221733,7.602436146952487,-1.4491359625417166
7.637444291159887,7.6767569576506025,7.58794478732707,-1.503191683463418
7.714211860736393,7.549839661150349,7.572912870492435,-1.4418228108979905
7.789710257347896,7.370130834017902,7.558494642383455,-1.277786615402134
7.863411565688075,7.152324752965069,7.545716776229434,-1.0350518468560759
7.934934813217726,6.913223383373842,7.535366257760874,-0.7414969306658499
8.004067047051464,6.667388867375536,7.527951288454215,-0.4221712953604469
8.070740935725219,6.425098544287408,7.52372957550061,-0.09591898856773301
8.134991921168092,6.19238294599222,7.522770385614933,0.22485766234137994
8.196915750628014,5.972048189191781,7.525018962238347,0.5328673246633717
8.25663623251993,5.76482185465015,7.530347635484981,0.8243131334044843
8.314284451066433,5.570253938232104,7.538590766819026,1.0975695859273982
8.369986990448753,5.387317220258428,7.549566462678301,1.352268151981965
8.423860162651337,5.214768930084398,7.56308914419812,1.5887220622431186
8.47600785195218,5.051352224120375,7.578976364820551,1.807585913824066
8.526521374193385,4.895899333747014,7.597052223958792,2.009663725046624
8.575480367530854,4.747377657915304,7.617148861209258,2.195805929583908
8.622954144110007,4.6049041767680725,7.639106920505097,2.3668576681234534
8.669003185877688,4.467743072056764,7.662775497186331,2.5236356519899172
8.713680616598255,4.33529502039865,7.6880118537062305,2.666920271267377
8.757033566802242,4.207082857133183,7.714681056418904,2.797455305694478
8.799104395373574,4.082736152934851,7.7426556094758485,2.915950960843813
8.839931756902923,3.96197603480055,7.771815119084287,3.0230879160203696
8.879551517250928,3.844600913939204,7.80204599824449,3.1195212045114284
8.91799752639032,3.7304734192843196,7.8332412102896045,3.2058833933404505
8.955302260583164,3.619508641274307,7.865300044223009,3.2827868904111113
8.991497346995907,3.5116636894318707,7.89812791312712,3.3508254003622504
9.026613983890226,3.4069285161674583,7.931636167130743,3.4105746461589757
9.0606832690519,3.3053179344381345,7.965741913592333,3.4625925124498966
9.093736448396282,3.206864745595937,8.000367838716832,3.507418773395771
9.125805095852241,3.111613889221919,8.03544202645079,3.545574556612992
9.15692123474446,3.0196175255692266,8.07089777201692,3.5775616748741306
9.187117410000154,2.930930961825614,8.106673388765662,3.6038619335838527
9.21642671961841,2.8456093350632146,8.142712008101501,3.624936497990715
9.244882812969042,2.763704967214537,8.178961373081409,3.6412253814660485
9.272519862641188,2.6852653106164133,8.215373626896069,3.6531470960002035
9.299372515747352,2.6103314065603085,8.25190509785607,3.6610984888107807
9.325475829812955,2.5389367838266774,8.288516082744179,3.665454774752541
9.350865197651222,2.471106729279091,8.325170630491705,3.666569762965272
9.375576264944014,2.4068578681352966,8.361836328121358,3.6647762676567557
9.399644843625367,2.3461979973802123,8.398484090797925,3.6603866867785757
9.42310682359917,2.289126121793692,8.435087957665711,3.6536937282638875
9.445998084817107,2.2356326480894047,8.47162489494835,3.644971261105287
9.468354411298002,2.1856996985672987,8.508074607559402,3.6344752675208105
9.490211408283674,2.1393015113552005,8.544419360234611,3.6224448724799108
9.511604423397227,2.096404899660497,8.58064380895941,3.6091034276694347
9.532568472393832,2.056969747398076,8.616734843236104,3.594659628343418
9.553138169867813,2.0209495230549623,8.652681439519538,3.579308643232145
9.573347665098362,1.9882917976643946,8.68847452595186,3.563233239636442
9.593230583075005,1.958938756279016,8.724106858348224,3.5466048878887144
9.612819970637796,1.9328276953555732,8.75957290722711,3.529584831439503
9.632148247591351,1.909891501005299,8.794868755541504,3.5123251108692948
9.651247162601404,1.8900591051477107,8.829992006650198,3.4949695320922576
9.67014775365288,1.8732559182609778,8.86494170197112,3.4776545708889084
9.68888031283549,1.8594042386849325,8.899718247680008,3.4605102076665695
9.70747435522234,1.8484236393429803,8.934323349756674,3.4436606879945426
9.72595859161577,1.8402313333493445,8.96875995663662,3.4272252059932398
9.744360904949264,1.8347425203030285,9.00303220869655,3.4113185090717244
9.762708330152295,1.8318707151855724,9.037145393787268,3.3960514238036685
9.78102703730415,1.8315280617225687,9.071105908025306,3.3815313039027752
9.799342317921376,1.8336256318849944,9.104921221064334,3.367862402297596
9.817678574240226,1.8380737129405282,9.13859984508731,3.3551461702023047
9.836059311369631,1.8447820831597082,9.172151306789333,3.343481486822442
9.854507132201228,1.8536602769764394,9.205586121657557,3.3329648239104803
9.873043734970992,1.8646178401321114,9.238915769896662,3.3236903497835604
9.891689913372312,1.8775645751274428,9.272152673394498,3.3157499776255404
9.910465559123587,1.892410777190162,9.305310173170753,3.3092333629118214
9.929389666895489,1.9090674609572287,9.338402506799872,3.3042278546174075
9.94848034150506,1.9274465781781085,9.371444785346046,3.300818404501083
9.967754807286841,1.9474612269743001,9.404452969391057,3.299087438212326
9.987229419556584,1.9690258535369642,9.437443843773181,3.2991146912595393
10.006919678091954,1.9920564476000853,9.470434990685776,3.300977012030869
10.026840242567955,2.0164707335768193,9.503444760806085,3.3047481330996975
10.047004949903723,2.0421883598728505,9.536492242137081,3.3104984110069324
10.067426833502452,2.069131089570555,9.56959722624715,3.318294533625292
10.088118144398157,2.0972229963868445,9.602780171583404,3.3281991931123147
10.109090374362026,2.12639067051915,9.636062163514527,3.3402707213847567
10.130354281067218,2.1565634396800446,9.669464870728374,3.354562684033502
10.151919915464019,2.187673611252112,9.703010497568709,3.37112342768091
10.17379665157654,2.2196567420398,9.736721731845519,3.3899955749975557
10.195993218996938,2.2524519425208216,9.770621687595494,3.411215460979208
10.218517738422145,2.2860022227694756,9.804733842205286,3.4348125036762394
10.24137776064984,2.3202548872967292,9.839081967242048,3.460808502408577
10.264580309522808,2.3551619858793034,9.873690052266134,3.4892168566375306
10.288131929381601,2.3906808269767823,9.90858222083251,3.520041699156748
10.312038737651369,2.4267745594966987,9.943782637824079,3.553276938173591
10.336306483246336,2.4634128273867058,9.979315407205814,3.588905204256627
10.360940611520203,2.5005724997229226,10.01520445924838,3.6268967001154366
10.385946336517431,2.5382384765261663,10.051473426249535,3.6672079538598483
10.411328721282693,2.576404567366081,10.088145505788134,3.7097804798739134
10.437092766956354,2.615074435796133,10.125243310586873,3.7545393558609073
10.463243511314316,2.6542625976924397,10.162788704145482,3.801391730096686
10.48978613729124,2.693995455554117,10.20080262144645,3.850225279587209
10.516726091846781,2.7343123437017414,10.239304874242322,3.900906647752523
10.544069215283798,2.775266551077323,10.278313940719848,3.953279899494143
10.571821880794571,2.8169262790798433,10.317846739714788,4.007165042004561
10.59999114358537,2.8593754817571737,10.357918390134834,4.062356671287084
10.628584898402941,2.902714525063638,10.398541956847705,4.118622816750551
10.657612043653577,2.947060591319322,10.43972818501521,4.175704068900938
10.68708264956677,2.9925477452318727,10.48148522570422,4.233313087300621
10.717008127019088,3.039326569862988,10.523818356577227,4.2911345965687735
10.747401392717718,3.087563275970118,10.566729702542915,4.348825985951881
10.778277025477419,3.1374381876420743,10.610217962402434,4.406018631383822
10.80965140735384,3.189143512571704,10.654278148716273,4.462320056350032
10.841542842479557,3.242880318089167,10.698901349279772,4.517317037699342
10.873971645660449,3.298854655336797,10.744074519656765,4.570579743539626
10.906960192213816,3.3572728042549818,10.789780317092161,4.621666961830536
10.940532920256366,3.4183356510700365,10.835996986710466,4.670132440466919
10.974716276767067,3.4822322563323236,10.882698311115135,4.715532313903291
11.00953859933039,3.5491327226071676,10.929853634254167,4.757433540360887
11.045029926556463,3.6191805228281657,10.977427969657775,4.795423221246093
11.081221731784744,3.69248449830649,11.025382201870237,4.829118625303899
11.11814657676781,3.7691107742746275,11.073673388123275,4.858177699150257
11.155837684510557,3.8490748658050484,11.122255165114778,4.88230981742436
11.194328433168607,3.9323342543794557,11.171078263289022,4.9012865124965
11.233651775712401,4.0187817037269555,11.220091128413987,4.914951925600141
11.27383959274967,4.108239553854161,11.269240647669989,4.923232735583343
11.314921988288212,4.200455188308185,11.318472975025822,4.9261473423943
11.356926540171294,4.295097817971651,11.367734448449765,4.923814101829457
11.39987751835101,4.391756673078794,11.41697258946806,4.916458416827343
11.443795085081797,4.489940652133396,11.466137173636334,4.90441848014187
11.488694491603132,4.589079449573836,11.515181358437752,4.888149427467799
11.53458528609887,4.688526178674599,11.56406285271243,4.868225597082408
11.581470547885617,4.787561524152778,11.612745108683255,4.845340505471493
11.629346163127146,4.88539949777195,11.66119851373797,4.820304048451317
11.678200158104865,4.981194922537491,11.709401554222483,4.794036341176402
11.72801210733024,5.074052824535962,11.757341917634246,4.76755754197982
11.7787526355756,5.163039949353809,11.805017493054045,4.741972993392613
11.830383035069138,5.247198622607454,11.852437222987971,4.71845309065005
11.882855021295212,5.325563121401204,11.899621753894472,4.698207483086847
11.936110652509225,5.397178599263922,11.94660382872534,4.6824535475772375
11.990082438501863,5.461122404237829,11.993428364201113,4.672379548340231
12.044693662544242,5.516527356213961,12.040152159684515,4.66910348991777
12.099858936106381,5.562606232676867,12.086843194583693,4.673629322466419
12.155484998433149,5.598676399237435,12.133579487808356,4.686802779630353
12.211471762425523,5.624183275001022,12.18044751560466,4.709269604375977
12.267713595175533,5.638721207685163,12.22754021164842,4.741439129922828
12.324100807252384,5.642050399022045,12.274954602947648,4.7834560412146185
12.380521311242605,5.63410878367469,12.322789163359795,4.835182614940461
12.436862399079352,5.615018196152398,12.3711409895092,4.896192868665696
12.493012581040876,5.585084687605382,12.420102918195857,4.965778965930687
12.54886342791693,5.544793376972092,12.469760707855164,5.0429691022099465
12.60431136168665,5.4947986352549645,12.520190398877263,5.126555126640877
12.6592593480392,5.435910629459547,12.571455950143672,5.215127492395892
12.713618454333796,5.369079260837655,12.623607225067632,5.307114860652013
12.767309246942173,5.295376338339582,12.676678373674152,5.4008258118672146
12.820263010325569,5.215976492811027,12.730686631792825,5.494490571773386
12.872422775253678,5.13213694539023,12.78563153751056,5.586301317411003
12.92374414470758,5.045175884883462,12.841494550684668,5.674450351060116
12.974195903556415,4.956448963377505,12.898239054195269,5.757166084075556
13.02376039319019,4.8673233470008155,12.955810715036025,5.832747248540253
13.0724336266602,4.7791488952302155,13.014138187521427,5.899595974275683
13.120225115612502,4.6932263956631814,13.073134147264184,5.956250291191086
13.167157379569135,4.61077332818954,13.132696650176095,6.001416244482845
13.21326511285103,4.5328883120668735,13.192710812620923,6.033999195991124
13.2585939959717,4.460516099654722,13.253050804580834,6.0531331388186
13.303199156968246,4.39441558339361,13.31358213596902,6.058206136220203
13.347143312802181,4.3351336228760955,13.374164197331222,6.048879502059107
13.390494649030943,4.282987439752302,13.434652992351813,6.025098248137894
13.433324523428466,4.238057796259326,13.494903974833193,5.9870907435899845
13.475705101391059,4.200194196995916,13.554774882269093,5.935356454109113
13.517707043361018,4.169032077116086,13.614128446810184,5.87064190631032
13.55939736413218,4.144020597198354,13.672834865873288,5.7939063965588256
13.600837570104163,4.124458518393553,13.730773929838875,5.706280137284872
13.642082155288099,4.109534897238202,13.787836731211724,5.609018262120399
13.683177504260481,4.09837112715902,13.843926913832929,5.5034542729092735
13.724161215532071,4.090061144183861,13.898961456562022,5.390956134240258
13.76506182697391,4.083707282077436,13.952871017904425,5.272887453398336
13.805898899794684,4.078450125810297,14.005599892438408,5.150575233802725
13.846683401052788,4.073491591822387,14.057105644776435,5.025284758932209
13.887418316971011,4.0681112219157605,14.107358492365757,4.898201397107114
13.92809942919017,4.061676238940165,14.156340506336829,4.770418587546439
13.96871619157957,4.053646258519916,14.204044692212292,4.642930980978682
14.00925265416477,4.04357370503587,14.250474002022079,4.51663162532377
14.04968839121513,4.031100986682896,14.295640318275316,4.392312149738918
14.089999401081958,4.015955393559351,14.339563439772705,4.270665048543741
14.130158955017551,3.9979425388126315,14.382270090258142,4.152287350291926
14.170138380405678,3.976938999890864,14.423792963761061,4.037685141167389
