th1 (rad),w1 (rad/s),th2 (rad),w2 (rad/s)
3.42506834449983,0.7387692761950361,4.044621519311607,0.010201130211546472
3.4324560372617805,0.734845169852091,4.044723530613723,0.08717690194507537
3.439804488960301,0.7316994063002948,4.045595299633174,0.16360411690519744
3.447121483023304,0.7293885526984688,4.047231340802226,0.23946447002113888
3.454415368550289,0.7279663144200005,4.049625985502437,0.31474209336671827
3.461695031694489,0.7274840113373356,4.052773406436104,0.38942312650971556
3.4689698718078623,0.7279910713843343,4.056667637701201,0.463495238912247
3.476249782521706,0.7295355304316697,4.061302590090324,0.5369471186950132
3.4835451378260225,0.7321645282395098,4.0666720612772735,0.6097679410110801
3.4908667831084177,0.7359247911323917,4.072769740687384,0.6819468279698615
3.4982260310197417,0.740863093011626,4.079589208967083,0.7534723105946576
3.505634661949858,0.7470266873311621,4.0871239320730295,0.8243318017577422
3.5131049288231697,0.754463703676648,4.095367250090607,0.8945110874700607
3.5206495658599364,0.7632235035791796,4.104312360965308,0.9639938423476827
3.528281800895728,0.7733569911498545,4.113952299388784,1.0327611735610156
3.5360153708072266,0.7849168750316142,4.124279911124394,1.1007911961120602
3.5438645395575428,0.7979578790296337,4.135287823085514,1.168058640889222
3.551844118347839,0.8125368996028471,4.146968409494407,1.2345344956237652
3.5599694873438676,0.8287131091807863,4.159313754450644,1.3001856776208573
3.5682566184356754,0.8465480050152981,4.1723156112268525,1.364974735966005
3.5767220984858286,0.86610540398817,4.185965358586513,1.4288595798216903
3.58538315252571,0.8874513844734456,4.2002539543847295,1.4917932284397684
3.5942576663704444,0.9106541769952491,4.215171886669127,1.5537235776370866
3.603364208140397,0.9357840060242806,4.230709122445498,1.614593176732811
3.6127220482006397,0.9629128858135211,4.246855054212826,1.6743390093467656
3.622351177058775,0.9921143736805738,4.263598444306294,1.7328922710309114
3.6322723207955807,1.023463284595935,4.280927367016603,1.7901781364729847
3.64250695364154,1.0570353713311924,4.298829148381333,1.8461155089925625
3.653077307354852,1.0929069747602613,4.317290303471258,1.9006167452621838
3.6640063771024547,1.1311546491967928,4.336296470923879,1.9535873486413255
3.6753179235944224,1.171854767904125,4.355832344410293,2.004925625214388
3.687036471273464,1.215083114149237,4.375881600662437,2.0545222975736706
3.699187302414956,1.2609144634140772,4.396426823638174,2.102260072575362
3.711796447049097,1.309422162657219,4.4174494243639275,2.148013160704224
3.7248906686756693,1.360677712871721,4.43892955597097,2.1916467462874287
3.7384974458043865,1.4147503616503228,4.460846023433844,2.233016409570426
3.7526449494208896,1.471706713087026,4.483176187529549,2.271967503573369
3.76736201655176,1.531610363153966,4.505895862565282,2.3083344906474155
3.7826781201832995,1.59452156972978,4.528979207471756,2.341940245705526
3.798623335880597,1.6604969677491577,4.552398609928811,2.372595335170352
3.815228305558089,1.7295893415114734,4.576124563280514,2.4000972827207043
3.8325241989732035,1.8018474680341874,4.600125536107721,2.4242298348877367
3.8505426736535453,1.877316047450793,4.624367834456598,2.4447622414162784
3.869315834128053,1.956035738797459,4.648815456870762,2.461448567037007
3.8888761915160277,2.0380433220421756,4.673429942541132,2.47402705287598
3.9092566247364493,2.123372009783768,4.698170213069892,2.48221954716656
3.930490344834287,2.212051934537444,4.7229924085415576,2.485731026269142
3.9526108641796616,2.304110839719938,4.7478497188042486,2.484249228350076
3.975651972576861,2.3995750040616084,4.772692211087749,2.4774444236198505
3.999647722617477,2.4984704298071385,4.797466655323948,2.4649693471230547
4.024632426915549,2.6008243241720046,4.822116348795179,2.4464593232677725
4.050640670157269,2.70666690033745,4.846580942027857,2.421532616465082
4.077707339160643,2.8160335177263227,4.870796268192508,2.389791050788339
4.105867674337906,2.928967169897258,4.894694178700391,2.3508209555352173
4.135157346036879,3.045521309968242,4.918202388255743,2.30419451609903
4.165612559136561,3.165762974920239,4.9412443334167335,2.2494716452549395
4.1972701888857635,3.289776126915989,4.963739049869283,2.186202545651306
4.230167950154923,3.4176650653041283,4.985601075325796,2.113931219920617
4.264344600807965,3.5495576676428966,5.006740387525002,2.032200314828265
4.299840177484394,3.6856080778853215,5.027062390673285,1.9405578810156414
4.336696258263247,3.8259982546779985,5.046467969483441,1.8385669196141654
4.374956240810027,3.970937494019809,5.064853638679582,1.7258190122770052
4.414665615750225,4.120658609067556,5.082111828802352,1.601953947214214
4.455872201840901,4.275408834269693,5.098131368274495,1.4666881311092916
4.498626290183598,4.435432659804326,5.1127982495855875,1.319855796411522
4.542980616781641,4.600942635588427,5.125996807549702,1.161468647871451
4.5889900431375255,4.772072687171956,5.137611494028417,0.9918016531364636
4.636710770009245,4.9488067486674865,5.147529510559782,0.8115150017402375
4.68619883749592,5.130873911909602,5.155644660577184,0.6218242423705277
4.737507576615016,5.317600779613453,5.161862903000889,0.42473079337321673
4.790683584411151,5.507714343882945,5.1661102109346215,0.22332035893703897
4.845760727849981,5.699098209121522,5.168343414523992,0.022121835724176336
4.902751709941196,5.888526839611858,5.168564632881234,-0.17251386062101196
4.961636978337315,6.071442089130234,5.166839494275023,-0.35211449415847296
5.022351399228617,6.241891942642299,5.163318349333438,-0.5060478796010293
5.08477031865504,6.392800858864007,5.158257870537428,-0.6219964251658064
5.14869832724368,6.5167280135930135,5.15203790628577,-0.6871757402443476
5.21386560737961,6.607119419624297,5.145166148883327,-0.6903045713702859
5.279936801575853,6.65976069976553,5.138263103169624,-0.6238903380960792
5.3465344085735085,6.673851067122745,5.132024199788663,-0.4859673805850469
5.4132729192447355,6.652140025493414,5.1271645259828125,-0.28044423619231806
5.479794319499669,6.600014079421893,5.124360083620889,-0.015861469562963693
5.545794460293888,6.5239835933489365,5.12420146892526,0.29680578809647895
5.611034296227378,6.4302396342677595,5.127169526806225,0.6463195971919814
5.675336692570055,6.323725907130927,5.133632722778144,1.0226483651799634
5.7385739516413645,6.207794655976173,5.143859206429944,1.4175994558721625
5.800651898201126,6.084277617122076,5.158035200988666,1.824838747527513
5.861494674372347,5.953759339646728,5.17628358846394,2.2395997554431992
5.9210322677688145,5.815900210788244,5.198679586018373,2.658308240301913
5.979191269876697,5.669731331859432,5.225262668421392,3.0782434046729756
6.035888583195291,5.513895182513403,5.256045102468121,3.497280857773775
6.091027535020425,5.346832188378623,5.291017911045859,3.9137217559211006
6.144495856904211,5.166922730360913,5.33015512860507,4.326195622021866
6.19616508420782,4.972595267747833,5.373417084825289,4.733619780547876
6.245891036885299,4.762409348737135,5.420753282630768,5.135198793633472
6.29351513037267,4.535120008425457,5.472105270567103,5.530449033812084
6.338866330456924,4.289728593473894,5.527409760905224,5.919234952089954
6.381763616391663,4.025524940634013,5.586602110426123,6.301803994075356
6.4220188657980035,3.742127427981553,5.649620150366877,6.678805999010059
6.459440140077819,3.4395311475628976,5.7164082103569775,7.051279610153064
6.493835451553449,3.1181809828967837,5.786921006458508,7.420581602430071
6.525017261382416,2.779096658840451,5.861126822482809,7.788223408219303
6.552808227970821,2.4240918366906854,5.939009056565002,8.155560533425643
6.577049146337727,2.0561488997934627,6.020564661899258,8.523254251811203
6.597610635335662,1.6800303740808116,6.10579720441737,8.890396136176664
6.61441093907647,1.3032084851732064,6.194701165779136,9.253177899496322
6.627443023928202,0.937126281635605,6.287232944774099,9.603067663110835
6.636814286744558,0.5985647216929026,6.383263621405208,9.92475820148635
6.642799933961487,0.31035025424158585,6.482511203420071,10.194865244924136
6.645903436503903,0.09985739730909349,6.584459855869312,10.383408725730467
6.646902010476994,-0.006470317383345789,6.688293943126617,10.46046163258006
6.64683730730316,0.007647660593586866,6.792898559452417,10.40773210631342
6.646913783909096,0.14008770169523663,6.896975880515551,10.228885357888156
6.648314660926049,0.36994110384340373,6.999264734094433,9.949687422521285
6.652014071964483,0.6661378223611065,7.098761608319646,9.606744082537992
6.658675450188094,0.9982834124962365,7.194829049145026,9.233923300116546
6.6686582843130555,1.3429922441495559,7.287168282146192,8.855023107990684
6.6820882067545515,1.6848813671277367,7.375718513226099,8.483339008058184
6.698937020425829,2.014846157847162,7.460551903306681,8.124465629721115
6.7190854820043,2.32789393882543,7.541796559603892,7.779378154523362
6.742364421392555,2.6214663239675082,7.6195903411491255,7.446694822060563
6.76857908463223,2.894365609503572,7.694057289369731,7.1240694706808325
6.797522740727266,3.146135793270089,7.765297984076539,6.80896480235628
6.828984098659967,3.376730737397411,7.833387632100101,6.499047945701278
6.862751406033941,3.5863480395934357,7.898378111557114,6.19237234452219
6.8986148864298755,3.7753526408026876,7.960301835002336,5.887443329785585
6.936368412837902,3.944245734146065,8.019176268300193,5.58322154331156
6.975810870179363,4.0936539503293385,8.075008483733308,5.279093445402926
7.016747409682656,4.224325193623443,8.127799418187337,4.974824601651714
7.058990661618891,4.337124103706127,8.177547664203853,4.670504387570925
7.102361902655952,4.433023945139396,8.224252708079563,4.3664871803411645
7.146692142107346,4.513093947190669,8.267917579882974,4.0633333275871335
7.191823081579253,4.578482384231255,8.308550913158845,3.761752268748299
7.237607905421566,4.630396363879732,8.346168435846328,3.4625496495091435
7.283911869060363,4.670079584722894,8.38079393234142,3.166579873550972
7.330612664907592,4.698789366042926,8.41245973107693,2.8747051738791356
7.37760055856802,4.717774125277751,8.441206782815723,2.5877619265511527
7.424778299820798,4.728252249081308,8.467084402081234,2.3065345777594084
7.472060822311612,4.731393020659766,8.490149747858828,2.031737230736208
7.5193747525182095,4.728299968365186,8.51046712016619,1.7640026635968047
7.566657752201861,4.719996717533513,8.528107146802158,1.5038783393319062
7.613857719377196,4.707415179933492,8.543145930195477,1.2518288318734794
7.6609318711765315,4.6913857166906645,8.555664218514211,1.0082440240550476
7.707845728343438,4.6726287703745735,8.565746658754762,0.7734524200207364
7.754572016047184,4.6517473879735896,8.57348118295497,0.5477389308138985
7.80108948992692,4.6292200591715,8.578958572263108,0.33136650044133564
7.847381690518635,4.6053933908745766,8.58227223726752,0.12460089059928797
7.89343562442738,4.58047435699923,8.583518246173513,-0.07226222905987634
7.939240367997373,4.554522241920308,8.582795623882914,-0.25886911013226765
7.984785590416576,4.527440984856994,8.580206932781591,-0.4347805565775369
8.030060000265145,4.498973472516274,8.575859127215816,-0.5994482524916811
8.075049734990309,4.468700419713389,8.569864644690899,-0.7521990535798377
8.119736739187442,4.436047722150512,8.5623426541551,-0.8922330964360495
8.164097216408946,4.400307273588144,8.55342032319074,-1.0186429647067041
8.208100289144827,4.360676650645792,8.543233893543674,-1.1304615299876701
8.251707055651286,4.316321947188674,8.531929278243798,-1.2267442692798542
8.294870275123174,4.266464490191485,8.519661835550998,-1.3066865881402268
8.337534920025089,4.210485784566328,8.506594969669596,-1.3697674063320653
8.379639777870752,4.148036719621472,8.492897295606275,-1.4158983310720354
8.421120145066967,4.079129625799867,8.478738312295555,-1.4455471989311894
8.461911441324965,4.004189380534331,8.464282840306243,-1.4598016048742777
8.501953335130308,3.924045837553396,8.449684824257501,-1.460347097987759
8.541193793505842,3.8398641380038967,8.435081353277623,-1.4493555589660936
8.579592434885882,3.753026815720753,8.420587797687961,-1.4293044302053253
8.617122703043089,3.6649943761462236,8.406294753385907,-1.4027659013572993
8.653772646804551,3.5771737790390534,8.392267094372334,-1.3722090475049467
8.689544384594942,3.49081708337301,8.378545003897285,-1.3398474249852212
8.724452555428673,3.406960236992403,8.365146529647433,-1.3075467190791568
8.758522157798597,3.3264004566488183,8.352071062456641,-1.276790170181578
8.791786162365085,3.249703450848014,8.339303160754826,-1.2486889273072064
8.824283196873566,3.177229422172392,8.326816271481754,-1.2240209998484661
8.85605549109529,3.1091679157787206,8.314576061483269,-1.2032840515297791
8.887147170253078,3.0455742726458523,8.302543220967971,-1.1867511776072237
8.917602912979536,2.9864032892644303,8.290675709191898,-1.1745229685653842
8.947466945872181,2.9315379654735927,8.278930479506245,-1.1665725341835922
8.976782325526917,2.880812754663419,8.26726475416441,-1.1627824547313867
9.005590453073552,2.834031610220898,8.255636929617095,-1.1629739660048644
9.033930769175761,2.790981534517338,8.244007189957047,-1.1669293350976135
9.061840584520935,2.7514424590050557,8.23233789660607,-1.1744085996922555
9.089355009110985,2.7151942490564114,8.220593810609149,-1.1851618193698368
9.116506951601549,2.682021521554919,8.20874219241545,-1.1989378508247062
9.143327166817098,2.6517168371559814,8.196752813907203,-1.2154904853025437
9.169844335188658,2.624082708402429,8.184597909054178,-1.2345826157147912
9.196085162272682,2.5989327605946033,8.17225208289703,-1.2559889505365873
9.22207448987863,2.576092297463285,8.159692193391663,-1.2794976673668421
9.247835412853263,2.555398457285177,8.146897216717996,-1.3049113003570998
9.273389397426115,2.536700094499972,8.133848103714424,-1.3320470793839003
9.298756398371115,2.51985748413446,8.120527632920584,-1.360736880853379
9.323954973212459,2.5047419186090925,8.10692026411205,-1.3908269065271763
9.34900239239855,2.4912352464153287,8.093011995046778,-1.4221771743965304
9.373914744862702,2.4792293877944562,8.078790223302812,-1.454660881667516
9.398707038740646,2.4686258524362414,8.064243614486138,-1.4881636821939852
9.423393297265008,2.459335277226395,8.049361977664198,-1.522582907540734
9.447986650037272,2.4512769973732604,8.034136148588791,-1.5578267510139996
9.472499420011005,2.4443786612299667,8.018557881078651,-1.5938134265093018
9.496943206623305,2.438575897364191,8.002619746813558,-1.6304703081863858
9.521328965596947,2.433812041608694,7.986315043731694,-1.6677330522547815
9.545667086013033,2.4300379317431626,7.9696377132091465,-1.7055446981403006
9.569967465330464,2.4272117779735165,7.9525822662277434,-1.7438547426984217
9.5942395831102,2.425299118401411,7.935143718800759,-1.7826181777120158
9.618492574294214,2.4242728701617042,7.9173175370236395,-1.8217944774796353
9.642735302995831,2.4241134888171847,7.899099592248843,-1.8613465197330352
9.666976437884003,2.4248092509124284,7.880486127051513,-1.9012394193287536
9.691224530393127,2.4263566772667997,7.861473732858225,-1.941439250099386
9.715488097165794,2.4287611175638717,7.842059340357231,-1.9819116259560279
9.739775708341433,2.4320375199436404,7.822240224097671,-2.0226201079371124
9.76409608354087,2.4362114123947993,7.8020140230183,-2.0635243996893666
9.788458197664818,2.44132012538302,7.781378779021407,-2.1045782903697345
9.812871398918649,2.447414286693151,7.760332996117709,-2.145727302054803
9.83734554178558,2.4545596188922443,7.738875723097161,-2.186905999842864
9.861891137974503,2.4628390655847183,7.717006663098732,-2.228034929093959
9.88651952863035,2.472355262432356,7.694726313807792,-2.269017158889135
9.911243081254673,2.483233349450978,7.672036142218901,-2.3097344384314704
9.936075414749183,2.4956240878038143,7.648938797834586,-2.3500430201917704
9.961031655627222,2.509707191140556,7.625438367632668,-2.389769278671659
9.986128727538627,2.5256947009571507,7.6015406748459515,-2.4287053674066432
10.0113856745482,2.5438341189822906,7.577253621171885,-2.4666053214209
10.036824015738022,2.564410849265158,7.552587567957676,-2.503182239356701
10.062468124230673,2.587749294205737,7.52755574556411,-2.5381074754972235
10.088345617172731,2.614211697544943,7.502174670809137,-2.571013130278212
10.114487734148181,2.644193557440193,7.476464539506355,-2.6014995158207364
10.140929669722583,2.6781141997945817,7.450449544348148,-2.629149613480095
10.167710811720529,2.716401006764797,7.4241580482133465,-2.6535526924116923
10.194874821788176,2.759465991609778,7.39762252128923,-2.674339004909832
10.222469481704273,2.8076740938774387,7.370879131240131,-2.691226538221098
10.250546222643047,2.861303924396725,7.3439668658579205,-2.704078914852402
10.279159261887015,2.920503788689899,7.316926076709397,-2.7129705823591417
10.308364299773913,2.9852484616435357,7.289796370885806,-2.7182516839762174
10.33821678439035,3.0553047630542878,7.262613854046044,-2.7206013036543624
10.368769832020892,3.1302154575680925,7.2354078410095,-2.721055592681994
10.400071986596572,3.20931018664518,7.208197285082679,-2.720998308883243
10.432165088463023,3.2917482831389124,7.180987301993847,-2.722106649091907
10.465082571294412,3.376591782902052,7.1537662355029275,-2.7262544948380985
10.498848489123432,3.46289949955467,7.1265036905545465,-2.7353858848290047
10.533477484118979,3.549827323455739,7.0991498317062565,-2.751379927955743
10.568975757353536,3.6367182463103718,7.071636032426699,-2.7759311482375795
10.60534293981664,3.7231687006649192,7.043876720944324,-2.8104652869157314
10.64257462682329,3.8090643522051106,7.015772068075166,-2.8561015790270026
10.68066527034534,3.894585963544014,6.987211052284896,-2.9136620097769685
10.71961112998078,3.9801919163952846,6.958074432187126,-2.98371955943522
10.759413049144733,4.066587101311533,6.928237236592774,-3.066672979817459
10.800078920157848,4.1546881692314,6.897570506794599,-3.1628353370786937
10.841625801850162,4.245593498239616,6.865942153423812,-3.2725262195441585
10.884081736832558,4.340563826140824,6.83321689122837,-3.396161560554512
10.927487375093966,4.441017274619597,6.7992552756228255,-3.5343391752577267
10.971897547840161,4.5485409820669345,6.763911883870248,-3.6879216467976295
11.01738295766083,4.664920953740864,6.7270326674022725,-3.8581209499353903
11.064032167198238,4.792191999807717,6.688451457902919,-4.0465913495553645
11.111954087196315,4.93271064947205,6.647985544407365,-4.255538993000793
11.161281193691035,5.089255569667501,6.605430154477357,-4.487858555665389
11.212173749387711,5.265162096599227,6.560551568920704,-4.747309451177143
11.264825370353703,5.4644995788660005,6.513078474408932,-5.038746155053111
11.319470366142363,5.692301096354744,6.462691012858401,-5.368417544634746
11.376393377105911,5.954851234312425,6.409006837412053,-5.74434397794837
11.435941889449035,6.260019235497226,6.351563397632569,-6.176754559216688
11.498542081804008,6.617565800104013,6.2897958520404025,-6.678483996112151
11.564717739805047,7.0391824441245845,6.223011012079281,-7.264991200164526
11.635109564246294,7.53756306054936,6.150361100077636,-7.953018614623758
11.710485194851788,8.122629993531111,6.070830913931399,-8.75526129100755
11.7917114947871,8.790357064741665,5.983278301021324,-9.664654785599902
11.879615065434516,9.495488119799942,5.886631753165325,-10.6160671421913
11.974569946632515,10.103414774950219,5.780471081743412,-11.418723652238087
12.075604094382017,10.37007609989197,5.666283845221032,-11.727928851915175
12.179304855380936,10.1031901625153,5.54900455670188,-11.271184947727408
12.280336757006088,9.43415386724164,5.436292707224606,-10.229150025970846
12.374678295678505,8.682487850039344,5.334001206964897,-9.045795698209899
12.4615031741789,8.03096421399714,5.243543249982799,-7.974780044152769
12.54181281631887,7.5152358250230336,5.163795449541271,-7.065088660486888
12.616965174569101,7.118998723336331,5.093144562936402,-6.293338445035689
12.688155161802465,6.818451191573482,5.030211178486045,-5.625491526927084
