th1 (rad),w1 (rad/s),th2 (rad),w2 (rad/s)
2.614247504852447,-1.5427696774147284,5.571894886561576,-3.053108564542507
2.5988198080783,-1.5649952326196999,5.541363800916151,-3.015337112439463
2.5831698557521032,-1.5872264459144456,5.511210429791756,-2.975760436784237
2.567297591292959,-1.6097107477367194,5.481452825423914,-2.93471312090812
2.5512004838155917,-1.6326851652376257,5.452105694214833,-2.8925194178401803
2.5348736321632153,-1.6563750610091508,5.423180500036431,-2.8494919452536527
2.5183098815531237,-1.6809933105509804,5.394685580583895,-2.8059308834696557
2.501499948447614,-1.7067398679840264,5.366626271749198,-2.7621236116919095
2.484432549767774,-1.7338016652366333,5.33900503563228,-2.7183447141045622
2.4670945331154077,-1.7623527887582409,5.311821588491234,-2.674856287312057
2.4494710052278252,-1.792554879025003,5.285073025618113,-2.631908482962267
2.431545456437575,-1.8245577010015308,5.25875394078849,-2.5897402234662836
2.41329987942756,-1.8584998376988737,5.232856538553827,-2.5485800338099014
2.394714881050571,-1.8945094635053985,5.207370738215729,-2.508646937965327
2.375769786415517,-1.9327051586529573,5.182284268836075,-2.4701513739038563
2.356442734828988,-1.9731967307049132,5.157582755097037,-2.4332960863449813
2.3367107675219385,-2.016086013095324,5.1332497942335875,-2.398276960921138
2.316549907390985,-2.0614676143680035,5.109267024624376,-2.3652837672434375
2.2959352312473054,-2.109429594782693,5.085614186951942,-2.3345007813460588
2.2748409352994785,-2.1600540493468974,5.062269179138481,-2.3061072601453976
2.2532403948060096,-2.2134175781098295,5.039208106537027,-2.280277741898389
2.231106219024911,-2.2695916257637943,5.016405329118043,-2.2571821472413593
2.2084103027672732,-2.328642673306614,4.993833507645629,-2.2369856553237604
2.185123876034207,-2.3906322648135054,4.9714636510923915,-2.2198483289329363
2.161217553386072,-2.455616852351341,4.949265167803063,-2.205924461473807
2.1366613848625584,-2.5236474418598824,4.927205923188325,-2.1953616173833383
2.1114249104439597,-2.5947690225545683,4.905252307014491,-2.188299336213823
2.085477220218414,-2.6690197622186407,4.883369313652353,-2.184867469431744
2.0587870225962277,-2.7464299508072436,4.861520638958035,-2.1851841182041634
2.0313227230881554,-2.8270206752539857,4.839668797775994,-2.189353140371679
2.0030525163356154,-2.910802209433571,4.817775266372277,-2.1974611957610963
1.9739444942412798,-2.997772105082042,4.795800654414666,-2.2095743013305555
1.9439667731904593,-3.087912972299767,4.773704911401361,-2.2257338717499295
1.9130876434674615,-3.1811899422451613,4.751447572683862,-2.2459522273007573
1.8812757440450099,-3.2775478099345086,4.728988050410854,-2.270207559832781
1.8485002659456649,-3.376907861828828,4.706285974812527,-2.2984383593162874
1.8147311873273766,-3.4791644012005123,4.683301591219364,-2.330537318610817
1.7799395433153715,-3.584180994159689,4.659996218033256,-2.366344752685538
1.7440977333737746,-3.6917864706444203,4.6363327705064,-2.4056415908265145
1.7071798686673305,-3.801770727532727,4.612276354598135,-2.4481420263809675
1.6691621613920034,-3.9138803951536674,4.587794934334326,-2.493485938219055
1.6300233574404668,-4.0278144436670065,4.562860074952136,-2.541231231124149
1.5897452130037968,-4.143219821876391,4.537447762640895,-2.5908462784600848
1.5483130147850328,-4.2596872379651565,4.5115392998562935,-2.641702689405558
1.5057161424053813,-4.376747209511695,4.485122272962238,-2.693068664572053
1.4619486703102644,-4.493866529361009,4.458191586316517,-2.744103247901764
1.4170100050166543,-4.610445315299065,4.4307505538375,-2.7938518296259818
1.3709055518636637,-4.72581483624535,4.40281203554124,-2.841243305317511
1.3236474035012102,-4.839236337525115,4.374399602488065,-2.8850893504867874
1.275255040125959,-4.949901124659978,4.3455487089831975,-2.9240863294859616
1.2257560288793592,-5.056932210895756,4.316307845688338,-2.9568204217928504
1.1751867067704016,-5.159387889528334,4.28673964147041,-2.9817766165303285
1.1235928278751182,-5.256267657464708,4.256921875305107,-2.9973522927796874
1.0710301513004712,-5.346520987800844,4.22694835237731,-3.0018761593816046
1.0175649414224628,-5.429059518199208,4.196929590783494,-2.993633356837718
0.9632743462404707,-5.502773273540051,4.1669932572151165,-2.97089749958898
0.9082466135050702,-5.566551552329176,4.137284282219227,-2.931970322356887
0.8525810979817784,-5.619309043968349,4.107964578995658,-2.875229341650887
0.7963880075420949,-5.660017567170094,4.079212285579149,-2.7991834980850747
0.739787831870394,-5.687743483409807,4.051220450598298,-2.7025360537244896
0.682910397036296,-5.701690303418971,4.0241950900610535,-2.5842530461295894
0.6258934940021063,-5.701245249841733,3.9983525595997578,-2.4436343537609058
0.5688810415036889,-5.686027587038981,3.9739162160621486,-2.2803829839221765
0.5120207656332991,-5.655935465248575,3.9511123862229267,-2.0946667316117993
0.4554614109808134,-5.611187016870446,3.930165718906809,-1.8871651649028278
0.39934954081210894,-5.552350731865723,3.9112940672577805,-1.6590943517523682
0.3438260334934517,-5.480360016134266,3.894703123740257,-1.4122022602767208
0.28902243333210903,-5.396507562690983,3.8805811011374898,-1.1487296478573699
0.2350573577051992,-5.302416872591064,3.8690938046589163,-0.871334563261916
0.18203318897928855,-5.199990853569538,3.860380459026297,-0.5829830027588888
0.13003328044359316,-5.0913405228653845,3.8545506289987084,-0.2868130606515266
0.07911987521493932,-4.978699837106982,3.851682498392193,0.014015913560398607
0.029332876843869503,-4.864334877083544,3.851822657527797,0.31647511657815286
-0.019310471926965937,-4.750456477950921,3.8549874086935785,0.6178048367484454
-0.06681503670647515,-4.63914469909792,3.861165457061063,0.915627796735822
-0.11320648369745434,-4.53229147116157,3.8703217350284214,1.2080295204727163
-0.15852939840907004,-4.431564881312435,3.8824020302331483,1.4936030283316895
-0.2028450472221944,-4.338395551714316,3.897338060516465,1.7714600207252436
-0.24622900273933757,-4.253983045862011,3.9150526607237177,2.0412144473524014
-0.28876883319795765,-4.179318585231939,3.935464805197242,2.302946515981257
-0.33056201905027705,-4.115219672954794,3.9584942703570545,2.5571557727093883
-0.371714215779825,-4.06237236824757,3.9840658280841486,2.804711225082884
-0.4123379394623007,-4.021377672033697,4.012112940334977,3.04680507079155
-0.4525517161826377,-3.992799480744811,4.042580991042892,3.284914909652176
-0.4924797109900858,-3.9772125932757643,4.075430140139414,3.5207777011144827
-0.5322518369228435,-3.975250131389939,4.110637917150559,3.7563773604226167
-0.5720043382367429,-3.9876503198738398,4.148201690754785,3.993946767099819
-0.6118808414354813,-4.015302730406174,4.1881411584257835,4.23598391656024
-0.652033868739543,-4.059293596684671,4.230500997591386,4.48528058799485
-0.6926268047063897,-4.120948204772613,4.275353803471334,4.744959486083442
-0.7338362867541158,-4.201864720670612,4.3228033983321685,5.01851093798604
-0.775854933960822,-4.30392625961381,4.372988507712029,5.309810198081676
-0.81889419655696,-4.429262838038906,4.426086609692846,5.623076042345835
-0.8631868249373491,-4.580105074437235,4.482317370116305,5.962690821881155
-0.9089878756817215,-4.758414690483133,4.541944278335117,6.332724068293052
-0.9565720225865528,-4.965074255074158,4.605271519018047,6.73585962709077
-1.0062227651372944,-5.198254808720736,4.672630115288955,7.17119773611106
-1.0582053132245017,-5.4503973413605635,4.744342092650066,7.630145387133217
-1.1127092866381074,-5.703331819069773,4.820643546521398,8.089720425358575
-1.169742604828805,-5.922369506667809,4.901540750774984,8.50440394584654
-1.2289662998954831,-6.05441238977173,4.98658479023345,8.803513957633616
-1.2895104237932005,-6.041031091755887,5.074619929809786,8.909275333543436
-1.3499207347107594,-5.851720883206242,5.16371268314522,8.782717734602668
-1.4084379435428218,-5.5117395078773335,5.251539860491246,8.461696460912654
-1.4635553386215951,-5.086678214457889,5.336156825100373,8.038774141347622
-1.514422120766174,-4.639726905023967,5.416544566513849,7.601893627019402
-1.5608193898164138,-4.208369856489579,5.492563502784043,7.202712130395888
-1.6029030883813096,-3.8071547160640224,5.5645906240880025,6.861074895174711
-1.6409746355419499,-3.437895244048138,5.63320137303975,6.5794342243444675
-1.6753535879824313,-3.0970780322030294,5.6989957152831945,6.353145521084001
-1.7063243683044615,-2.7796084133250853,5.762527170494034,6.175601636275605
-1.7341204524377125,-2.480376209815602,5.824283186856791,6.040333647682267
-1.7589242145358686,-2.194798153493872,5.884686523333613,5.941702622259137
-1.7808721960708074,-1.9189367457973294,5.944103549556204,5.875014585236332
-1.8000615635287807,-1.649464259289227,6.002853695408567,5.836427086077991
-1.816556206121673,-1.3835833338391992,6.061217966269347,5.822797640017249
-1.8303920394600648,-1.1189472072109565,6.11944594266952,5.831530414818972
-1.8415815115321743,-0.8535942290627636,6.17776124681771,5.86043914801823
-1.850117453822802,-0.5859000206298532,6.236365638297892,5.907629492066873
-1.8559764540291006,-0.31454642586091747,6.2954419332185605,5.9713989521603414
-1.8591219182877097,-0.038504978233877385,6.355155922740164,6.050151480109008
-1.8595069680700484,0.24296781624919406,6.415657437541254,6.142324210947071
-1.8570772899075565,0.5303262457413027,6.477080679650725,6.246324799047379
-1.8517740274501435,0.8237252680156699,6.539543927641199,6.360478930669542
-1.843536774769987,1.123007850510119,6.603148716947894,6.482988682240702
-1.8323066962648857,1.4276934988517516,6.667978603770301,6.611903342286964
-1.8180297612763683,1.7369720353713234,6.7340976371931704,6.745104999708388
-1.800660040922655,2.0497068434160894,6.801548687190254,6.8803114780465
-1.780162972488494,2.36445158157417,6.8703518019707195,7.015098908031228
-1.7565184566727523,2.679483616501143,6.940502791051032,7.1469452476006365
-1.7297236205077409,2.9928560034747966,7.011972243527039,7.273294331678719
-1.699795060472993,3.30246776029601,7.084705186843826,7.39163766377921
-1.6667703828700329,3.6061496090622374,7.158621563481618,7.4996084447342515
-1.6307088867794104,3.9017596739058393,7.233617647928961,7.5950797620591874
-1.591691290040352,4.187281345772643,7.309568445549552,7.67625704672048
-1.5498184765826255,4.460914218537038,7.386331016016757,7.741754418647411
-1.505209334397255,4.721149093784941,7.463748560203231,7.790645739290728
-1.4579978434594056,4.966819680926128,7.541655017596138,7.822484035618625
-1.4083296466501443,5.19712654275014,7.619879857952324,7.837286988403435
-1.356358381222643,5.411632473759696,7.698252727836358,7.8354905907908075
-1.302242056485046,5.610232094372761,7.776607633744266,7.817876981187347
-1.2461397355413184,5.793101293190968,7.854786403556139,7.785485103126962
-1.1882087226094087,5.9606337930980455,7.932641254587409,7.73951387387117
-1.1286023846784283,6.113372437123358,8.010036393326121,7.681227005561649
-1.0674686603071948,6.251941982087168,8.086848663381739,7.611866907700681
-1.0049492404863232,6.376988643119633,8.162967332458745,7.532582763313565
-0.9411793540551269,6.489129791479075,8.23829316009188,7.44437545604483
-0.8762880561403361,6.588915444899823,8.312736914652328,7.348059936338174
-0.8103989016913379,6.6768017466889145,8.38621751401571,7.244244069865234
-0.7436308842244488,6.753135611715446,8.458659954714362,7.133322058078545
-0.6760995281072943,6.818149119922036,8.529993175295147,7.0154800879187
-0.607918036908074,6.871961990159109,8.600147976174334,6.890711824152047
-0.539198417006483,6.914590471113193,8.669055094415855,6.758841560246259
-0.47005251229535105,6.945961144961051,8.736643510018318,6.619553166332316
-0.40059290084574056,6.965928372374059,8.802839041681642,6.4724233203182715
-0.330933617122,6.974294355025127,8.867563274884825,6.3169578168959175
-0.2611906735717487,6.970831014097564,8.930732853053783,6.152629981881992
-0.19148236343077304,6.955303056519996,8.992259152872602,5.978920358566895
-0.12192933286557309,6.9274917120864945,9.052048356458272,5.79535687448091
-0.05265441574470814,6.887218669373034,9.11000192520308,5.601554646556992
0.0162177709490222,6.834369717399901,9.16601747166865,5.397254452978634
0.0845614681230212,6.768917519855283,9.219990016198437,5.182358711767044
0.15225064332157404,6.690942822454945,9.271813603316108,4.956963589313226
0.2191600715461235,6.6006532427577955,9.32138323920924,4.721385657143942
0.2851666039737014,6.498398645647902,9.368597095780679,4.476181373320445
0.35015059043018043,6.384682005365767,9.413358909513883,4.222157644553025
0.4139974104838381,6.2601646401617375,9.455580485959414,3.96037188502296
0.47659905688545545,6.1256648203572786,9.495184204809643,3.692120374900823
0.5378557050890282,5.982149025138012,9.532105408558651,3.4189143556406445
0.5976771953404084,5.8307155650082185,9.566294552115059,3.142444158597167
0.6559843509904906,5.672570870173229,9.59771899370103,2.864532675416901
0.7127100596922229,5.5089994086124126,9.626364320455199,2.5870805202115523
0.767800053778347,5.341328849059992,9.652235125657315,2.3120061480346106
0.8212133422689469,5.17089261654781,9.675355187137662,2.0411848208185686
0.872922268434425,4.998992303232437,9.695767035345847,1.776390523136341
0.9229121914667494,4.826862429868987,9.713530940577211,1.5192446659162322
0.9711808157654392,4.655639789751331,9.728723387236373,1.2711747036017442
1.0177372136629526,4.486339089696821,9.741435134272391,1.03338474032945
1.0626006045599208,4.319835920218607,9.751768981675687,0.8068389832244929
1.1057989637621068,4.156857351904181,9.759837371507931,0.5922577041760729
1.1473675372811487,3.997979777237086,9.765759948549691,0.3901243605368034
1.1873473350535195,3.8436330815370088,9.76966119215506,0.2007018107924384
1.2257836658688896,3.6941098800733463,9.771668210262984,0.024055186418322855
1.2627247646696231,3.5495784077433794,9.771908762127167,-0.13992107376682242
1.2982205487470568,3.410097668060013,9.770509551389498,-0.29147431986094263
1.332321525427657,3.275633595371055,9.76759480819089,-0.4309648410424403
1.3650778613813677,3.1460752078855934,9.763285159780464,-0.5588385408691988
1.3965386134602236,3.0212499830088473,9.757696774371773,-0.6756021476750723
1.4267511132903121,2.9009379347240776,9.750940752895023,-0.781801551356424
1.455760492637553,2.784884091678287,9.743122737381459,-0.8780035115280372
1.4836093335543359,2.6728092520783857,9.734342702266177,-0.9647807191127982
1.5103374260751197,2.564419024354357,9.72469489507505,-1.0427000114632539
1.5359816163186633,2.4594112537267483,9.714267894960418,-1.1123134295111003
1.5605757288559308,2.357481990618096,9.703144760665307,-1.1741517499491516
1.5841505487621117,2.2583301848318906,9.691403243165816,-1.2287201113273694
1.6067338506104305,2.161661297020909,9.679116042052542,-1.2764953668883716
1.6283504635806396,2.06719001269494,9.666351088383658,-1.3179248280404694
1.649022363707589,1.9746422291414192,9.653171840103253,-1.353426102221178
1.668768785999003,1.883756466131028,9.639637579081041,-1.383387771598768
1.6876063506603134,1.7942848299807306,9.625803701365054,-1.408170700667044
1.7055491989601208,1.7059936393294572,9.611721994358383,-1.428109798952453
1.7226091353534154,1.618663801001147,9.597440896368859,-1.443516098565525
1.738795773363427,1.5320910062160893,9.583005735383203,-1.4546790347772098
1.754116683425588,1.4460858014372828,9.568458945035431,-1.4618688412863425
1.7685775414399607,1.3604735743498295,9.553840256622568,-1.465338990777242
1.782182277183459,1.275094483782891,9.539186866714795,-1.465328626319381
1.794933222021288,1.189803352645083,9.524533580451601,-1.4620649407728579
1.8068312555477388,1.1044695349828808,9.509912931043873,-1.4557654702755407
1.8178759508975677,1.018976761918163,9.495355276341117,-1.4466402747059524
1.8280657185167493,0.9332229663209665,9.480888873594058,-1.4348939832871854
1.837397948179959,0.8471200824903584,9.466539933761187,-1.4207276876963981
1.8458691490048624,0.7605938147284284,9.452332656884222,-1.404340668567402
1.8534750871521468,0.6735833673864084,9.438289250198547,-1.3859319444328972
1.860210920826011,0.5860411286250319,9.424429930754219,-1.3657016351758404
1.8660713321122613,0.49793230064364463,9.410772914402461,-1.3438521350906292
1.8710506551186978,0.40923447036217375,9.397334393051555,-1.3205890937593405
1.8751429998223195,0.319937116339808,9.384128502113962,-1.2961222061195488
1.8783423709857177,0.23004104992341703,9.371167280052767,-1.2706658162714546
1.8806427814849518,0.13955779106769162,9.358460621890051,-1.2444393426315012
1.8820383593956287,0.04850888178734267,9.346016228463736,-1.217667534849202
1.882523448213502,-0.04307485737123545,9.333839553115244,-1.1905805753193526
1.8820926996397898,-0.13515412025534373,9.321933747362051,-1.1634140400130635
1.8807411584372362,-0.22768194798789668,9.31029960696192,-1.1364087346202847
1.8784643389573572,-0.3206045909158411,9.298935519615716,-1.1098104225918772
1.8752582930481987,-0.4138623877172878,9.287837415389797,-1.0838694615927131
1.871119669171026,-0.5073906491541766,9.27699872077387,-1.0588403641849533
1.8660457626794842,-0.6011205337062862,9.26641031713202,-1.0349812973564896
1.8600345573424213,-0.6949799023388211,9.256060504158455,-1.0125535339322282
1.853084758319033,-0.7888941398365307,9.245934968819133,-0.9918208671113689
1.8451958169206677,-0.882786930377318,9.23601676014802,-0.9730489975156584
1.8363679476168946,-0.9765809752247894,9.226286270172864,-0.9565049003438615
1.8266021378646466,-1.0701986405234187,9.216721221169426,-0.9424561786011771
1.8159001514594124,-1.1635625231457012,9.207296659383413,-0.9311704069559242
1.8042645262279553,-1.256595922367768,9.197984955313855,-0.9229144695646655
1.7916985670042775,-1.3492232048736454,9.188755810618208,-0.9179538941477273
1.778206334955541,-1.4413700502736457,9.17957627167673,-0.9165521835979241
1.7637926344528045,-1.5329635640552564,9.17041074984075,-0.9189701453509502
1.748462998812252,-1.6239322447613982,9.16122104838724,-0.9254652175162155
1.732223676364638,-1.71420579230602,9.151966396212078,-0.9362907892562339
1.7150816184415778,-1.8037147447745916,9.142603488319516,-0.9516955110380649
1.697044470993832,-1.89238993188277,9.133086533209134,-0.9719225881361413
1.6781205716750043,-1.9801617345239761,9.123367307327772,-0.9972090481738347
1.6583189543297645,-2.06695914154783,9.113395216846033,-1.0277849706447348
1.6376493629142863,-2.1527085970808786,9.103117367139586,-1.0638726634078566
1.6161222769434775,-2.237332634322934,9.092478640505506,-1.1056857683125292
1.5937489506002482,-2.3207482948194262,9.081421782822382,-1.153428275632319
1.570541467652054,-2.402865335723088,9.06988750006606,-1.2072934251602871
1.546512814294823,-2.4835842315337673,9.057814565814457,-1.2674624709485285
1.5216769719794854,-2.562793981281213,9.045139941104972,-1.3341032870808078
1.4960490321666733,-2.640369737153209,9.031798908234164,-1.407368793863928
1.4696453347951413,-2.7161702762508124,9.017725220295524,-1.4873951877153462
1.442483632032633,-2.790035343564676,9.002851268418372,-1.574299964094478
1.4145832785969863,-2.8617829014989637,8.987108268777426,-1.6681797313249676
1.3859654495819966,-2.9312063293861055,8.970426471464176,-1.7691078242934617
1.3566533862881356,-2.9980716254524378,8.952735393221241,-1.8771317409366344
1.3266726700336111,-3.062114673550325,8.933964075811875,-1.9922704412123582
1.2960515232981078,-3.1230386474962333,8.914041371399751,-2.114511567857433
1.2648211368231455,-3.180511636733554,8.892896255721176,-2.2438086704906617
1.2330160204558098,-3.2341645877855454,8.870458169016269,-2.3800785391811994
1.2006743745779545,-3.283589665885294,8.846657383624457,-2.523198779913096
1.1678384779191016,-3.3283391493481873,8.821425395825326,-2.673005791638282
1.1345550864256198,-3.367924974535606,8.794695337908943,-2.8292933317508693
1.1008758366802638,-3.401819050268774,8.766402404591433,-2.9918118824812403
1.066857646177576,-3.4294544557203848,8.736484285766622,-3.160269053272661
1.0325631016203722,-3.4502276234458478,8.704881595233894,-3.334331271811404
