th1 (rad),w1 (rad/s),th2 (rad),w2 (rad/s),a1 (rad/s^2),a2 (rad/s^2)
2.575466646401559,-0.2421147174738124,3.4930241769599206,1.3887007664592106,-6.747941667616757,7.428162230247962
2.573045499226821,-0.30959413414998,3.5069111846245127,1.4629823887616902,-6.601783085834493,7.350247006048444
2.569949557885321,-0.37561196500832494,3.5215410085121297,1.5364848588221747,-6.4481089800153555,7.262063983355085
2.5661934382352376,-0.4400930548084785,3.5369058571003515,1.6091054986557256,-6.287430914087551,7.164695663723352
2.561792507687153,-0.502967363949354,3.552996912086909,1.6807524552929591,-6.120343242564568,7.0593322476662745
2.5567628340476594,-0.5641707963749997,3.5698044366398385,1.751345777769622,-5.947514641130968,6.9472631503790545
2.5511211260839093,-0.6236459427863094,3.587317894417535,1.8208184092734125,-5.769676186305163,6.829863861085856
2.544884666656046,-0.681342704649361,3.6055260785102687,1.8891170478842711,-5.587606542190095,6.708578919392717
2.5380712396095526,-0.7372187700712619,3.6244172489891113,1.9562028370781983,-5.402114996997376,6.584902031172906
2.53069905190884,-0.7912399200412357,3.643979277359893,2.0220518573899273,-5.214023208979497,6.46035450064355
2.5227866527084277,-0.8433801521310307,3.664199795933792,2.086655402396363,-5.0241465646012555,6.336463206011792
2.5143528511871174,-0.8936216177770432,3.6850663499577556,2.150020034456481,-4.833276023571893,6.214739296405107
2.5054166350093467,-0.9419543780127622,3.7065665503023206,2.212167427420532,-4.642161235573677,6.09665865088424
2.4959970912292193,-0.9883759903684989,3.728688224576526,2.2731340139293743,-4.451495577609343,5.983644936714915
2.486113331325534,-1.0328909461445923,3.7514195647158197,2.3329704632965234,-4.261903597486538,5.877055858238379
2.475784421864088,-1.0755099821194576,3.774749269348785,2.3917410218789072,-4.073931177359205,5.778172924459055
2.4650293220428936,-1.1162492938930497,3.798666679567574,2.4495227511234976,-3.888038569213582,5.688194804856107
2.453866829103963,-1.1551296795851855,3.823161907078809,2.5064046991720588,-3.7045963163732916,5.60823410575909
2.442315532308111,-1.1921756427489185,3.84822595407053,2.56248704022965,-3.5238839722546715,5.539317194271224
2.430393775880622,-1.2274144824714652,3.8738508244728265,2.617880212172362,-3.3460914665345047,5.48238652673392
2.4181196310559074,-1.2608753971368103,3.90002962659455,2.6727040774397013,-3.171322953040821,5.438304801283789
2.4055108770845393,-1.2925886266672184,3.926756667368947,2.727087125452539,-2.9996030041358703,5.407860140869468
2.392584990817867,-1.322584656708577,3.9540275386234724,2.7811657268612335,-2.8308850931067635,5.3917714114894615
2.3793591442507815,-1.3508935076396447,3.9818391958920847,2.835083440976128,-2.6650624292551095,5.390692674306551
2.365850209174385,-1.3775441319321957,4.010190030301846,2.8889903677191935,-2.5019813814720533,5.405215640952839
2.352074767855063,-1.4025639457469163,4.039079933979038,2.943042524128722,-2.341457948932769,5.435868827781738
2.3380491283975937,-1.425978525236244,4.068510359220325,2.9974012124065395,-2.183298019049609,5.48311186395923
2.3237893431452314,-1.4478115054267402,4.098484371344391,3.052232331046132,-2.027322503322733,5.54732307495226
2.309311228090964,-1.4680847304599676,4.129006694654852,3.1077055617956546,-1.873398874797929,5.628778010207303
2.2946303807863644,-1.486818719207947,4.1600837502728085,3.1639933418977275,-1.7214811621948194,5.727615983992065
2.279762193594285,-1.504033530829895,4.1917236836917855,3.2212695017376483,-1.5716611005732226,5.843790926188579
2.264721858285986,-1.5197501418356274,4.223936378709162,3.279707410999534,-1.4242339058730396,5.97700187877338
2.2495243568676297,-1.5339924808943577,4.256733452819157,3.339477429787268,-1.2797830239775874,6.126597328768718
2.234184432058686,-1.5467903111341335,4.290128227117029,3.400743403074955,-1.1392891634746205,6.291446289073966
2.2187165289473447,-1.5581832027688796,4.324135661147779,3.4636578659656947,-1.0042698504470255,6.46976775849232
2.203134696919656,-1.5682259012733497,4.358772239807436,3.5283555435506178,-0.8769564260013666,6.658909194685296
2.1874524379069227,-1.5769954655333633,4.394055795242942,3.5949446354974706,-0.7605154368695294,6.855064453596604
2.171682483251589,-1.5846006199020586,4.430005241597917,3.6634952800334366,-0.6593200415341236,7.052923222711133
2.1558364770525684,-1.5911938203173999,4.466640194398251,3.734024512260548,-0.5792732189214439,7.245248843387665
2.1399245388493946,-1.5969865525066143,4.5039804395208565,3.8064770006944246,-0.5281764636690626,7.422391954138426
2.1239546733243286,-1.602268317143305,4.5420452095278,3.880700920235809,-0.5161227925619822,7.571766977944752
2.1079319901528955,-1.6074295450689249,4.580852218730159,3.9564185900152564,-0.5558681409366921,7.67735142856419
2.091857694702206,-1.6129882264782918,4.620416404630311,4.033192104300898,-0.6630974411571151,7.719318755910514
2.075727812437423,-1.6196192008898629,4.66074832567332,4.110385291860004,-0.8564493640047033,7.67398630418075
2.059531620428525,-1.62818369452991,4.7018521785919205,4.187125154901811,-1.1571005597887385,7.514346414042371
2.0432497834832257,-1.6397547001277974,4.743723430140939,4.262268619042235,-1.587650965746349,7.21153151905205
2.0268522364819477,-1.655631209785261,4.786346116331361,4.334383934232756,-2.170029452568466,6.7375991390986725
2.010295924384095,-1.6773315043109456,4.829689955673689,4.401759925623742,-2.922209963232139,6.069934187738277
1.9935226093409857,-1.706553603943267,4.8737075549299265,4.462459267501125,-3.853763665721209,5.197256672929943
1.976457073301553,-1.745091240600479,4.9183321476049375,4.514431834230424,-4.960723500622667,4.126620958131518
1.9590061608955482,-1.7946984756067057,4.963476465947242,4.55569804381174,-6.220863470753283,2.889947955562619
1.941059176139481,-1.8569071103142385,5.009033446385359,4.584597523367366,-7.591082110982752,1.5478273752381926
1.9224901050363388,-1.932817931424066,5.054879421619033,4.6000757971197475,-9.0087287094079,0.18809949455739527
1.9031619257220982,-2.022905218518145,5.10088017959023,4.601956792065321,-10.398007042237964,-1.0823604600354295
1.8829328735369169,-2.1268852889405245,5.146899747510883,4.591133187464967,-11.680961940115695,-2.1520650100342134
1.8616640206475117,-2.2436949083416815,5.192811079385533,4.569612537364625,-12.790574729072816,-2.9222901428730115
1.8392270715640948,-2.3716006556324096,5.238507204759179,4.540389635935895,-13.682244222146423,-3.322432283418208
1.8155110650077708,-2.508423097853874,5.283911101118537,4.507165313101713,-14.340288049598536,-3.3187916236321633
1.790426834029232,-2.6518259783498594,5.328982754249554,4.473977396865392,-14.777995087931972,-2.9147112556127612
1.7639085742457334,-2.799605929229179,5.373722528218208,4.444830284309264,-15.032143986367888,-2.143172406960993
1.7359125149534416,-2.949927369092858,5.418170831061301,4.4233985602396535,-15.154526832188061,-1.0551386827244003
1.706413241262513,-3.1014726374147386,5.462404816663697,4.412847173412409,-15.203293133974164,0.2926457941119887
1.6753985148883657,-3.25350556875448,5.506533288397821,4.415773631353529,-15.23613447635036,1.8477243345224212
1.6428634592008209,-3.4058669135179835,5.550691024711357,4.434250874698753,-15.306166718076096,3.5687249614254704
1.608804790065641,-3.5589285806987445,5.595033533458345,4.469938124313008,-15.460421337690342,5.429033309618414
1.5732155042586535,-3.7135327940756477,5.639732914701475,4.524228457409192,-15.740364227176963,7.418192559166994
1.536080176317897,-3.8709364363474172,5.684975199275567,4.5984103830008625,-16.18376680733311,9.54207044720641
1.497370811954423,-4.032774104420748,5.730959303105576,4.693831087472927,-16.82739583650931,11.822721336868035
1.4570430709102153,-4.2010480627858415,5.777897613980305,4.812058300841607,-17.71021399388593,14.298659715435669
1.4150325902823568,-4.378150202724701,5.826018196988721,4.955044897995964,-18.87700209033279,17.026071743022392
1.3712510882551099,-4.566920223628029,5.875568645968681,5.125305615426187,-20.382484908865102,20.08136563906479
1.3255818860188295,-4.77074507271668,5.926821702122942,5.326119271816835,-22.296144010887303,23.565377328402466
1.2778744352916627,-4.993706512825552,5.980082894841111,5.56177304510086,-24.70788335327946,27.609407441769946
1.227937370163407,-5.240785346358347,6.03570062529212,5.837867119518559,-27.73442151752638,32.38281699721686
1.1755295166998236,-5.518129561533611,6.094079296487306,6.161695289490727,-31.52526836895975,38.100496885290774
1.1203482210844875,-5.833382245223208,6.1556962493822125,6.542700258343635,-36.26417412060305,45.024415460082636
1.0620143986322554,-6.196023986429239,6.221123251965649,6.992944412944461,-42.15372211887983,53.442025271622526
1.000054158767963,-6.617561207618038,6.291052696095093,7.527364665660687,-49.348689865016205,63.57354605651275
0.9338785466917826,-7.1110481062682,6.3663263427517,8.163100126225814,-57.74719724932826,75.28092935657246
0.8627680656291006,-7.688520078761482,6.447957344013958,8.915909419791538,-66.41903255543338,87.26943264048279
0.7858828648414857,-8.352710404315816,6.537116438211874,9.788603746196365,-72.25317839684888,95.19463129860452
0.7023557607983275,-9.075242188284305,6.635002475673837,10.74055005918241,-67.68591200586827,88.47540322979879
0.6116033389154845,-9.752101308342988,6.742407976265661,11.625304091480398,-40.803209759254855,50.42245255939796
0.5140823258320546,-10.160133405935536,6.858661017180466,12.129528617074378,10.992518172924894,-22.63885600141603
0.41248099177269926,-10.050208224206287,6.9799563033512095,11.903140057060218,60.362788366074064,-92.55893950926247
0.3119789095306364,-9.446580340545546,7.098987703921812,10.977550661967594,77.9684431709832,-118.49946237360561
0.21751310612518093,-8.666895908835714,7.208763210541488,9.792556038231538,71.11402491336541,-110.70187994427852
0.1308441470368238,-7.95575565970206,7.306688770923803,8.685537238788752,57.494563753676864,-93.72719174959637
0.05128659043980319,-7.380810022165291,7.393544143311691,7.748265321292789,44.82321178649283,-78.22651446470263
-0.022521509781849733,-6.932577904300363,7.471026796524619,6.966000176645762,34.61010160207123,-66.26887106835667
-0.09184728882485337,-6.58647688827965,7.540686798291077,6.303311465962196,26.592783633710017,-57.486181926285305
-0.15771205770764987,-6.32054905194255,7.603719912950699,5.728449646699342,20.239811695229534,-51.14359220346331
-0.22091754822707538,-6.118150934990254,7.661004409417693,5.217013724664709,15.09961698711022,-46.61341630569864
-0.2820990575769779,-5.967154765119152,7.71317454666434,4.750879561607723,10.843189763287654,-43.42815542618118
-0.34177060522816943,-5.858722867486275,7.760683342280418,4.316598007345911,7.243163942590667,-41.24661275093655
-0.4003578339030322,-5.786291228060368,7.8038493223538765,3.904131879836546,4.1478649878850105,-39.813219128594014
-0.4582207461836359,-5.744812578181518,7.842890641152242,3.505999688550606,1.4614991290012296,-38.92589568107637
-0.5156688719654511,-5.730197586891506,7.877950638037748,3.116740731739842,-0.8694241173876669,-38.413034164186556
-0.5729708478343661,-5.738891828065382,7.909118045355147,2.7326103900979763,-2.8654175088427998,-38.11783449594946
-0.63035976611502,-5.76754600315381,7.936444149256126,2.351432045138482,-4.521102080367497,-37.88866904634287
-0.6880352261465581,-5.812757023957485,7.959958469707511,1.972545354675053,-5.811722403299107,-37.574913769719075
-0.7461627963861329,-5.870874247990477,7.979683923254262,1.5967962169778622,-6.700333498240484,-37.028154468710284
-0.8048715388660377,-5.937877582972882,7.99565188542404,1.2265146722907594,-7.146347685877368,-36.10862592696228
-0.8642503146957665,-6.009341059831655,8.007917032146947,0.8654284130211365,-7.115383491459468,-34.69610982488078
-0.924343725294083,-6.08049489474625,8.016571316277158,0.5184673147723287,-6.589476728287953,-32.703433024613496
-0.9851486742415455,-6.146389662029129,8.021755989424882,0.19143298452619367,-5.575932542990064,-30.089565725672344
-1.0466125708618368,-6.20214898745903,8.023670319270144,-0.10946267273052979,-4.112777560168434,-26.86872326082535
-1.1086340607364271,-6.243276763060715,8.022575692542839,-0.3781499053387833,-2.269205848972965,-23.11237034856356
-1.1710668283670342,-6.2659688215504445,8.018794193489452,-0.6092736088244188,-0.14058395322450346,-18.942718837176606
-1.2337265165825386,-6.267374661082689,8.012701457401208,-0.7987007971961849,2.1609352182425843,-14.518664354953504
-1.2964002631933655,-6.245765308900263,8.004714449429246,-0.94388744074572,4.517986778752203,-10.017161776112298
-1.3588579162823682,-6.200585441112741,7.995275575021789,-1.044059058506843,6.819219480662267,-5.61395639515088
-1.4208637706934957,-6.132393246306118,7.98483498443672,-1.1001986224583518,8.968165494965213,-1.4671394344688642
-1.482187703156557,-6.042711591356466,7.973832998212137,-1.1148700168030403,10.88877009133013,2.294380510798387
-1.5426148190701217,-5.933823890443165,7.962684298044106,-1.0919262116950565,12.527606609939973,5.576967537363922
-1.6019530579745533,-5.808547824343765,7.9517650359271554,-1.0361565363214174,13.853451249629453,8.323560594930232
-1.660038536217991,-5.6700133118474705,7.941403470563941,-0.952920930372115,14.85510539921423,10.511401200850107
-1.7167386693364657,-5.521462257855328,7.931874261260219,-0.8478069183636139,15.538255631923686,12.147458243155807
-1.771953291915019,-5.366079701536091,7.923396192076583,-0.7263323359320558,15.921937668123062,13.262611861985796
-1.8256140889303798,-5.20686032485486,7.916132868717263,-0.5937062173121979,16.03495957555116,13.905387586344094
-1.8776826921789285,-5.0465107290993485,7.910195806544141,-0.4546523414487569,15.912500240672038,14.13580716905386
-1.9281477994699219,-4.887385726692628,7.905649283129653,-0.3132942697582183,15.59302793567696,14.019763104158043
-1.9770216567368482,-4.7314554473358585,7.902516340432071,-0.17309663871663786,15.11564907335545,13.624204722038494
-2.0243362112102066,-4.580298956602304,7.900785374044905,-0.03685459149625292,14.517968651568662,13.01331621947637
-2.0701392007762296,-4.435119270086617,7.900416828129942,0.09327857069851078,13.83450625030206,12.245758536834728
-2.1144903934770958,-4.296774207583597,7.901349613836928,0.2157361560668581,13.095665138892045,11.372942715795604
-2.1574581355529316,-4.165817556194676,7.903506975397597,0.3294655832248141,12.327206184205021,10.438215756212092
-2.1991163111148784,-4.042545494352625,7.906801631229845,0.43384774078693505,11.550142812908348,9.476782797428815
-2.2395417660584047,-3.9270440662235417,7.911140108637714,0.5286155687612232,10.780954138440519,8.516165888742796
-2.27881220672064,-3.8192345248391364,7.9164262643253265,0.6137772276486512,10.032010964634107,7.577005846285748
-2.317004551969031,-3.7189144151927955,7.922564036601813,0.6895472861115086,9.312120099308428,6.674040744122984
-2.354193696120959,-3.625793214199711,7.929459509462927,0.7562876935527385,8.627110863573897,5.817132126282053
-2.390451628262956,-3.539522105563972,7.937022386398455,0.814459014815559,7.980408704034704,5.012249248580152
-2.425846849318596,-3.459718018523625,7.945166976546611,0.8645815073013605,7.373560596341004,4.262356646315208
-2.460444029503832,-3.3859824125602147,7.953812791619625,0.9072050737645126,6.806693303652848,3.568178118499686
-2.494303853629434,-3.3179154795236863,7.96288484235727,0.9428868549495095,6.278897756159796,2.928830166302096
-2.527483008424671,-3.2551265019620885,7.972313710906765,0.9721751566125305,5.788541024947949,2.3423307970152627
-2.5600342734442916,-3.197241091712609,7.982035462472891,0.9955984645826832,5.3335122480754835,1.8059968414267193
-2.592006684361418,-3.143905969231854,7.991991447118718,1.0136584329969505,4.911411261647394,1.3167460959222408
-2.623445744053736,-3.0947918566153803,8.002128031448688,1.026825893956173,4.51968938263329,0.8713210823678664
-2.65439366261989,-3.0495949627890475,8.01239629038825,1.0355391047798517,4.1557514308162915,0.4664501142225382
-2.68488961224778,-3.0080374484808847,8.022751681436048,1.040203605922077,3.8170271460345484,0.09895945275532596
-2.714969986732589,-2.9698671770205394,8.033153717495269,1.0411932004496303,3.5010189828929095,-0.23415184788695703
-2.7446686585027944,-2.93485698719161,8.043565649499765,1.0388516819707607,3.2053320553069207,-0.535664959888849
-2.7740172283747104,-2.902803666638541,8.053954166319473,1.0334950323718721,2.9276908750940143,-0.8081146687722873
-2.8030452650410957,-2.8735267578876007,8.064289116643192,1.0254138856841493,2.6659465391482597,-1.0537773081045447
-2.831780532619972,-2.846867292496118,8.074543255500034,1.0148761126031038,2.418077187013604,-1.2746688099205488
-2.860249205544933,-2.822686520625982,8.084692016626065,1.0021294245038983,2.1821838711595944,-1.4725495566403273
-2.8884760707511927,-2.800864681914386,8.094713310871104,0.9874039289374951,1.9564834407787735,-1.64893360086685
-2.9164847175703366,-2.7812998475065984,8.104587350160479,0.9709145929288265,1.7392996166526897,-1.8051005009703545
-2.9442977160454027,-2.7639068513400717,8.114296496089768,0.952863587919123,1.5290531091313058,-1.9421085399882945
-2.9719367845588036,-2.748616320248759,8.123825131968959,0.93344250251924,1.324251384607978,-2.060808486520774
-2.9994229477612913,-2.735373806402679,8.133159556994151,0.9128344176540323,1.1234785016062012,-2.1618573475570693
-3.0267766858253182,-2.724139021386617,8.142287901170691,0.8912158441784616,0.9253853020609492,-2.2457317781919253
-3.0540180760391844,-2.7148851683660076,8.151200059612476,0.8687585263965423,0.7286801456161646,-2.3127409711829636
-3.0811669277228444,-2.707598366909846,8.159887644876441,0.8456311166847127,0.532120306265499,-2.3630389656964947
-3.108242911391943,-2.702277163847191,8.168343956043289,0.8220007270277477,0.3345041050889481,-2.3966364018063437
-3.135265683030415,-2.6989321227963017,8.176563963313567,0.7980343630096843,0.1346638257095399,-2.413411815489978
-3.1622550042583777,-2.697585484539206,8.184544306943664,0.7739002448547846,-0.06854055242151033,-2.413122626553605
-3.1892308591037697,-2.698270890063421,8.192283309392211,0.7497690185892485,-0.2762267650649951,-2.3954160266871347
-3.2162135680044037,-2.701033157714071,8.199780999578104,0.7258148583223771,-0.489494763697832,-2.359840033877146
-3.2432238995815443,-2.7059281053510493,8.207039148161329,0.7022164579836057,-0.7094302179317988,-2.30585505001217
-3.270283180635055,-2.7130224075303673,8.214061312741164,0.6791579074834839,-0.9371068811066309,-2.232846348691513
-3.2974134047103587,-2.7223934763414337,8.220852891815998,0.6568294439965688,-1.1735876062134423,-2.140138039192891
-3.324637339473773,-2.734129352403568,8.227421186255963,0.6354280636046399,-1.4199236960853554,-2.0270092112053493
-3.3519786329978087,-2.7483285893644216,8.23377546689201,0.6151579714925864,-1.6771521311943984,-1.8927131765150254
-3.3794619188914528,-2.7651001106763657,8.239927046606935,0.5962308397274362,-1.9462900298046326,-1.7365010043376945
-3.4071129199982164,-2.784563010974412,8.24588935500421,0.5788658296840592,-2.228325445463503,-1.5576509155169287
-3.4349585501079605,-2.806846265429047,8.25167801330105,0.5632893205288899,-2.5242032800893677,-1.355505579480376
-3.463027012762251,-2.8320882982299405,8.257310906506339,0.5497342647340862,-2.8348046693437867,-1.1295199709717751
-3.4913478957445507,-2.8604363449233783,8.26280824915368,0.5384390650243684,-3.1609176620333046,-0.8793232152150752
-3.5199522591937846,-2.8920455215437113,8.268192639803924,0.5296458328722177,-3.503196351107668,-0.6047987989447801
-3.548872714409222,-2.927077485054788,8.273489098132647,0.5235978448827698,-3.862104813767326,-0.3061886538147596
-3.57814348925977,-2.9656985331924615,8.278725076581475,0.5205359583446222,-4.237841296820296,0.01577210226432532
-3.6078004745916945,-3.0080769461606645,8.28393043616492,0.5206936793672654,-4.6302370972064315,0.3596816459371629
-3.6378812440533013,-3.054379317132729,8.289137372958594,0.524290495826637,-5.038623668946452,0.7232498507165368
