th1 (rad),w1 (rad/s),th2 (rad),w2 (rad/s)
3.5858196983242165,0.8999736077503581,2.0392656085087966,1.8498241012074501
3.59481943440172,0.9259551576378856,2.057763849520871,1.7698499295794332
3.604078985978099,0.9545459372399328,2.0754623488166652,1.6908464037936484
3.6136244453504984,0.9856332721718454,2.0923708128546017,1.612856085123024
3.6234807780722167,1.019107739072896,2.1084993737058317,1.5359316519946689
3.6336718554629455,1.054863257281661,2.1238586902257786,1.4601356674476933
3.6442204880357623,1.0927972363024026,2.1384600469002555,1.3855403002217053
3.6551484603987863,1.1328107784008352,2.1523154499024724,1.3122270076365645
3.6664765681827944,1.1748089346231503,2.165437719978838,1.2402861889630195
3.678224657529026,1.2187010116084092,2.1778405818684683,1.1698168185542621
3.69041166764511,1.2644009257543884,2.189538750054011,1.1009260685822255
3.703055676902654,1.3118276005944982,2.2005480107398334,1.033728931772974
3.716173952908599,1.360905402643433,2.210885300057563,0.9683478550365656
3.7297830069350333,1.4115646104678365,2.2205687786079285,0.9049123953116198
3.743898653039712,1.4637419113326016,2.2296179025610448,0.8435589092657003
3.7585360721530376,1.5173809194611627,2.2380534916537016,0.7844302886803061
3.7737098813476493,1.5724327097266346,2.2458977945405048,0.7276757533732107
3.7894342084449155,1.6288563604556898,2.253174552074237,0.6734507133396718
3.8057227720494726,1.6866194989712877,2.259909059207634,0.6219167113960758
3.8225889670391857,1.7456988435114402,2.2661282263215945,0.5732414569539802
3.8400459554743,1.806080735220009,2.271860640891134,0.5275989606096283
3.8581067628265,1.8677616539844617,2.2771366304972305,0.4851697779757803
3.876784379366345,1.9307487119570066,2.2819883282769884,0.44614136958216016
3.8960918664859148,1.9950601185911327,2.28644974197281,0.41070858170098173
3.916042467671826,2.060725610895562,2.29055682778982,0.3790742505857426
3.9366497237807816,2.1277868422810844,2.2943475702956775,0.3514499298106173
3.9579275922035926,2.196297722771596,2.2978620695937835,0.3280567371216695
3.9798905694313085,2.266324702378927,2.3011426369650003,0.30912631340475494
4.002553816455098,2.3379469880051857,2.3042339000990477,0.2949018819675085
4.02593328633515,2.411256682235848,2.307182918918723,0.2856393912346621
4.050045853157508,2.4863588297212185,2.3100393128310697,0.2816087180577509
4.074909441454721,2.5633713534172755,2.3128554000116472,0.2830949020142362
4.100543154988894,2.642424858684835,2.3156863490317896,0.2903993731759864
4.126967403575742,2.723662278063965,2.3185903427635495,0.3038411267182903
4.154204026356382,2.8072383234164833,2.3216287540307325,0.3237577872866231
4.182276409590547,2.893318705079353,2.324866331903599,0.3505064941456981
4.211209596641341,2.982079069782258,2.328371396845056,0.38446452478344667
4.241030387339164,3.0737036005378995,2.332216042092891,0.42602955993140745
4.271767423344543,3.168383212831131,2.336476337692205,0.4756194771740618
4.303451255472854,3.2663132727049806,2.3412325324639456,0.53367154399156
4.3361143881999045,3.3676907544815817,2.346569247903861,0.6006408650976175
4.3697912957447205,3.472710749846883,2.3525756565548375,0.6769979246250408
4.404518403243189,3.58156223716337,2.359345635801088,0.7632250529430584
4.440334025614823,3.694423021782339,2.3669778863305186,0.8598116431494216
4.477278255832647,3.81145376675532,2.375576002762013,0.967247946704947
4.5153927935002,3.9327910508915687,2.3852484822290623,1.08601729501369
4.5547207040091156,4.058539419864833,2.3961086551791992,1.2165866281733297
4.595306098207764,4.188762438143624,2.4082745214609327,1.3593952678730992
4.6371937225892,4.323472806411356,2.421868474139664,1.5148419522202516
4.680428450653314,4.462621681200291,2.4370168936618666,1.6832702584571844
4.725054667465317,4.606087419184318,2.4538495962464384,1.8649526748951817
4.77111554165716,4.753664063883158,2.4724991229953903,2.0600737419157893
4.818652182295992,4.90504999014136,2.493099860414548,2.2687128544363477
4.867702682197406,5.05983721085024,2.5157869889589115,2.4908274895778946
4.918301054305908,5.217501916900835,2.5406952638546905,2.7262377718949864
4.9704760734749165,5.377396849038411,2.5679576415736403,2.974613387642835
5.024250041965301,5.538746072816799,2.5977037754500687,3.2354638797676314
5.079637502693469,5.700642631930471,2.630058414247745,3.5081332690170406
5.136643929012774,5.862049384286754,2.6651397469379154,3.7917997338588014
5.195264422855641,6.021803083124579,2.7030577442765034,4.085480736929231
5.255482453686887,6.1786214691600065,2.7439125516457956,4.388043522267161
5.317268668378487,6.331112819588443,2.7877929868684674,4.698220361881134
5.380579796574372,6.47778709763109,2.834775190487279,5.014627359873133
5.445357667550683,6.617067610446298,2.8849214640860104,5.335785100636518
5.511528343655145,6.747301961482104,2.9382793150923754,5.660139033777039
5.579001363269967,6.86677111599506,2.9948807054301456,5.986077296153782
5.647669074429918,6.973695612582049,3.0547414783916835,6.311943738812527
5.717406030555738,7.06623836032942,3.1178609157798087,6.636044289236524
5.788068414159032,7.142504056139914,3.184221358672174,6.9566454489898835
5.859493454720432,7.200536021871545,3.2537878131620728,7.271964693839536
5.931498814939147,7.238312165241447,3.3265074601004683,7.580153780378787
6.003881936591561,7.253742764768004,3.4023089979042562,7.879277424674349
6.076419364239242,7.244673793048206,3.481101772151,8.167291432654398
6.148866102169724,7.208900404819817,3.562774686477544,8.442026010679756
6.2209551062179225,7.144195839557373,3.6471949465843414,8.701181474102043
6.292397064613496,7.048361051941498,3.734206761325362,8.94234460170122
6.362880675132911,6.919299538574609,3.823630207342374,9.163034035782122
6.432073670518657,6.7551196995186285,3.9152605477001954,9.360781895229463
6.499624867513844,6.554263371077938,4.00886836665249,9.533255665788323
6.565167501224623,6.315653878828105,4.104200923310374,9.678419192331294
6.628324040012904,6.038850569238266,4.200985115233687,9.794724447524409
6.688712545705287,5.724190423353073,4.298932359708931,9.881317660803207
6.745954449938818,5.372892794419366,4.397745536316963,9.938236154292394
6.799683377883012,4.987102548465567,4.497127897859887,9.9665681917219
6.849554403367668,4.5698514610314565,4.596793579777105,9.968549500452472
6.895252917977982,4.1249278567650824,4.69647907478163,9.947577968771109
6.936502196545633,3.656658516410017,4.795954854469341,9.908141539008536
6.973068781709733,3.16962144854661,4.895036269859426,9.855670665850715
7.004764996195199,2.6683191701395215,4.993592976517933,9.796341817495225
7.031448187896594,2.1568464193258876,5.091556394692885,9.736868567654254
7.053016652089854,1.638582578718,5.188925080369428,9.684319812685509
7.069402477877033,1.1159288042940734,5.285768278496283,9.646000954691253
7.080561765919974,0.5900959875843929,5.382228288043195,9.629425967287624
7.086462725795818,0.06093581574454021,5.4785225477160715,9.642399346367908
7.087072083953264,-0.4732035386138739,5.5749465411797505,9.693219513494283
7.082340048567125,-1.015620520877481,5.671878736314693,9.791009368081404
7.07218384335835,-1.5714208590427106,5.769788829995507,9.946170763874743
7.056469634767923,-2.147690572411176,5.8692505376342545,10.170933015889382
7.034992729043812,-2.753605569841397,5.970959867793148,10.479881660405475
7.007456673345398,-3.400211305082525,6.0757586843972025,10.890109083189575
6.973454560294572,-4.099104816751068,6.184659775229099,11.41995784374957
6.932463512127061,-4.857993022158415,6.298859353666594,12.08360258433813
6.883883581905477,-5.668304594304835,6.419695379509975,12.87482091132474
6.827200535962429,-6.476003044834564,6.548443588623223,13.727560132799942
6.762440505514083,-7.13251461527482,6.6857191899512225,14.448436279560083
6.691115359361334,-7.382030906213174,6.8302035527468234,14.697818966986294
6.6172950502992025,-7.041529019186155,6.977181742416686,14.23408026223161
6.546879760107341,-6.266324950977267,7.119522545039002,13.271240082216552
6.484216510597569,-5.382580607835442,7.252234945861168,12.242973517757767
6.430390704519215,-4.569798428345633,7.3746646810387455,11.376289406827029
6.384692720235758,-3.863477701107436,7.488427575107016,10.706027469771957
6.346057943224684,-3.2487720641698123,7.595487849804735,10.204444997479168
6.313570222582986,-2.70292281063401,7.697532299779527,9.837145400313913
6.286540994476646,-2.206247195792279,7.7959037537826665,9.57629870996824
6.264478522518724,-1.7435468509664853,7.891666740882349,9.401473042657777
6.247043054009059,-1.303393716001374,7.985681471308927,9.29799930417965
6.2340091168490455,-0.8772302662323788,8.078661464350724,9.255291150861312
6.225236814186721,-0.458685660573961,8.171214375859337,9.265539384430095
6.2206499575809815,-0.043135447697284335,8.26386976970364,9.322746486652179
6.2202186031040085,0.372540214910023,8.35709723457016,9.421999112659794
6.2239440052531085,0.790047360761241,8.451317225696759,9.558892896011868
6.231844478860721,1.2096574251375436,8.546906154656877,9.729052629960863
6.243941053112096,1.6301099276760038,8.644196680956487,9.927717472151535
6.260242152388855,2.0484758386324824,8.743473855678003,10.149384432282163
6.28072691077518,2.4600267000520533,8.844967700000824,10.387524951909498
6.305327177775701,2.8581653852458864,8.94884294951992,10.634408156910627
6.33390883162816,3.2344831692618192,9.055187031089027,10.881076943252166
6.366253663320778,3.57900739503968,9.163997800521548,11.117523627551389
6.402043737271175,3.880686742854712,9.275173036797062,11.33309440598128
6.440850604699722,4.128122507571218,9.388503980856875,11.517114321937093
6.482131829775434,4.31049814302831,9.503675124076246,11.659673660209663
6.525236811205717,4.418600181956701,9.620271860678342,11.752469456813486
6.569422813025285,4.445782686571699,9.737796555246476,11.789572473255616
6.6138806398910015,4.388721612401358,9.855692279979031,11.768001837010857
6.657767856015015,4.247837067161476,9.97337229834914,11.688029738459656
6.70024622668663,4.027317271780319,10.090252595733737,11.553186741362847
6.740519399404434,3.7347403647881534,10.205784463147365,11.369977082636076
6.777866803052316,3.3803479398022804,10.319484233973727,11.147340959467424
6.811670282450338,2.9760733297614372,10.430957643568401,10.89592624381621
6.841431015747952,2.5344631939425026,10.539916906006564,10.62725964252821
6.866775647687377,2.067643150388404,10.646189502431845,10.352928275528694
6.887452079191261,1.5864588134698665,10.749718785187133,10.08388257369836
6.90331666732596,1.09987537570643,10.850557610924117,9.829944278666513
6.914315421083025,0.6146571118150643,10.948857053710782,9.599557716317065
6.920461992201175,0.13529271340660937,11.044852630873953,9.39977568533405
6.921814919335241,-0.3359027830909816,11.138850387727294,9.23643845643619
6.9184558915043315,-0.7985902692430462,11.231214772291656,9.114491867692504
6.910469988811901,-1.2541873546509115,11.32235969096858,9.038395963047583
6.897928115265391,-1.7056865260526652,11.412743650599056,9.012592235349409
6.880871250004865,-2.1575529159442812,11.50286957295255,9.042018269115893
6.859295720845422,-2.6157303454002565,11.593289755643708,9.132678035804071
6.833138417391419,-3.0877732288572917,11.684616536001748,9.292289332595322
6.802260685102846,-3.5831059315744818,11.777539429327701,9.531027300789246
6.766429625787101,-4.113368010492546,11.872849702335595,9.86233709213583
6.725295945682175,-4.692671703851642,11.971473073256952,10.303618249042318
6.678369228643659,-5.337205917441525,12.074509255747376,10.876054721263996
6.6249971694692436,-6.062508069692922,12.183269802960016,11.601338266653709
6.5643720887723145,-6.873795396974003,12.299283185626553,12.488970376839863
6.495634134802574,-7.7384861594195105,12.424172889394951,13.49905311611464
6.418249273208379,-8.525710095540823,12.559163420556098,14.459129129841182
6.332992172252971,-8.942876946777867,12.70375471185451,14.975852607846132
6.243563402785192,-8.675464686305384,12.85351323793297,14.626093422728934
6.156808755922138,-7.814654184923405,12.99977417216026,13.541495409049393
6.078662214072904,-6.794290709272573,13.135189126250754,12.31143643092244
6.010719306980178,-5.875507809398992,13.258303490559978,11.278728655117051
5.9519642288861885,-5.102266766011463,13.37109077711115,10.491857359726048
5.900941561226074,-4.448614536766553,13.47600935070841,9.909762506262274
5.856455415858409,-3.8816962085328814,13.575106975771032,9.486079856190917
5.81763845377308,-3.3750430009955337,13.66996777433294,9.185501940118654
5.783888023763125,-2.909015988545168,13.761822793734128,8.983325262345337
5.754797863877673,-2.4691535704441874,13.851656046357581,8.862556213759182
5.730106328173232,-2.0446979627753055,13.940281608495173,8.811425408171838
5.709659348545479,-1.6276087209907069,14.028395862576891,8.821577966261625
5.693383261335572,-1.2119983328661144,14.116611642239508,8.886754003644997
5.68126327800691,-0.7938938066828022,14.205479182275958,9.001759110163126
5.673324339940082,-0.37125250831256884,14.29549677337759,9.1615803522134
5.669611814856957,0.055822609176497284,14.387112576899723,9.360561765980373
5.6701700409487215,0.4847280708060563,14.480718194559527,9.591612354116029
5.675017321656782,0.9099556552865076,14.576634318100687,9.845488344532368
5.684116878209647,1.3227841768515094,14.675089201546012,10.11027382803794
5.697344719978162,1.7112768888536753,14.776191939826392,10.371266852244792
5.714457488866699,2.060830296349769,14.87990460834884,10.611520772243479
5.735065791830197,2.3554675133723304,14.986019816071275,10.813226306068902
5.75862046696392,2.579872773463923,15.094152079131964,10.959891500358776
5.784419194698559,2.7218381248919172,15.203750994135552,11.038912992044127
5.811637575947478,2.77447987311218,15.314140124055994,11.043804934539486
5.8393823746786,2.7375047722908987,15.42457817340139,10.975313750713958
5.866757422401509,2.6170939333473413,15.534331310908529,10.841017503892276
5.892928361734983,2.4244998639101953,15.642741485947452,10.653608366258151
5.917173360374084,2.1739036441833157,15.749277569610033,10.428517852952844
5.938912396815917,1.8802137730582964,15.853562748139561,10.18162611483738
5.957714534546501,1.5573141711860106,15.955379009287935,9.92755378821095
5.97328767625836,1.2169702077392863,16.054654547170045,9.67869551495063
5.985457378335753,0.8683542821318895,16.151441502319553,9.444903756639143
5.994140921157072,0.5180263118989903,16.245890539885945,9.233623997621702
5.999321184276062,0.17018192504659807,16.33822677986216,9.050281749042055
6.001023003526528,-0.17298532295675162,16.428729597352582,8.898770845702103
5.999293150296961,-0.5109115816877765,16.517717305809605,8.781950475803626
5.994184034480083,-0.8443397061898177,16.605536810567642,8.702106056644181
5.985740637418186,-1.1750737142269834,16.692557871134085,8.661361854606676
5.973989900275916,-1.5058200629999603,16.779171489680152,8.66205321262832
5.958931699645916,-1.8401159082803304,16.865792021806435,8.707077199084228
5.940530540563112,-2.1823410160686927,16.952862793797276,8.800245490855275
5.918707130402425,-2.5378081301369697,17.040865248705828,8.946663224511454
5.893329049101055,-2.912920670705853,17.13033188095094,9.153149058673668
5.8641998423939965,-3.3153653261324902,17.221863371537676,9.428682184302028
5.831046189132672,-3.754243280846617,17.316150193380697,9.784776162672836
5.793503756324205,-4.239869362064186,17.413997955007424,10.23544453456016
5.751105062703563,-4.782514928310643,17.516352400353025,10.795806059193106
5.703279913420457,-5.388257701972111,17.624310460944955,11.47684546871742
5.649397336400735,-6.047709667919545,17.739078915632128,12.270512410055547
5.588920239721539,-6.710148917830046,17.861784039732683,13.114721231192938
5.521818750543239,-7.240926881447294,17.992931252044613,13.834876501933442
5.4494094817287655,-7.409590273153727,18.131280017063947,14.12669687325994
5.375313578997228,-7.04058794083774,18.272546985796545,13.76137476508204
5.304907699588851,-6.252346998443568,18.410160733447366,12.908314746416256
5.242384229604415,-5.338848962390067,18.539243880911528,11.965353197464246
5.188995739980514,-4.478238034049189,18.65889741288617,11.164069816959456
5.144213359640022,-3.7119029065468343,18.770538111055764,10.55087002094983
5.107094330574554,-3.0281426697990925,18.87604681126526,10.10411506798414
5.076812903876563,-2.4052089099276817,18.977087961945102,9.791743958481366
5.052760814777287,-1.8235632578429317,19.075005401529914,9.586542981789188
5.034525182198857,-1.2679042029305134,19.170870831347806,9.467883968018047
5.021846140169552,-0.7267217215737751,19.265549671027987,9.42041387813317
5.014578922953815,-0.19153055260008967,19.35975380980932,9.43247050662809
5.012663617427814,0.3437319708576153,19.4540785148756,9.494790984511319
5.01610093713639,0.8830906953207971,19.549026424720715,9.599542333767943
5.024931844089598,1.4287452758473371,19.645021848058395,9.739607317442585
5.039219296848072,1.9811711370634466,19.74241792123282,9.908067968659925
5.059031008218706,2.5391681807855506,19.84149860091942,10.097856473711175
5.084422690026561,3.0999143205982183,19.94247716565653,10.301566726529455
5.115421833232544,3.659077648505053,20.045492832921823,10.51143367329358
5.152012609717595,4.211032865797027,20.15060716965476,10.719488430181421
5.194122938375565,4.749210187847426,20.257802053956574,10.917883316473366
5.24161504025404,5.2665763558875955,20.366980887121308,11.099353674015976
5.294280803812915,5.7562107798739905,20.47797442386147,11.257749216755208
5.351842911611655,6.211904400823107,20.59055191602902,11.388538893118803
5.413961955619886,6.628687641312619,20.70443730496021,11.489184229939791
5.480248832033012,7.003197820549895,20.819329147259605,11.55929638642404
5.550280810238511,7.333827806467678,20.934922111123846,11.600539548851094
5.623619088303188,7.620646750776165,21.050927506612357,11.616302784631527
5.699825555810949,7.865132809239404,21.167090534458673,11.61121273250454
5.778476883903343,8.069790023551159,21.28320266178372,11.59058388782988
5.859174784138855,8.23772919816962,21.399108500662017,11.559897599225856
5.9415520761205505,8.372278789535853,21.514707476654277,11.524373475272531
6.025274864015909,8.47666659375846,21.629951211407,11.48866177609678
6.110041529953493,8.553787088115444,21.744837829167967,11.456654829322664
6.195579400834648,8.606049670451132,21.859404377461193,11.431395942305333
6.281639897539159,8.635292066400423,21.973718336884247,11.415056231754997
6.367992818203163,8.64273979539327,22.087868899201798,11.40895040067524
6.454420216157096,8.628994362104166,22.20195840320855,11.413568060641554
6.540710159778137,8.594037379932628,22.316094083814967,11.42860474531726
6.626650533577464,8.53724344508693,22.43038013126814,11.452984522401351
6.712022968028333,8.457400319746894,22.544909976492153,11.484873360574563
6.796596971225802,8.352740407175872,22.6597587100979,11.521689033834901
6.8801243752975605,8.220992336467617,22.77497560043625,11.560119401939508
6.9623342986622365,8.059465304933518,22.890576794455644,11.596166226262737
7.042928951711572,7.8651808607263245,23.00653845671827,11.625235577511763
7.121580760318835,7.635065784463276,23.12279081249339,11.642296987380554
7.197931418163468,7.366214071206512,23.239213782367194,11.642129808409877
7.271593558875533,7.0562143898998055,23.355635080451293,11.619664716156427
7.342155702774531,6.703521722857646,23.47183172761286,11.570409880355323
7.409190920003107,6.307830568588404,23.587535826416413,11.490926560391555
7.472269225688991,5.870387810128776,23.70244509202033,11.379293072483966
7.530973103790279,5.394174372321481,23.81623802274517,11.235478193439771
7.5849148475134935,4.883894036294152,23.928592804679568,11.06154502294427
7.633753787876435,4.345738261801686,24.03920825490901,10.861630057399182
7.677211170494451,3.7869419391545103,24.147824555483,10.641686877492717
7.715080589885996,3.2151925911916877,24.25424142425793,10.409036685263576
7.747232515797913,2.637987750751101,24.358331791110565,10.171811028264344
