th1 (rad),w1 (rad/s),th2 (rad),w2 (rad/s),a1 (rad/s^2),a2 (rad/s^2)
4.904498513371738,2.517616374901453,0.47417146791143666,0.4007158020127515,8.558361616230728,-8.180510025701995
4.929674677120753,2.60319999106376,0.4781786259315642,0.31891070175573155,8.474593315974532,-8.870959511866483
4.95570667703139,2.6879459242235053,0.4813677329491215,0.23020110663706672,8.408038031524097,-9.575941465127295
4.982586136273626,2.772026304538746,0.4836697440154922,0.13444169198579375,8.362712996749782,-10.295331516900335
5.010306399319013,2.855653434506244,0.4850141609353501,0.0314883768167904,8.34300859378089,-11.029548936595308
5.038862933664076,2.939083520444053,0.485329044703518,-0.07880711254916269,8.353719444015372,-11.779686353701479
5.068253768868517,3.0226207148842064,0.4845409735780264,-0.19660397608617747,8.400086939583414,-12.5476543787358
5.098479976017359,3.1066215842800404,0.4825749338171646,-0.3220805198735355,8.487856860845627,-13.336342541753346
5.129546191860159,3.1915001528884965,0.47935412861842924,-0.4554439452910689,8.623356160200265,-14.149798436534496
5.161461193389044,3.277733714490499,0.47479968916551857,-0.5969419296564139,8.813593272048518,-14.993427381675524
5.19423853053395,3.3658696472109844,0.46883026986895443,-0.7468762034731692,9.066386261556767,-15.874215034690055
5.22789722700606,3.456533509826552,0.46136150783422275,-0.9056183538200697,9.390522423297424,-16.800974729645354
5.262462562104325,3.5504387340595263,0.45230532429602205,-1.0736281011165232,9.795950961459747,-17.784618924141782
5.297966949444921,3.648398243674124,0.4415690432848568,-1.251474290357941,10.294005946043704,-18.838448309304184
5.334450931881662,3.7513383031345606,0.4290543003812774,-1.439858773450983,10.897647622345872,-19.978439652631053
5.371964314913008,3.8603147793580193,0.4146557126467676,-1.6396431699772935,11.621692185462443,-21.22348836490434
5.410567462706588,3.9765317012126435,0.39825928094699464,-1.8518780536263368,12.48296551576128,-22.595513070225852
5.450332779718715,4.101361356370257,0.37974050041073126,-2.0778331843285955,13.50025054461122,-24.11923660720571
5.491346393282417,4.236363861816369,0.3589621685674453,-2.3190255504006525,14.69377385602451,-25.821282947511033
5.533710031900581,4.3833016003766145,0.3357719130634388,-2.5772383798757628,16.083745277646965,-27.727903026333426
5.5775430479043475,4.544139053153084,0.30999952926468116,-2.854517410139097,17.687036084906016,-29.860040562684016
5.6229844384358785,4.721009414002144,0.2814543551632902,-3.153117815765937,19.510307656197988,-32.223362778065166
5.6701945325759,4.9161124905641245,0.24992317700563083,-3.4753514435465886,21.536561598256636,-34.789001755771686
5.719355657481541,5.131478106546691,0.21516966257016495,-3.8232414611043053,23.69995709217947,-37.45777945463078
5.7706704385470085,5.368477677468486,0.1769372479591219,-4.197819255650613,25.841048670406614,-39.996938799246095
5.8243552153216935,5.626888164172552,0.13495905540261577,-4.5977886436430735,27.633542295551624,-41.93699504100967
5.880624096963419,5.9032235871280685,0.08898116896618503,-5.01715859405317,28.482707804848186,-42.42918795493127
5.9396563328347,6.188050665176551,0.03880958302565333,-5.441450473602483,27.43699278211569,-40.1225313259627
6.001536839486465,6.462420592997708,-0.015604921710371505,-5.84267578686211,23.261127297634623,-33.269987185760016
6.066161045416442,6.6950318659740535,-0.07403167957899262,-6.175375658719711,14.956091327953727,-20.46620237478804
6.133111364076183,6.844592779253591,-0.13578543616618974,-6.380037682467591,2.854256732587212,-2.196725123376379
6.201557291868719,6.873135346579463,-0.19958581299086564,-6.402004933701354,-10.52966963177976,17.958892400695202
6.270288645334514,6.767838650261666,-0.2636058623278792,-6.222416009694403,-21.510865116797323,34.75536075793482
6.33796703183713,6.5527299990936925,-0.32583002242482323,-5.874862402115054,-27.782655579429345,44.88246818053658
6.4034943318280675,6.274903443299399,-0.3845786464459738,-5.426037720309688,-29.563814511132676,48.5975177025359
6.466243366261062,5.979265298188072,-0.4388390236490707,-4.94006254328433,-28.44426908124687,48.110800323818566
6.526036019242943,5.694822607375603,-0.488239649081914,-4.458954540046144,-25.958212273708373,45.57500369635585
6.582984245316699,5.43524048463852,-0.5328291944823754,-4.003204503082586,-23.073030591287054,42.356928859349544
6.637336650163085,5.204510178725649,-0.5728612395132013,-3.57963521448909,-20.270600374987747,39.14386917639314
6.689381751950341,5.001804174975772,-0.6086575916580922,-3.1881965227251587,-17.746322545422018,36.21924262785881
6.739399793700099,4.8243409495215515,-0.6405395568853438,-2.8260040964465705,-15.5540016089597,33.66476781580558
6.787643203195315,4.668800933431955,-0.6687995978498095,-2.489356418288515,-13.68582550292474,31.472752455991518
6.8343312125296345,4.531942678402707,-0.6936931620326946,-2.1746288937286,-12.111293255220751,29.601204688417443
6.879650639313661,4.4108297458505,-0.7154394509699806,-1.8786168468444253,-10.794652683627138,27.998886787546656
6.923758936772167,4.3028832190142285,-0.7342256194384249,-1.5986279789689588,-9.702011610125636,26.61585623034761
6.966787768962309,4.205863102912972,-0.7502118992281145,-1.3324694166654827,-8.803741910967604,25.407347510140205
7.008846399991438,4.1178256838032965,-0.7635365933947693,-1.0783959415640807,-8.074849004539297,24.33474411382393
7.050024656829471,4.037077193757904,-0.7743205528104101,-0.8350485004258414,-7.4945367370458476,23.365373068007663
7.09039542876705,3.9621318263874454,-0.7826710378146685,-0.6013947697457648,-7.045516977784813,22.47189810420792
7.130016747030925,3.8916766566095973,-0.7886849855121262,-0.37667578870368557,-6.71329868242552,21.63164250133769
7.168933513597021,3.824543669785342,-0.792451743399163,-0.16035936369030865,-6.485548482372484,20.825968943916443
7.207178950294875,3.7596881849616173,-0.7940553370360661,0.04790032574885578,-6.351551811156071,20.039752835458128
7.244775832144491,3.6961726668500567,-0.7935763337785776,0.24829785410343705,-6.301776979084904,19.260947091306484
7.281737558812991,3.6331548970592076,-0.7910933552375432,0.44090732501650187,-6.327534325921541,18.48022226340248
7.318069107783583,3.5698795537999923,-0.7866842819873782,0.6257095476505267,-6.420719308601587,17.690662703784287
7.353767903321583,3.5056723607139766,-0.780427186510873,0.8026161746883695,-6.573627887851041,16.88750115350145
7.388824626928723,3.4399360818354663,-0.7724010247639893,0.971491186223384,-6.778833024142344,16.067877719314737
7.423223987747077,3.372147751594043,-0.7626861129017555,1.1321699634165314,-7.029111757133891,15.230613263550516
7.456945465263018,3.301856634022704,-0.7513644132675902,1.2844760960520365,-7.317413008543875,14.375991085210737
7.489964031603245,3.2286825039372653,-0.7385196523070698,1.428236006904144,-7.636856912005211,13.505544058885198
7.522250856642618,3.1523139348172133,-0.7242372922380284,1.563291447492996,-7.980757195289154,12.621846951212698
7.55377399599079,3.072506362864322,-0.7086043777630984,1.6895099170051229,-8.34265897573031,11.728315396928142
7.584499059619433,2.9890797731070187,-0.6917092785930471,1.8067930709744042,-8.716385300000876,10.829014016954202
7.6143898573505036,2.90191592010701,-0.6736413478833031,1.9150832111439462,-9.096086846011945,9.928476493690862
7.643409016551574,2.8109550516468906,-0.6544905157718637,2.014367976080855,-9.47629035684008,9.031540223554975
7.671518567068042,2.71619214807849,-0.6343468360110551,2.1046833783164045,-9.851942525180498,8.143197608120381
7.698680488548827,2.617672722826685,-0.613300002227891,2.186115354397608,-10.218447120342935,7.268465289288157
7.724857215777093,2.5154882516232555,-0.5914388486839149,2.25880000729049,-10.571694087602323,6.4122718297022665
7.750012098293325,2.4097713107472325,-0.5688508486110101,2.3229227255875124,-10.908080111254963,5.579363604160468
7.774109811400797,2.300690509634683,-0.5456216213551349,2.378716361629117,-11.22452070150335,4.774228078542828
7.797116716497144,2.188445302619649,-0.5218344577388437,2.4264586424145453,-11.518454247886535,4.00103324693869
7.81900116952334,2.0732607601407835,-0.49756987131469826,2.466468974883932,-11.787838703431136,3.263581776948051
7.839733777124748,1.9553823731064721,-0.4729051815658589,2.4991047926534127,-12.031141660760863,2.56527835272381
7.859287600855813,1.8350709564988634,-0.4479141336393248,2.524757576180651,-12.247324595214735,1.9091087642576208
7.877638310420802,1.712597710546716,-0.4226665578775183,2.543848663823227,-12.435822019628615,1.2976294228825602
7.894764287526269,1.58823949035043,-0.397228071239286,2.5568249580520526,-12.59651625292214,0.7329661428504536
7.910646682429773,1.4622743278212087,-0.3716598216587655,2.564154619480557,-12.729708472353295,0.2168211817092213
7.925269425707985,1.3349772430976756,-0.3460182754639599,2.566322831297649,-12.836086709113749,-0.24951234545905773
7.938619198138962,1.206616376006538,-0.3203550471509834,2.5638277078430582,-12.916691461164602,-0.6651294820480659
7.950685361899027,1.077449461394892,-0.2947167700725528,2.5571764130225776,-12.972879630798483,-1.0294866407660495
7.961459856512976,0.9477206650869071,-0.26914500594232704,2.5468815466149173,-13.006287537689747,-1.34236976701239
7.970937063163845,0.8176577897100097,-0.24367619047617786,2.5334578489447934,-13.018793799716665,-1.603858224498372
7.979113641060945,0.687469851712843,-0.21834161198672994,2.5174192666998096,-13.012482902876243,-1.8142851880614106
7.985988339578073,0.5573450226840806,-0.19316741931973183,2.4992764148191955,-12.989610289988049,-1.9741953324458132
7.991561789804914,0.4274489197842001,-0.16817465517153987,2.479534461494737,-12.952569781052999,-2.084300586535588
7.995836279002756,0.29792322197367005,-0.1433793105565925,2.4586914556293813,-12.903864095501648,-2.1454346725431477
7.998815511222492,0.16888458101865356,-0.11879239600029869,2.43723710890395,-12.84607918117137,-2.158507065807767
8.000504357032678,0.04042378920693984,-0.09442002491125918,2.4156520382458724,-12.78186297258449,-2.124456894002524
8.000908594924748,-0.08739484051890506,-0.07026350452880045,2.3944074693058472,-12.71390910967469,-2.0442071487842473
8.000034646519559,-0.21453393161565196,-0.04631942983574198,2.373965397818005,-12.644946055957314,-1.9186194145547202
7.997889307203403,-0.3409833921752251,-0.022579775857561928,2.3547792036724577,-12.57773197036038,-1.7484491355711596
7.99447947328165,-0.46676071187882895,0.0009680161791626521,2.337294712316746,-12.515055616388423,-1.5343012521521224
7.989811866162862,-0.5919112680427132,0.024340963302330113,2.3219516997952248,-12.459743540827445,-1.2765858472697513
7.983892753482435,-0.7165087034509876,0.04756048030028236,2.309185841322527,-12.414673723938142,-0.975473264764452
7.976727666447925,-0.840655440690369,0.07065233871350762,2.2994311086748827,-12.382795892611503,-0.6308479992860317
7.968321112041021,-0.9644833996164841,0.09364664980025644,2.2931226286820223,-12.36715869116122,-0.24226052841854184
7.958676278044856,-1.0881549865280964,0.11657787608707666,2.2907000233978367,-12.370943908557447,0.19112382183067886
7.947794728179575,-1.2118644256136708,0.13948487632105502,2.2926112616161434,-12.397507943289517,0.6705798852382718
7.935676083923439,-1.335839505046566,0.16241098893721645,2.299317060468526,-12.450430609393566,1.1978823102180316
7.922317688872973,-1.4603438111405016,0.1854041595419017,2.3112958835707063,-12.533571185957896,1.775370281362931
7.907714250761568,-1.5856795230000806,0.20851711837760878,2.3290495863843357,-12.651131182611124,2.4060170107583216
7.891857455531568,-1.7121908348261918,0.23180761424145213,2.353109756491919,-12.80772246145535,3.0935023780444943
7.874735547183306,-1.8402680594407452,0.2553387118063713,2.384044780272364,-13.0084378340266,3.8422847615634304
7.8563328665888985,-1.9703524377810113,0.27917915960909495,2.422467627887998,-13.258918563190505,4.657664079303025
7.836629342211088,-2.1029416234129163,0.3034038358879749,2.4690442686810283,-13.56540855309511,5.545821227838669
7.815599925976959,-2.2385957089438673,0.32809427857478524,2.524502480959415,-13.934777093936995,6.513807614772802
7.79321396888752,-2.3779434798832373,0.3533393033843794,2.589640557107143,-14.374478676428366,7.569439264298012
7.7694345340886874,-2.521688266647521,0.37923570895545083,2.665334949750123,-14.892396053236213,8.72101802526078
7.744217651422212,-2.670612227179883,0.4058890584529521,2.752545130002731,-15.496475664847491,9.976749639959172
7.717511529150413,-2.825576983828358,0.4334145097529794,2.8523126264023224,-16.19400373739221,11.34364213067325
7.68925575931213,-2.9875170212022804,0.4619376360170026,2.965749047709055,-16.99027327343364,12.825529116766521
7.659380589100107,-3.1574197539366167,0.49159512649409315,3.0940043388767204,-17.886238442906482,14.419645551535405
7.627806391560741,-3.3362821383656813,0.5225351698828603,3.2382007943920743,-18.874524140058607,16.110860896910317
7.594443570177084,-3.5250273797662675,0.5549171778267811,3.3993094033611775,-19.932851076813712,17.862242379165718
7.559193296379422,-3.7243558905344045,0.5889102718603928,3.5779318271528346,-21.013614732734673,19.600169964140424
7.521949737474078,-3.934492037861751,0.6246895901319212,3.773933526794239,-22.028284553714098,21.192130245756402
7.48260481709546,-4.1547748833988924,0.6624289253998635,3.985854829251803,-22.826219514831475,22.416641420368833
7.441057068261471,-4.383037078547207,0.7022874736923815,4.210021243455492,-23.171117602838958,22.92989420718551
7.397226697475999,-4.614748254575597,0.7443876861269365,4.439320185527347,-22.727426596998438,22.246585154823606
7.351079214930243,-4.842022520545581,0.78878088798221,4.661786037075583,-21.085432514850464,19.775602681028403
7.302658989724787,-5.052876845694086,0.8353987483529659,4.859542063885867,-17.869416261522034,14.973427596197173
7.252130221267846,-5.231571008309306,0.8839941689918246,5.009276339847839,-12.954970270655977,7.652382085502423
7.199814511184753,-5.361120711015865,0.9340869323903029,5.0858001607028624,-6.719887985499828,-1.6626279872267156
7.146203304074595,-5.4283195908708635,0.9849449339973315,5.069173880830595,-0.1029520346260067,-11.647464009715133
7.091920108165886,-5.429349111217124,1.0356366728056374,4.952699240733444,5.724586984890455,-20.63901909083939
7.037626617053715,-5.372103241368219,1.085163665212972,4.74630904982505,9.907664516815268,-27.40910792860565
6.983905584640033,-5.273026596200066,1.1326267557112224,4.472217970538994,12.222744635452768,-31.6136897506097
6.931175318678033,-5.150799149845538,1.1773489354166122,4.1560810730328965,12.962841456290532,-33.637332498002166
6.879667327179577,-5.021170735282633,1.2189097461469411,3.819707748052875,12.622456470569732,-34.15372818765039
6.829455619826751,-4.894946170576936,1.2571068236274698,3.478170466176371,11.659099940679612,-33.790688264632124
6.780506158120982,-4.77835517117014,1.2918885282892336,3.1402635835300496,10.403670805933892,-33.00254177659699
6.732722606409281,-4.674318463110801,1.3232911641245342,2.81023816576408,9.063613955705883,-32.072560348330356
6.685979421778173,-4.583682323553742,1.351393545782175,2.489512562280776,7.756566801994939,-31.15860962457522
6.640142598542636,-4.506116655533792,1.376288671404983,2.1779264660350237,6.543462894660111,-30.338572381727186
6.595081431987298,-4.440682026587191,1.3980679360653332,1.8745407422177518,5.452416535386555,-29.64325913543511
6.550674611721426,-4.386157861233325,1.4168133434875108,1.5781081508634007,4.493813199847984,-29.077269253219583
6.506813033109093,-4.341219729234846,1.4325944249961449,1.2873354583312049,3.6691738675839964,-28.631307856522607
6.463400835816745,-4.304527990559006,1.4454677795794568,1.0010223797659787,2.9761083325299054,-28.2891478519163
6.420355555911154,-4.2747669072337064,1.4554780033771166,0.7181309012468158,2.410952757907561,-28.031444718772832
6.377607886838817,-4.250657379654631,1.4626593123895848,0.4378164540590875,1.9700788041912922,-27.83777562041889
6.33510131304227,-4.230956591612718,1.4670374769301757,0.15943869785489861,1.6504542243177083,-27.687711238975172
6.292791747126143,-4.214452049369541,1.4686318639087248,-0.1174384145348531,1.4497864849391902,-27.561383112611907
6.250647226632448,-4.199954184520149,1.4674574797633764,-0.3930522456609722,1.3664367389214873,-27.439805957087582
6.2086476847872465,-4.186289817130935,1.4635269573067666,-0.667450305231848,1.3992101096308176,-27.3050969455346
6.1667847866159375,-4.172297716034627,1.456852454254448,-0.940501274687194,1.547083374088411,-27.140666156411847
6.125061809455591,-4.156826882293743,1.4474474415075762,-1.2119079362513125,1.8089069434104306,-26.93141301113538
6.083493540632654,-4.138737812859638,1.435328362145063,-1.4812220663626663,2.183105323502669,-26.663940334446313
6.042106162504058,-4.116906759624611,1.4205161414814362,-1.7478614697071295,2.6673936798674016,-26.326783922668383
6.000937094907812,-4.0902328228259375,1.4030375267843649,-2.011129308933813,3.258524668560857,-25.91064751425561
5.960034766679552,-4.057647576140329,1.3829262336950268,-2.270235784076369,3.952077588547137,-25.40862882656189
5.919458290918149,-4.018126800254858,1.360223875854263,-2.524322072341988,4.742300203115479,-24.81642073439824
5.8792770229156,-3.9707037982237026,1.3349806551308432,-2.7724862796859706,5.622011796327037,-24.13247202328151
5.839569984933363,-3.914483680260432,1.3072557923339834,-3.013810999918786,6.582573997247705,-23.358093938197538
5.800425148130759,-3.8486579402879553,1.2771176823347956,-3.247391939300761,7.613933611000972,-22.49750152949148
5.76193856872788,-3.7725186041779457,1.244643762941788,-3.472366954595676,8.704739206441172,-21.55778219046088
5.7242133826861,-3.685471212113534,1.2099200933958312,-3.687944776500285,9.842530597236967,-20.5487874839838
5.687358670564965,-3.587045906141164,1.1730406456308282,-3.893432651340123,11.01399765802497,-19.482948171816606
5.651488211503553,-3.4769059295609144,1.134106319117427,-4.088262133058289,12.205302149134507,-18.37501620715336
5.616719152207944,-3.3548529080695695,1.0932236977868441,-4.272012295129823,13.40245338828541,-17.24174133134255
5.583170623127248,-3.2208283741867154,1.050503574835546,-4.4444297084432485,14.591725758596295,-16.101493856314328
5.550962339385381,-3.0749111166007523,1.0060592777511135,-4.605444647006392,15.760103329112582,-14.973849188885035
5.520213228219374,-2.9173100833096264,0.9600048312810495,-4.755183138895243,16.895734560484552,-13.879153514661626
5.4910401273862774,-2.748352737704781,0.912452999892097,-4.893974674041859,17.988378556298997,-12.838093510780077
5.4635566000092295,-2.568468952141791,0.8635132531516785,-5.02235560914966,19.029824025495433,-11.87129557663863
5.437871910487812,-2.3781707118868365,0.8132896970601818,-5.141068564916046,20.014263407877426,-10.998981392514441
5.414090203368944,-2.178028077808062,0.7618790114110214,-5.251058378841191,20.93860766522688,-10.240706232362731
5.392309922590863,-1.9686420011557932,0.7093684276226095,-5.353465441164818,21.8027319468689,-9.615204125300501
5.372623502579305,-1.7506146816871042,0.6558337732109614,-5.449617482417823,22.609648231573043,-9.140359638778556
5.3551173557624345,-1.5245181993713737,0.6013375983867831,-5.541021078805609,23.365607268042382,-8.833319843738987
5.339872173768721,-1.29086212669095,0.545927387598727,-5.6293542772429985,24.08013741963712,-8.710751949436009
5.3269635525018115,-1.0500607524945786,0.48963384482629707,-5.7164617967373585,24.76603062841728,-8.789241728481619
5.316462944976866,-0.8024004462104058,0.4324692268589235,-5.804354214022175,25.43928320018731,-9.085813617755147
5.308438940514762,-0.5480076142085327,0.37442568471870175,-5.895212350199727,26.118987713253095,-9.618531441055524
5.302958864372677,-0.2868177370760018,0.31547356121670445,-5.9913976646102824,26.827145712631218,-10.40710100239226
5.300090687001917,-0.018546279949689604,0.25555958457060163,-6.095468674634205,27.588317519550927,-11.4733265612711
