th1 (rad),w1 (rad/s),th2 (rad),w2 (rad/s)
6.012689364750991,1.365065048197498,5.793858657153015,-0.32595650676906207
6.026340015232966,1.3681487605115794,5.7905990920853245,-0.27885834542997
6.040021502838082,1.3684279282511995,5.787810508631025,-0.22841306912950834
6.053705782120594,1.3660037675140513,5.785526377939729,-0.17480720277421785
6.067365819795734,1.3609820163686381,5.783778305911987,-0.11823835015407999
6.08097563995942,1.3534702128613487,5.782595922410446,-0.0589112016195871
6.094510342088034,1.343575288329478,5.78200681039425,0.002966107190697141
6.107946094971329,1.3314015355555386,5.782036471466157,0.06718519541171544
6.121260110326884,1.3170489828148992,5.782708323420275,0.1335401445940761
6.134430600155033,1.3006121801191997,5.7840437248662155,0.20182969684802565
6.147436721956225,1.2821793841912332,5.786062021834696,0.2718589538829469
6.160258515798137,1.2618321143627296,5.788780611373525,0.34344060744506644
6.172876836941764,1.2396450424702927,5.792215017447976,0.41639574458911266
6.185273287366467,1.2156861753162564,5.796378974893867,0.49055427777360056
6.197430149119629,1.1900172875114903,5.801284517671602,0.565755051077037
6.209330321994744,1.1626945646097395,5.806942068182373,0.6418456711376991
6.220957267640841,1.1337694205076414,5.81336052489375,0.718682105917373
6.232294961845918,1.1032894583645856,5.820547345952924,0.7961280871275426
6.243327856429564,1.0712995501781966,5.828508626824199,0.8740543439926927
6.254040851931346,1.0378430161633934,5.837249170264126,0.9523376876234666
6.264419282092979,1.0029628908791104,5.846772547140361,1.030859957125019
6.2744489110017705,0.9667032683755516,5.857081146711612,1.1095068310326157
6.284115943685526,0.9291107233063585,5.868176215021938,1.1881665010190776
6.2934070509185895,0.8902358088008087,5.880057880032129,1.2667281992882606
6.302309409006598,0.8501346347499044,5.892725162025012,1.3450805668927268
6.310810755354097,0.8088705318159253,5.9061759676939385,1.423109847680021
6.318899460672256,0.7665158066473334,5.920407066170739,1.500697892060595
6.326564618738729,0.7231535920943505,5.935414045091345,1.577719956810785
6.333796154659672,0.6788797921850106,5.951191244659452,1.6540422923445128
6.340584952581522,0.633805114623539,5.967731667582897,1.7295195181504226
6.346923003727757,0.5880571728852918,5.985026862764402,1.8039918014064649
6.35280357545661,0.5417826248041602,6.003066780778466,1.8772818742791364
6.358221401704652,0.4951492940909872,6.0218395995212575,1.9491919532243753
6.363172894645562,0.44834819486375005,6.041331519053501,2.0195006596700034
6.3676563765942,0.4015953468016636,6.061526525650201,2.0879600861908174
6.371672330062216,0.35513323050974194,6.08240612651211,2.1542932051003847
6.375223662367313,0.3092316908803625,6.1039490585631135,2.2181918750533036
6.378315979276117,0.2641880542213345,6.126130977313647,2.279315761158791
6.38095785981833,0.22032618855503644,6.148924134925235,2.3372925374806575
6.38316112170388,0.177994214315074,6.172297060300041,2.391719776197627
6.384941063847031,0.1375605757710263,6.196214258062017,2.442168930096819
6.386316669604741,0.09940822463378543,6.220635947362986,2.4881917670568394
6.387310751851079,0.06392675871821346,6.2455178650335545,2.5293294997287425
6.387950019438262,0.03150250865722458,6.270811160030842,2.565124658773018
6.388265044524834,0.002506774425897893,6.296462406618573,2.595135483021014
6.388290112269093,-0.02271733234000504,6.322413761448782,2.6189522617496506
6.388062938945693,-0.04386871401920091,6.348603284066279,2.636214701902366
6.3876242518055015,-0.06070181331112047,6.374965431085302,2.6466290668926984
6.38701723367239,-0.07303871511902313,6.401431721754229,2.649983616811925
6.3862868465212,-0.08077867615107827,6.427931557922348,2.6461608419888627
6.385479059759689,-0.08390407912473219,6.454393166342237,2.635145167386169
6.384640018968441,-0.08248212039581866,6.480744618016099,2.6170252142807104
6.383815197764483,-0.07666197912207937,6.506914870158907,2.5919902848387872
6.383048577973263,-0.06666770912332844,6.532834773007295,2.5603213858597274
6.382381900882029,-0.0527875517914209,6.558437986865892,2.522377709960065
6.381854025364115,-0.035360708126119224,6.583661763965492,2.478579936736767
6.381500418282854,-0.01476277822879454,6.608447563332859,2.429391934103185
6.381352790500566,0.008608933733081976,6.632741482673891,2.3753024173630792
6.381438879837897,0.03434921436217845,6.6564945068475225,2.31680789895372
6.381782371981519,0.06205706393802285,6.679662585837059,2.2543979074376987
6.382402942620899,0.09134567715052315,6.702206564911436,2.1885430525759335
6.383316399392404,0.12185009782260597,6.724091995437195,2.1196861355087
6.38453490037063,0.15323259860338462,6.745288856792282,2.048236197113836
6.386067226356664,0.1851860027538508,6.765771218763421,1.9745651851159787
6.387919086384202,0.21743526194996202,6.785516870614581,1.8990068011094197
6.390093439003702,0.2497376416763178,6.804506938625675,1.8218570476727314
6.392590815420466,0.2818818595203157,6.822725509102402,1.7433760121151278
6.395409634015668,0.3136864872906854,6.8401592692235536,1.66379047564863
6.398546498888575,0.3449978789514393,6.8567971739800395,1.5832970067290228
6.4019964776780895,0.3756878330640874,6.87263014404733,1.5020652714984637
6.405753356008731,0.40565114747940473,6.887650796762315,1.4202413639907578
6.409809867483525,0.43480317919076716,6.901853210402222,1.3379510192869324
6.414157899275433,0.46307748514961217,6.915232720595092,1.255302622294504
6.4187886741269295,0.49042359060435226,6.927785746818037,1.172389963313466
6.423692910032973,0.5168049094763347,6.939509646451172,1.089294720153027
6.428860959127737,0.5421968253547094,6.9504025936527025,1.006088666857609
6.434282927381283,0.5665849306944436,6.960463480321279,0.9228356227665162
6.439948776688228,0.5899634146185979,6.969691836548944,0.8395931642268137
6.445848410834413,0.6123335853840108,6.978087768191212,0.7564141261381391
6.451971746688254,0.6337025112713308,6.985651909452594,0.6733479227121935
6.458308771800967,0.6540817627823212,6.992385388679716,0.5904417172148106
6.46484958942879,0.6734862391019024,6.998289805851864,0.5077414696457527
6.471584451819809,0.691933062473646,7.003367220548322,0.4252928897422074
6.4785037824445455,0.7094405252170441,7.007620149445744,0.3431423206632953
6.485598187696716,0.7260270754401179,7.011051572652377,0.2613375764077376
6.492858458451118,0.7417103289967327,7.013664948416454,0.1799287535291276
6.500275561741085,0.7565060968826953,7.015464235951746,0.09896903506709721
6.507840622709912,0.7704274190793947,7.016453926302416,0.018515501776669413
6.515544896900706,0.7834835978941197,7.016639081320183,-0.06137003736410891
6.523379732879647,0.795679226196251,7.016025380946542,-0.140620186869713
6.53133652514161,0.8070132087149241,7.014619179077845,-0.2191610741909511
6.539406657228759,0.8174777778695077,7.012427568335935,-0.2969114270821012
6.547581435007454,0.8270575095804757,7.009458454065115,-0.3737816246378297
6.555852010103259,0.8357283492824252,7.005720637818737,-0.4496727343293958
6.564209293596083,0.8434566640396863,7.001223910475443,-0.5244755551268256
6.5726438602364805,0.8501983433095955,6.995979154924175,-0.5980696958070959
6.581145843669576,0.8558979784923536,6.989998457966104,-0.6703227277950994
6.5897048234544995,0.860488159812296,6.983295230688153,-0.741089463179408
6.598309705052622,0.8638889379848601,6.975884336056359,-0.8102114204728615
6.60694859443247,0.8660075070008171,6.967782221851631,-0.8775165525266205
6.615608669502478,0.8667381723881978,6.959007056326365,-0.9428193216550198
6.62427605122636,0.8659626753581356,6.9495788631098145,-1.0059212149578283
6.632935677979941,0.8635509458471327,6.939519650960237,-1.0666117960745165
6.641571187438412,0.859362354912279,6.928853532999492,-1.1246703858550082
6.650164810987535,0.8532475273698912,6.917606829140942,-1.1798684512059543
6.658697286261234,0.8450507572684847,6.905808144628883,-1.2319727563756642
6.667147793833919,0.8346130405201592,6.893488417065126,-1.28074929256108
6.675493924239121,0.8217757004954431,6.880680924139515,-1.3259679496513472
6.683711681244076,0.8063845347687651,6.867421244643001,-1.3674078298317935
6.691775526591764,0.7882943574828766,6.853747166344683,-1.404863030844491
6.699658470166592,0.7673737569929527,6.839698536036238,-1.4381486538559274
6.707332207736521,0.7435098393527595,6.825317049497679,-1.4671067264364324
6.714767306130049,0.71661269265842,6.810645982233314,-1.491611685786441
6.721933433056633,0.6866192929021889,6.79572986537545,-1.5115750513474167
6.728799625985655,0.6534965846345606,6.780614114861976,-1.5269489370279754
6.735334591832,0.6172435118130116,6.7653446254916965,-1.5377281144244799
6.7415070269501305,0.5778918436201844,6.749967344347452,-1.5439504363154835
6.7472859453863325,0.5355057298701664,6.734527839984297,-1.5456955545040039
6.752641002685034,0.49018002007554223,6.719070884439257,-1.5430820026201053
6.75754280288579,0.4420374764668015,6.703640064413056,-1.536262844983605
6.761963177650458,0.3912250918078561,6.68827743596322,-1.5254202000481294
6.7658754285685365,0.3379097781240304,6.6730232339627396,-1.5107590183659982
6.769254526349777,0.28227371735175083,6.65791564377908,-1.49250052385734
6.772077263523295,0.2245096594280212,6.642990638540507,-1.470875713959495
6.7743223601175755,0.16481642197727747,6.628281881400912,-1.4461192657095308
6.775970524337349,0.10339479610958366,6.613820688743816,-1.4184641218492116
6.777004472298445,0.04044400374646308,6.599636047525324,-1.388136946082499
6.777408912335909,-0.023841208298895078,6.585754678064499,-1.3553545512992495
6.777170500252921,-0.08927280687948223,6.572201132551506,-1.3203213280522945
6.776277772184126,-0.15567105779822374,6.5589979192709835,-1.2832276386899828
6.774721061606144,-0.22286550466432295,6.546165642884084,-1.2442490978603773
6.7724924065595005,-0.2906954089408945,6.53372315190548,-1.2035466324459476
6.769585452470092,-0.359009728918467,6.521687685581021,-1.1612672012969858
6.765995355180907,-0.4276667169130312,6.510075013568051,-1.1175450543153442
6.761718688011777,-0.49653320936340894,6.498899563024898,-1.0725034180936628
6.756753355918143,-0.5654836759476846,6.4881745288439605,-1.0262565082303603
6.751098519158666,-0.6343990832884249,6.477911963761657,-0.9789117838931338
6.744754528325782,-0.7031656178004388,6.468122845922726,-0.9305723760641695
6.737722872147777,-0.7716733018785094,6.458817122162084,-0.8813396356193179
6.730006139128991,-0.8398145287049821,6.450003725805891,-0.8313157599143496
6.721607993841942,-0.9074825339911822,6.441690568206747,-0.7806064661920661
6.71253316850203,-0.9745698182812161,6.433884503544826,-0.7293236864586864
6.702787470319217,-1.0409665312577725,6.426591266680239,-0.6775882612359161
6.69237780500664,-1.106558829952357,6.4198153840678795,-0.6255326085877883
6.681312216707116,-1.1712272260009908,6.413560057982002,-0.5733033399023301
6.669599944447106,-1.234844943197312,6.4078270245829785,-0.5210637849700945
6.657251495015133,-1.2972763156236045,6.4026163867332775,-0.46899637591311366
6.644278731858897,-1.3583752685270996,6.397926422974146,-0.41730482260212676
6.630694979173626,-1.41798393860512,6.393753374748125,-0.3662159917581624
6.616515139787575,-1.475931506915269,6.3900912148305435,-0.31598137881098537
6.601755824718422,-1.5320333352407274,6.386931401042434,-0.266878037266513
6.586435491366015,-1.5860905138330283,6.384262620669769,-0.21920880714977564
6.570574586227685,-1.6378899427325422,6.382070532598271,-0.1733016653888058
6.55419568680036,-1.68720507727567,6.380337515944383,-0.12950801122206113
6.537323636027603,-1.7337974672054348,6.3790424358321625,-0.08819970423502237
6.519985661355548,-1.7774192038964949,6.378160438789812,-0.04976469736317085
6.502211469316583,-1.8178163576713842,6.377662791816181,-0.014601157715325067
6.484033305739869,-1.8547334341895736,6.377516780239027,0.016889951658592958
6.465485971397974,-1.8879188048229931,6.377685679755613,0.04431374518961527
6.446606783349744,-1.9171309736078672,6.378128817207509,0.06729152259007992
6.427435473613666,-1.9421454399791167,6.37880173243341,0.08547173768310219
6.408014019213875,-1.9627618138811525,6.379656449810241,0.09854130409313877
6.3883864010750635,-1.9788107536011676,6.3806418628511725,0.10623658726509648
6.368598293539052,-1.9901602439006074,6.381704228723824,0.10835335528097222
6.348696691100046,-1.996720727899109,6.382787762276633,0.10475495539809665
6.328729483821055,-1.998448659924107,6.383835311830614,0.09537806262449094
6.308744997221814,-1.9953481580549188,6.384789092456859,0.08023551090933359
6.2887915156412655,-1.9874705933058465,6.385591447565952,0.05941595073953085
6.268916809708207,-1.9749121364549103,6.386185607073347,0.03308034891972489
6.2491676883436575,-1.9578094666809622,6.386516410562544,0.0014556182245535829
6.229589593676848,-1.9363340014856638,6.38653096674479,-0.035174102844005635
6.210226253661991,-1.9106851135936045,6.38617922571635,-0.07647783803803763
6.191119402526056,-1.8810828463318408,6.385414447335969,-0.12208907262516076
6.172308574062737,-1.8477606245143077,6.384193556609717,-0.17161722127977713
6.153830967817594,-1.810958393227776,6.382477384396919,-0.22465860980698438
6.135721383885317,-1.770916518713153,6.380230798298849,-0.28080645422190853
6.118012218698185,-1.7278706724261033,6.37742273375663,-0.33965948265038853
6.100733511973924,-1.682047808231122,6.374026138930126,-0.4008290065662159
6.083913033891612,-1.6336632461014131,6.370017848864464,-0.46394438956223
6.067576401430598,-1.5829188009432718,6.365378404968841,-0.5286569732164509
6.051747213421165,-1.530001844577987,6.360091835236677,-0.5946425968119305
6.036447194975385,-1.475085161054791,6.354145409268558,-0.6616028923502959
6.021696343364837,-1.4183274465548208,6.347529380345055,-0.7292655535730492
6.007513068899289,-1.359874310391055,6.3402367248093245,-0.7973837742356035
5.993914325795378,-1.2998596482223568,6.332262887066968,-0.8657350334336416
5.980915729313155,-1.2384072784070352,6.323605536732632,-0.9341193803192802
5.968531656529085,-1.1756327541455502,6.314264342929439,-1.0023573417906955
5.9567753289876295,-1.111645285356774,6.304240769511532,-1.0702875481120797
5.945658876134062,-1.0465497235672965,6.293537894030411,-1.1377641451798728
5.935193378898389,-0.9804485795705711,6.282160252578612,-1.204654039645523
5.925388893102683,-0.9134440567694101,6.270113712182157,-1.2708340050496556
5.916254452534989,-0.8456400927450909,6.257405372131661,-1.336187663850954
5.907798051607538,-0.7771444076043165,6.244043495493151,-1.4006023519052366
5.900026607531495,-0.7080705599513176,6.230037471974098,-1.4639658687082353
5.892945901931982,-0.6385400097621804,6.215397813287016,-1.526163118786722
5.88656050183436,-0.5686841817524656,6.200136182099149,-1.5870726573698455
5.880873660016835,-0.4986465126911107,6.18426545552545,-1.6465631673894876
5.875887194889924,-0.4285844511550295,6.1677998238515555,-1.7044899155002615
5.871601350378374,-0.35867135814961637,6.150754924696553,-1.7606912626451725
5.868014636796878,-0.2890982318079293,6.133148012070102,-1.814985339859377
5.865123654478799,-0.22007514950933965,6.114998158671508,-1.8671670419501998
5.862922902983706,-0.1518322875660078,6.096326488252006,-1.9170055387018994
5.861404580108045,-0.08462034470552089,6.077156432864987,-1.9642425518885933
5.8605583766609906,-0.018710165173972934,6.057514007346101,-2.00859169090378
5.860371275009251,0.045608663431572535,6.037428090437063,-2.049739171785595
5.860827361643566,0.1080304654420489,6.016930698719207,-2.0873462526737487
5.861907666297987,0.16823758912182893,5.9960572361924696,-2.121053690145802
5.863590042189205,0.22590611823777093,5.974846699291011,-2.1504884421893076
5.865849103371583,0.2807132216651714,5.953341814869118,-2.1752727045518565
5.868656235588235,0.33234602999963586,5.9315890878236,-2.195035165027624
5.871979695888231,0.3805117408288078,5.909638736173323,-2.2094241041722507
5.875784813296519,0.4249484479913872,5.887544495131601,-2.2181216860841406
5.880034297776433,0.46543599536695135,5.86536327827076,-2.220858510707712
5.884688657730103,0.5018060113977829,5.843154693163682,-2.217427292894591
5.8897067178440805,0.5339502262530096,5.820980420234736,-2.2076944479455514
5.895046220106611,0.5618262388795924,5.798903475755281,-2.191608439994989
5.900664482495407,0.5854600948326717,5.7769873913553305,-2.1692040015410794
5.906519083443734,0.6049453387642092,5.75529535133992,-2.1406017350244375
5.912568536831376,0.6204385720348565,5.7338893339896755,-2.1060030991831247
5.9187729225517245,0.6321519132337065,5.712829302997844,-2.065681278759194
5.925094441684061,0.6403430632721179,5.692172490210252,-2.019968848601618
5.931497872316783,0.6453038682799156,5.671972801724236,-1.9692434054258756
5.937950910999581,0.6473483306704051,5.652280367669977,-1.9139124218793258
5.944424394306285,0.646800948850316,5.633141243451184,-1.8543984876663278
5.950892403794788,0.6439861000583235,5.614597258574521,-1.7911258828849443
5.9573322647953715,0.6392189618272197,5.596685999745671,-1.72450913758454
5.963724454413644,0.6327982387450864,5.5794409083698255,-1.6549439271304471
5.970052436801095,0.6250007566613939,5.562891469098521,-1.5828003812404132
5.976302444367708,0.6160778269782947,5.547063465286117,-1.508418673366128
5.982463222637492,0.6062531766325466,5.5319792785524555,-1.4321066162837568
5.988525754403817,0.5957221819673765,5.517658212389618,-1.3541389153098808
5.994482976223491,0.5846521278688774,5.504116823236519,-1.2747577101408305
6.00032949750218,0.5731832258269159,5.49136924613511,-1.1941740544040633
6.006061329760449,0.5614301548307682,5.47942750559107,-1.1125700236105804
6.011675631308757,0.549483927971495,5.468301805354964,-1.0301011949215746
6.017170470588471,0.5374139285150367,5.458000793405748,-0.9468992969743767
6.022544609873622,0.5252699976460299,5.448531800436005,-0.8630748791773188
6.027797309850082,0.5130844896527476,5.439901051644231,-0.7787198942628438
6.032928154746609,0.5008742380668082,5.432113852701603,-0.693910124298988
6.0379368971272775,0.4886423981763598,5.425174751458613,-0.6087074088744658
6.042823321109041,0.4763801479356732,5.419087677369868,-0.5231616555801414
6.047587122588397,0.46406824139245184,5.413856060814067,-0.43731262832340223
6.052227805002322,0.45167841720874685,5.409482934530833,-0.35119151961834993
6.05674458917441,0.43917467047951136,5.4059710193346495,-0.26482231990668853
6.061136335879205,0.4265143995711861,5.4033227961355825,-0.17822300114952183
6.065401479874916,0.4136494417075281,5.401540566124087,-0.09140653418840008
6.0695379742919915,0.4005270119988002,5.400626500782203,-0.0043817603408880385
6.0735432444119795,0.3870905609153105,5.400582683178794,0.08284586213655248
6.0774141500211325,0.37328056513072677,5.40141114180016,0.1702736163451226
6.081146955672439,0.35903526641796013,5.4031138779636105,0.25790096983500244
6.084737308336619,0.3442913730304863,5.405692887661961,0.3457290828776222
6.088180222066923,0.3289847378651425,5.409150178490737,0.43376036244352956
6.091470069445575,0.3130510277712968,5.413487782115173,0.5219980422178406
6.094600579723288,0.29642639871956306,5.418707762537351,0.610445768366784
6.097564843710484,0.27904819223227983,5.4248122202210185,0.699107169644825
6.1003553256328065,0.2608556695608479,5.431803291917467,0.7879853887318399
6.102963882328415,0.2417908016181991,5.439683145804785,0.8770825493500227
6.105381790344596,0.22179913467702872,5.448453971298285,0.9663991306744463
6.107599781691366,0.20083075435299552,5.45811796260503,1.0559332167760533
6.1096080892348965,0.17884137341358164,5.468677294772791,1.1456795843014942
6.111396502969033,0.15579357245986375,5.480134090615805,1.235628586322835
6.112954438693631,0.13165822643571007,5.492490376479034,1.3257647843748965
6.114271020957988,0.10641615405340389,5.5057480243227825,1.4160652743463356
6.115335182498522,0.08006003127720783,5.519908677066246,1.506497645486975
6.116135782811294,0.052596613467323125,5.534973653521115,1.5970175059874527
