th1 (rad),w1 (rad/s),th2 (rad),w2 (rad/s)
2.0230405823885893,-1.4139993604911283,5.711568542307046,-1.805905335579747
2.008900588783678,-1.5234799072358687,5.693509488951249,-1.8359995667864362
1.9936657897113192,-1.6323841307082647,5.675149493283385,-1.862748335771525
1.9773419484042365,-1.7405931364096208,5.65652200992567,-1.885885493250474
1.9599360170401403,-1.8479807253072429,5.637663154993165,-1.9051401957465557
1.9414562097870678,-1.9544128402271086,5.618611753035699,-1.920235899085032
1.9219120813847967,-2.059747064124375,5.599409394044849,-1.9308894386786617
1.901314610743553,-2.163832215828767,5.580100499658062,-1.9368102659115791
1.8796762885852654,-2.266508097890998,5.560732396998946,-1.9376999208279355
1.8570112076063554,-2.367605460047629,5.541355397790667,-1.9332518312271545
1.833335153005879,-2.4669462500494954,5.522022879478396,-1.9231515362615892
1.808665690505384,-2.564344230483733,5.5027913641157795,-1.9070774376014237
1.7830222482005467,-2.659606044913762,5.483720589739765,-1.8847021818185736
1.7564261877514091,-2.7525328181477047,5.46487356792158,-1.855694772273297
1.728900859569932,-2.842922372558236,5.446316620198847,-1.819723495734535
1.7004716358443497,-2.9305721338584423,5.428119385241502,-1.7764597264555777
1.6711659145057653,-3.0152827843415975,5.410354787976947,-1.7255826368306137
1.6410130866623494,-3.096862698237497,5.393098961608641,-1.6667847978513752
1.6100444596799743,-3.1751331618271617,5.376431113630127,-1.5997785938906879
1.5782931280617027,-3.2499343402472345,5.36043332769122,-1.5243033055333737
1.5457937846592305,-3.321131904414546,5.345190294635887,-1.4401326334880784
1.512582465615085,-3.3886241773624772,5.330788968301006,-1.3470823501934799
1.4786962238414603,-3.4523496031142953,5.317318144799071,-1.2450176798275239
1.4441727278103174,-3.512294288152013,5.304867968000796,-1.1338599302884491
1.4090497849287973,-3.568499322033933,5.293529368697912,-1.0135918420851042
1.373364791708458,-3.6210675570708935,5.28339345027706,-0.8842610891967844
1.337154116137749,-3.6701695245018158,5.274550839385093,-0.7459813751139523
1.3004524208927308,-3.7160481925256166,5.267091025633953,-0.5989306199316833
1.2632919389674746,-3.759022333720091,5.261101719434636,-0.4433458333270534
1.2257017156302736,-3.7994883662089505,5.256668261101366,-0.27951440903321445
1.187706831968184,-3.8379206606337117,5.253873117011033,-0.1077617474805487
1.149327625361847,-3.8748704555349995,5.252795499536228,0.07156470365672288
1.110578920806497,-3.9109636857556747,5.253511146572795,0.2581147295033195
1.0714692839489401,-3.9468981888706414,5.2560922938678285,0.4515575521474404
1.0320003020602337,-3.9834409009788203,5.260607869389303,0.6516064884513371
0.9921658930504456,-4.021425776129048,5.267123934273816,0.8580455972845048
0.951951635289155,-4.061753259087425,5.275704390246661,1.0707579502934066
0.9113341026982809,-4.105392211430153,5.286411969749595,1.2897553538949482
0.8702801805839794,-4.1533852447960715,5.299309523288544,1.5152096338524426
0.8287463281360187,-4.206858466103847,5.314461619627068,1.7474859555760505
0.7866777434749802,-4.2670367026245835,5.331936479182829,1.9871790755152192
0.7440073764487344,-4.335265360581849,5.351808269937981,2.235153876814823
0.7006547228429159,-4.413040175263449,5.374159808706129,2.4925919953498417
0.6565243210902814,-4.50204619492107,5.399085728659628,2.761046711236427
0.6115038591410706,-4.604207292129761,5.426696195771992,3.0425083945959264
0.565461786219773,-4.721747043299423,5.457121279717952,3.3394822715979107
0.5182443157867789,-4.857260348819548,5.490516102433931,3.655078272966956
0.4696717122985834,-5.013791342772778,5.527066885163601,3.9931073873555927
0.4195337988708556,-5.194904053465763,5.566997959037157,4.358166225776733
0.36758475833619797,-5.404711661373675,5.610579621294924,4.755662685145346
0.31353764172246124,-5.647784777721548,5.658136248146378,5.191672133868163
0.25705979394524575,-5.928761774084209,5.7100529694850595,5.672377441259817
0.19777217620440365,-6.251284108957759,5.766776743897657,6.202566379316938
0.13525933511482607,-6.61550422265532,5.8288024076908265,6.7821345321866735
0.06910429288827288,-7.01286019210189,5.896623753012693,7.398766521079865
-0.0010243090327460153,-7.416618894536658,5.970611418223491,8.014698164145537
-0.0751904979781126,-7.76935783672581,6.050758399864947,8.54920482507201
-0.1528840763453707,-7.979579781299951,6.136250448115667,8.873928617010064
-0.23267987415837021,-7.955606774587555,6.224989734285767,8.860515828332689
-0.31223594190424575,-7.6798385328721706,6.313594892569094,8.484760205286262
-0.3890343272329675,-7.238163417180729,6.398442494621957,7.867619635379306
-0.4614159614047748,-6.747731080710729,6.47711869097575,7.173820872473156
-0.5288932722118821,-6.284065457238636,6.548856899700482,6.50983619018174
-0.5917339267842685,-5.875409334816134,6.6139552616023,5.916022341859126
-0.6504880201324299,-5.524615508064885,6.673115485020891,5.3972083397947
-0.7057341752130788,-5.225322007632429,6.727087568418838,4.945273494260991
-0.7579873952894031,-4.969227582139652,6.776540303361448,4.5493090050788165
-0.8076796711107996,-4.74863220953667,6.8220333934122355,4.199181055384364
-0.8551659932061664,-4.5570760237534715,6.864025203966079,3.8864437595263945
-0.9007367534437011,-4.389325274672119,6.902889641561344,3.604340036622114
-0.9446300061904223,-4.2411776913014245,6.938933041927565,3.3475477671236
-0.9870417831034365,-4.1092493029155035,6.972408519598801,3.1118969374173613
-1.0281342761325916,-3.9907905240753836,7.003527488972975,2.8941245600886774
-1.0680421813733454,-3.883539832435142,7.032468734573862,2.691679166315346
-1.1068775796976968,-3.7856111751847483,7.0593855262370155,2.50256959517563
-1.1447336914495443,-3.6954085867568702,7.084411222188772,2.3252490111747166
-1.181687777317113,-3.6115619058244097,7.107663712300519,2.1585255721478878
-1.2178033963753572,-3.532878643834973,7.129248968021997,2.0014927559327114
-1.253132182813707,-3.458308216549849,7.149263895581324,1.8534739778285
-1.2877152649792054,-3.3869156935302125,7.167798635359609,1.7139774999317436
-1.3215844219145074,-3.3178629268491933,7.184938410358926,1.5826587163465597
-1.3547630511829993,-3.2503954249998444,7.200764997522392,1.459287738855303
-1.3872670054329979,-3.183833687258705,7.2153578749109455,1.3437208602881558
-1.4191053423055848,-3.117567950254927,7.228795083513827,1.235874982254397
-1.4502810218081341,-3.051055457869067,7.241153833336371,1.1357044911406335
-1.4807915763868247,-2.9838194767056945,7.252510878247778,1.0431803704531184
-1.5106297711538816,-2.915449365004242,7.262942681952309,0.9582715593332525
-1.5397842648039242,-2.8456010801266047,7.272525397545641,0.8809287123599362
-1.5682402756051903,-2.773997590474912,7.28133468466924,0.8110705892190685
-1.5959802515099395,-2.700428748432924,7.28944539056143,0.7485733104633092
-1.6229845389942688,-2.6247502834102323,7.296931123666063,0.693262666381553
-1.649232041828371,-2.5468816858427266,7.303863750329879,0.6449095724118352
-1.6747008586867982,-2.466802868503036,7.310312846053997,0.6032286419377482
-1.6993688873718285,-2.384549603393648,7.316345132473375,0.5678797125768161
-1.723214383405765,-2.3002078332304077,7.322023929599143,0.5384720317061003
-1.746216461738069,-2.213907039479458,7.3274086499162046,0.514570695259642
-1.7683555321328637,-2.125812909453288,7.332554356868801,0.4957048513713798
-1.7896136612273965,-2.036119580925887,7.337511405382515,0.4813771333200773
-1.8099748570366554,-1.9450417544037109,7.342325176715716,0.4710737759596235
-1.8294252745806925,-1.8528069530323987,7.3470359144753115,0.464274893839711
-1.8479533441110165,-1.7596481821145706,7.351678663413709,0.46046445192272506
-1.8655498259321623,-1.6657971992079095,7.3562833079329355,0.45913953368114324
-1.8822077979242415,-1.5714785568308316,7.360874703269747,0.45981859818937665
-1.89792258349255,-1.4769045276905397,7.365472889251641,0.4620485096375045
-1.9126916287694553,-1.3822709711681838,7.3700933743480155,0.4654102125067775
-1.9265143384811372,-1.2877541527844134,7.374747476473083,0.46952300789861223
-1.9393918800089813,-1.19350848782384,7.379442706552069,0.4740474572557293
-1.9513269648872198,-1.099665147607542,7.384183181124627,0.4786869966142275
-1.962323616363295,-1.0063314426445382,7.3889700510907685,0.4831883866826069
-1.9723869307897406,-0.9135908809650026,7.393801934957595,0.4873411517619922
-1.9815228395993907,-0.8215037917165511,7.398675346475215,0.490976175016659
-1.9897378775165562,-0.7301084026016605,7.403585108225381,0.49396362070779204
-1.9970389615425728,-0.6394222637437433,7.408524744432459,0.49621034789042806
-2.00343318418001,-0.5494439188000455,7.413486847911363,0.4976569670229388
-2.0089276233680105,-0.4601547353216706,7.4184634175815924,0.49827467314580465
-2.013529170721227,-0.37152081932857833,7.4234461643130505,0.49806196872776853
-2.017244378914513,-0.2834949528130515,7.428426784000328,0.49704136762393375
-2.0200793284426433,-0.19601850659026357,7.433397197676567,0.4952561501689298
-2.022039513508546,-0.10902329395747373,7.438349759178256,0.4927672192194739
-2.0231297464481206,-0.022433342570107193,7.443277431370451,0.489650088624489
-2.0233540798738217,0.06383342747392119,7.4481739322566956,0.4859920195209417
-2.0227157455990823,0.14986362226058264,7.453033852451905,0.4818893061908232
-2.0212171093764764,0.23574688474345923,7.457852745513813,0.4774447019645382
-2.0188596405290418,0.3215744867266315,7.462627192533459,0.472764966702282
-2.0156438956617753,0.40743798665655817,7.467354842200482,0.46795851054873894
-2.01156951579521,0.4934279342597875,7.472034427305969,0.46313310373660704
-2.006635236452612,0.5796326007370658,7.476665758343335,0.4583936190208316
-2.0008389104452413,0.6661367119503454,7.481249694533544,0.4538397717034827
-1.9941775433257378,0.7530201617523788,7.485788092250578,0.4495638220577667
-1.986647341708214,0.8403566832813908,7.490283730471156,0.44564820624222656
-1.9782437748754,0.9282124576896031,7.4947402125335785,0.44216306454660353
-1.9689616502985041,1.0166446424503428,7.499161843179045,0.43916364013372183
-1.9587952038740006,1.1056998051901725,7.503553479580382,0.43668752750779793
-1.947738205822099,1.1954122540500771,7.50792035485546,0.4347517579751572
-1.935784083281598,1.2858022620477674,7.512267872435212,0.4333497196338721
-1.9229260606611203,1.3768741909566042,7.516601369631551,0.43244792221439116
-1.9091573187515543,1.4686145299918887,7.520925848853695,0.4319826326552537
-1.8944711734516353,1.5609898762253522,7.525245675180248,0.43185642583554434
-1.8788612746893818,1.653944897192245,7.529564239438603,0.43193471648015525
-1.8623218257174594,1.7474003315689608,7.533883586603404,0.432042362801245
-1.8448478224017697,1.8412511008929497,7.538204010231417,0.43196045957105117
-1.8264353113928402,1.9353646236851725,7.542523614827127,0.4314234673156717
-1.8070816651559884,2.029579442383917,7.5468378495002835,0.4301168540074917
-1.7867858707321493,2.123704292270337,7.551139018040359,0.4276754543074138
-1.765548827809446,2.2175177587724972,7.555415772583433,0.42368277674133525
-1.743373650221721,2.310768683501118,7.559652600350846,0.41767150819663806
-1.72026596338671,2.4031774880222327,7.5638293154328125,0.4091254741383917
-1.6962341885064876,2.4944385852617685,7.567920570174197,0.39748330773404794
-1.6712898026538698,2.584224038826243,7.5718954032515375,0.3821440570144399
-1.6454475622656075,2.672188607548312,7.575716843821682,0.3624749116192311
-1.6187256761901243,2.7579762735072446,7.579341592937874,0.33782115539427865
-1.5911459134550519,2.84122829446148,7.582719804491817,0.307518345169496
-1.5627336305104371,2.921592744982123,7.585794987943512,0.2709065786601438
-1.533517703060616,2.998735415269566,7.588504053730113,0.2273465480744653
-1.5035303489079204,3.0723518258383105,7.5907775192108575,0.17623688751979533
-1.4728068306495372,3.1421799963012718,7.592539888086056,0.11703212379133171
-1.4413850306865246,3.208013487297977,7.5937102093239695,0.04926034934779701
-1.4093048958135448,3.26971412962659,7.594202812817447,-0.027460423963939176
-1.3766077545172788,3.327223779965985,7.5939282085778075,-0.11340837556278446
-1.3433355167176189,3.380574415206756,7.59279412482218,-0.20874761756236954
-1.3095297725655513,3.4298959125085737,7.590706648646556,-0.31352265119847905
-1.2752308134404655,3.475420969732749,7.587571422134571,-0.4276584261094723
-1.240476603743138,3.5174868023012777,7.583294837873477,-0.5509665842714583
-1.2053017357201252,3.556533498321351,7.5777851720307625,-0.6831580775245769
-1.1697364007369118,3.593099203090179,7.570953591255517,-0.8238619089371746
-1.1338054087060099,3.627812606640424,7.562714972166145,-0.9726493184451773
-1.0975272826396056,3.661383488957492,7.552988478981693,-1.1290623724065727
-1.0609134477500308,3.6945923039414206,7.541697855257627,-1.292645679881898
-1.0239675247106166,3.728279930869627,7.528771398458808,-1.462979885031442
-0.9866847254019203,3.76333878092929,7.514141599608494,-1.6397156916866753
-0.9490513375926274,3.800706422820188,7.497744442691627,-1.8226074547806193
-0.9110442733644255,3.8413628075533723,7.479518368143821,-2.011545794751269
-0.8726306452888918,3.8863320619492114,7.459402910196308,-2.2065892135358345
-0.8337673246693996,3.93668972211161,7.43733701806095,-2.4079952707307886
-0.7944004274482835,3.9935762308432383,7.413257065353642,-2.6162524802589924
-0.7544646651398511,4.058217559030125,7.387094540551052,-2.832114690029972
-0.7138824895495499,4.131953952086256,7.358773393650752,-3.0566403025782627
-0.6725629500286874,4.216278053234406,7.328206990624969,-3.291239282257882
-0.6304001694963434,4.312883990541448,7.295294597802391,-3.5377314558175725
-0.5872713295909289,4.423729348473216,7.259917283244215,-3.798420062045406
-0.5430340361061967,4.551112057670623,7.221933082623761,-4.07618457960629
-0.49752291552949046,4.697763605319518,7.181171236827698,-4.374595878180875
-0.4505452794762953,4.8669573773376165,7.137425278045889,-4.698053051791264
-0.40187570570291914,5.062623601054046,7.090444747527976,-5.051931065006215
-0.3512494696923787,5.289443894973521,7.039925436877914,-5.442702746403622
-0.29835503074264347,5.5528544517743255,6.985498409413878,-5.8779376583794125
-0.24282648622490022,5.858785500548646,6.926719032830084,-6.36593945092529
-0.18423863121941375,6.212739041738914,6.863059638320831,-6.914468859064919
-0.12211124080202462,6.617335929296441,6.793914949730182,-7.527341605220885
-0.055937881509060206,7.066624073302268,6.718641533677973,-8.196514648683943
0.014728359223962484,7.53459368394762,6.636676387191133,-8.886082246192121
0.09007429606343868,7.957359984041767,6.547815564729212,-9.507405068992481
0.16964789590385634,8.222261038948266,6.452741514039287,-9.903880416552203
0.251870506293339,8.205554400222823,6.353702709873765,-9.903648794782994
0.33392605029556727,7.877812149067792,6.254666221925936,-9.466747464614045
0.4127041717862452,7.353386111755176,6.159998747279795,-8.753556852623534
0.48623803290379697,6.784179108395209,6.07246317875356,-7.976005898643512
0.554079823987749,6.258554748129892,5.992703119767125,-7.257030158393443
0.616665371469048,5.803137785764498,5.92013281818319,-6.633675206354
0.674696749326693,5.4160531039282835,5.85379606611965,-6.103538190100101
0.7288572803659759,5.087074777208852,5.792760684218649,-5.652750213846696
0.7797280281380644,4.805330851958401,5.736233182080182,-5.266622784283686
0.8277813366576484,4.5614937114866665,5.683566954237346,-4.932653362387527
0.873396273772515,4.3480709786467395,5.63424042061347,-4.640913286812026
0.9168769835589825,4.1591594002428005,5.58783128774535,-4.383701895857617
0.9584685775614105,3.9901095250588647,5.543994268786774,-4.155082406313646
0.9983696728119991,3.837228995331799,5.502443444723637,-3.9504734277477143
1.0367419627653172,3.6975487829181466,5.46293871044616,-3.766327925370422
1.0737174505944986,3.5686467215477196,5.425275431192456,-3.5998906378178894
1.109403917809976,3.4485164738028105,5.389276524814277,-3.4490166951691874
1.1438890825480041,3.335470875679937,5.354786357862586,-3.3120354405605377
1.1772437913048035,3.228070965646543,5.32166600345698,-3.1876467892158438
1.209524500961269,3.125074281432875,5.289789535564822,-3.0748406495959277
1.2407752437755977,3.025397801229782,5.259041129068862,-2.9728324833410693
1.2710292217878956,2.928092205008139,5.229312804235452,-2.8810100148446307
1.300310143837977,2.8323250201905594,5.200502704087006,-2.7988875635706383
1.3286333940398825,2.737370784410425,5.172513828451299,-2.7260656090666022
1.3560071018839868,2.6426066828612003,5.145253172360633,-2.662194122848409
1.3824331687125988,2.547512261735067,5.118631231132149,-2.6069389859210976
1.4079082913299494,2.4516718387832985,5.092561841272937,-2.5599514901398264
1.4324250097177824,2.354778183159694,5.066962326371539,-2.5208414955230523
1.4559727915493794,2.25663597872737,5.041753911416309,-2.489155254606999
1.478539151336653,2.157163579498242,5.016862358870239,-2.4643591703081293
1.5001107871316355,2.0563916706210033,4.992218767167158,-2.44583077243831
1.5206747038378454,1.954457706697881,4.967760459442775,-2.4328579418557768
1.5402192809048243,1.851595427278368,4.9434318800242165,-2.4246468777946295
1.558735235177608,1.7481193250545546,4.9191854112462705,-2.420338542727015
1.5762164284281537,1.6444046014335498,4.894982025819,-2.4190324364741147
1.5926604744424893,1.5408637879952234,4.870791701454259,-2.419815698202911
1.6080691123224415,1.4379217270150622,4.8465935444722295,-2.4217948777107585
1.6224483295925922,1.335990888882274,4.822375595695122,-2.424127397134932
1.635808238481415,1.2354489992227153,4.798134321723772,-2.426049817812319
1.6481627284736422,1.1366206539347397,4.773873823545649,-2.4269005234182854
1.6595289350129896,1.039764077517918,4.749604818311465,-2.42613523214584
1.6699265757881687,0.9450635350275336,4.725343465990007,-2.4233347002347245
1.679377211138444,0.8526272625151632,4.70111011898766,-2.418204902420895
1.6879034837635956,0.7624902416758723,4.67692806996345,-2.4105707244462633
1.6955283861803543,0.6746207806777522,4.652822362718988,-2.40036468850777
1.7022745939871318,0.5889296974548115,4.62881871583391,-2.38761243141565
1.7081638909616799,0.5052809154622556,4.6049425915197535,-2.3724166017704422
1.7132167001163023,0.42350242928335835,4.581218425502049,-2.354940607033949
1.7174517244091358,0.34339682251257186,4.55766901943171,-2.335393305914909
1.7208856926342615,0.264750770806193,4.534315086372561,-2.3140153799652503
1.7235332003423234,0.18734319910280223,4.511174932572908,-2.2910677852971215
1.7254066323333515,0.11095195934395459,4.488264254719937,-2.2668224129465906
1.726516151926791,0.03535904320401037,4.465596030590471,-2.241554886745112
1.7268697423588313,-0.03964555649382524,4.4431804817230205,-2.2155392982901616
1.726473286793893,-0.11426116528751148,4.421025088740119,-2.1890446089548705
1.7253306751410178,-0.18867473345113656,4.39913464265057,-2.1623324246279316
1.7234439278065063,-0.263059934779643,4.377511318404291,-2.1356558558417444
1.72081332845871,-0.3375768776054497,4.356154759845873,-2.1092592019222747
1.7174375596826554,-0.41237227001325066,4.335062167826651,-2.083378233333818
1.713313836982523,-0.4875799063217093,4.314228385493313,-2.0582408848314526
1.7084380379193058,-0.5633213667299997,4.293645976644998,-2.03406820910218
1.7028048242520057,-0.6397068446806983,4.2733052945539765,-2.0110754738562555
1.6964077558051989,-0.7168360360323801,4.253194539815414,-1.9894733137266467
1.689239395444875,-0.7947990402785655,4.233299806678148,-1.9694688716153672
1.6812914050420893,-0.8736772369070098,4.213605117961994,-1.9512668825736197
1.6725546326730192,-0.9535441098956507,4.194092449136258,-1.9350706674668339
1.6630191915740626,-1.034466000715662,4.17474174246159,-1.921083014205887
1.652674531566906,-1.1165027755041117,4.155530912319531,-1.9095069318736972
1.641509503811865,-1.199708395700389,4.136435843000794,-1.900546268241123
1.6295124198548612,-1.2841313837878272,4.117430380318383,-1.8944061844703755
