th1 (rad),w1 (rad/s),th2 (rad),w2 (rad/s)
5.718932253232434,-2.3246548905964732,2.878442900003303,1.4957162200094714
5.695685704326469,-2.2427180827631386,2.8934000622033977,1.5645015315628255
5.673258523498838,-2.1584730764619713,2.909045077519026,1.6366102428171794
5.651673792734218,-2.0727483752246045,2.925411179947198,1.7108857438927632
5.630946308981972,-1.9862951762367522,2.9425200373861258,1.7863029834680262
5.611083357219605,-1.8997779103878472,2.960383067220806,1.8619805388459731
5.592085578115726,-1.8137702791614896,2.9790028726092657,1.9371842708869005
5.573947875324111,-1.7287558791185942,2.9983747153181346,2.0113240996982484
5.556660316532925,-1.6451323943438159,3.0184879563151172,2.0839455779589358
5.540208992589487,-1.5632183391204872,3.0393274120947065,2.1547178993622715
5.524576809198282,-1.483261417990117,3.060874591088329,2.2234198120224216
5.509744195018381,-1.4054477072287817,3.0831087892085534,2.289924663586364
5.495689717946093,-1.3299110226250799,3.106008035844417,2.354185532149969
5.482390607719842,-1.256742001103222,3.1295498911659165,2.4162211298843457
5.46982318770881,-1.1859965728908437,3.15371210246476,2.4761029275729145
5.4579632219799015,-1.1177036277712022,3.178473131740489,2.533943750268791
5.446786185702189,-1.051871779980473,3.203812569243177,2.5898879407473756
5.436267467902384,-0.9884952118192208,3.229711448650651,2.6441030762635065
5.4263825157841925,-0.9275586287091839,3.256152479413286,2.6967731498425342
5.417106929497101,-0.8690413920758793,3.2831202109117115,2.748093082979572
5.408416515576342,-0.8129209152110168,3.310601141741507,2.7982644150857645
5.400287306424232,-0.7591754150573656,3.338583785892365,2.84749200985795
5.392695552273659,-0.707786113014545,3.3670587059909445,2.895981624560473
5.385617691143513,-0.6587389730907771,3.3960185222365493,2.9439382007514254
5.379030301412605,-0.6120260580855464,3.4254579042440634,2.9915647511039127
5.37291004083175,-0.5676465754747477,3.4553735517551023,3.0390617344423436
5.367233575077002,-0.5256076753060204,3.4857641690995256,3.0866268284579603
5.361977498323942,-0.48592505335153346,3.516630437384105,3.1344550258771195
5.357118247790426,-0.44862340438573817,3.5479749876428763,3.1827389946279365
5.352632013746569,-0.41373676293322814,3.579802377589156,3.231669655560236
5.348494646117237,-0.381308762201762,3.612119074144758,3.2814369424686376
5.344681558495219,-0.3513928361129805,3.6449334435694447,3.332230718592919
5.341167630134089,-0.3240523842311653,3.678255750755374,3.3842418315030423
5.337927106291778,-0.299360914772653,3.7120981690704045,3.437663294386915
5.334933497144051,-0.27740217650246357,3.7464748020142737,3.4926915862644954
5.332159475379026,-0.2582702858705122,3.7814017178769186,3.549528066479651
5.329576772520321,-0.24206985079754356,3.816896998541715,3.6083804997639337
5.327156074012345,-0.22891608655210455,3.8529808035393542,3.6694646868244893
5.324866913146824,-0.21893491143841864,3.889675450407599,3.733006191109634
5.32267756403244,-0.21226299954096461,3.9270055123186958,3.799242144090843
5.32055493403703,-0.20904775314567284,3.964997933759604,3.8684230974554503
5.318464456505573,-0.20944713670147336,4.003682164734158,3.940814868619837
5.316369985138559,-0.2136292844848348,4.043090313420357,4.016700292389662
5.314233692293711,-0.22177175146992462,4.083257316344254,4.096380741201044
5.312015974779012,-0.2340602155687437,4.124221123756264,4.180177201599048
5.309675372623325,-0.2506863512763919,4.1660228957722545,4.268430584522351
5.307168509110561,-0.27184446843279414,4.208707201617478,4.361500785978856
5.3044500644262325,-0.2977263295115716,4.252322209477266,4.459763780930153
5.3014728011311165,-0.3285133032845095,4.296919847286568,4.563605696669375
5.298187668098271,-0.3643646544082473,4.3425559042532615,4.673412333218011
5.294544021554189,-0.40540027467597367,4.389290027585441,4.789551928890334
5.290490018807429,-0.45167549943471874,4.437185546874344,4.9123480577557395
5.285973263813082,-0.503144803580389,4.4863090274519015,5.042038356320444
5.280941815777278,-0.5596101664300648,4.536729411015106,5.178713334160329
5.275345714112977,-0.6206488868017338,4.588516544356709,5.322228010490345
5.26913922524496,-0.6855150341949643,4.641738824461613,5.472078066277948
5.26228407490301,-0.7530094553141553,4.696459605124392,5.627232814736571
5.254753980349869,-0.8213170729066259,4.752731933271758,5.785921923186035
5.246540809620803,-0.8878200131098744,4.810591152503619,5.945385400680938
5.237662609489704,-0.9489146720816218,4.870045006510429,6.101622128149425
5.228173462768888,-0.9998928596522032,4.931061227791923,6.249214991719223
5.218174534172366,-1.0349875425229895,4.993553377709115,6.381365268881911
5.207824658747136,-1.0477118254129754,5.057367030397934,6.490307690913104
5.1973475404930065,-1.0315917383569877,5.122270107307065,6.568241190252367
5.187031623109436,-0.9812594113068849,5.187952519209588,6.608731342138836
5.177219028996367,-0.8936403976092453,5.254039832630976,6.608228914103262
5.168282625020274,-0.7687716664782633,5.320122121772009,6.567087729301041
5.160594908355492,-0.6098370667213445,5.3857929990650195,6.489540370157152
5.154496537688279,-0.4223669940806124,5.450688402766591,6.382580405039379
5.150272867747472,-0.21297475058986892,5.514514206816985,6.254267651826461
5.148143120241573,0.011841429145651422,5.577056883335249,6.1121668095522255
5.14826153453303,0.24648012824798726,5.638178551430771,5.9623730600806555
5.15072633581551,0.4865450378483792,5.697802282031578,5.80917863111265
5.155591786193994,0.728812075514904,5.7558940683427045,5.6551860511056375
5.162879906949143,0.9710269796606344,5.81244592885376,5.501631341598939
5.172590176745749,1.2116602084580947,5.86746224226975,5.348748386926233
5.18470677883033,1.4496862394499852,5.920949726139012,5.196089374658864
5.19920364122483,1.6844112451610715,5.972910619885601,5.042774395971189
5.216047753676441,1.9153502175370405,6.023338363845313,4.887672907282409
5.235201255851812,2.142145559340897,6.072215092918137,4.729530463922598
5.256622711445221,2.3645173136990283,6.119510397557363,4.56705535066293
5.280267884582211,2.5822362992868375,6.165180951063992,4.3989772988404345
5.30609024757508,2.795113297258113,6.209170724052397,4.22408726651873
5.334041380547661,3.0029992025795202,6.251411596717585,4.041264403462493
5.364071372573457,3.2057924370720072,6.291824240752209,3.8494941361901276
5.396129296944177,3.4034509141030203,6.330319182114111,3.6478797716788316
5.430163806085207,3.596006519148584,6.366797979830899,3.435649018050027
5.466123871276693,3.783580508957368,6.4011544700114,3.212156241746984
5.503959676366267,3.9663984987139864,6.43327603242887,2.976881037280109
5.543623661353407,4.144803837867864,6.46304484280167,2.7294237272069553
5.585071699732086,4.31926817699174,6.49033908007374,2.469498722917353
5.628264381502003,4.490397871769487,6.5150340673029135,2.196927287150184
5.673168360219698,4.658934486466772,6.537003340174415,1.9116322222726354
5.7197577050843655,4.825746925583231,6.556119662397141,1.6136385058343026
5.7680151743401975,4.99181144672241,6.572256047455484,1.303086139341366
5.8179332888074216,5.158173710332934,6.585286908848898,0.9802648167056844
5.869515025910751,5.325883731676993,6.595089557015955,0.6456849244792489
5.922773863227521,5.4958897098866615,6.601546406260748,0.30020636074036305
5.977732760326387,5.668870005554673,6.604548469868151,-0.054744098214852654
6.034421460381934,5.844974674776733,6.604001028886002,-0.416825724282132
6.0928712071297015,6.0234420963165345,6.599832771643181,-0.7822589805115057
6.153105628092867,6.20206137526461,6.592010181838066,-1.145084509719521
6.215126241845513,6.376487661162937,6.580559336740871,-1.4962230163747259
6.2788911184571425,6.5395207206155,6.5655971065771235,-1.822504500210189
6.3442863256632975,6.6806642635974525,6.547372061575022,-2.1061344571444143
6.411092968299272,6.786566782449842,6.526310717003578,-2.325468725537047
6.47895863612377,6.843069231238573,6.503056029748207,-2.458137873693814
6.5473893284361555,6.83904836232853,6.478474651011269,-2.486775449399872
6.615779812059441,6.770770716064509,6.453606896517271,-2.405469143511411
6.683487519220086,6.644091005509632,6.429552205082157,-2.2230521944274404
6.749928429275182,6.472611903987416,6.407321683137883,-1.9604687823804008
6.8146545483150565,6.272908233762294,6.387716995314078,-1.6437630764049922
6.877383630652679,6.0599035643895975,6.371279364550029,-1.2971636176467205
6.937982666296575,5.84448002053729,6.358307728373561,-0.9393470508048007
6.996427466501948,5.633270218458415,6.3489142578655136,-0.582894560754865
7.052760168686532,5.429561228302749,6.343085312257965,-0.2354364432531299
7.10705578096956,5.234409109469127,6.340730947825433,0.09882292087664235
7.1593998720642515,5.047551345879177,6.341719177034199,0.41782106413363657
7.209875385523043,4.868034066492428,6.345897387675535,0.7207386581050537
7.258555726187967,4.694602897181139,6.353104774256586,1.0074314652871772
7.305501755159779,4.525930989261428,6.363179088909458,1.278095258674905
7.350761065052393,4.360744734920739,6.375960041496207,1.5330797767776163
7.3943685124016,4.197888458536788,6.391290839263983,1.7727927870097409
7.436347396986968,4.036353855464775,6.40901876713408,1.9976564377122368
7.476710935541616,3.875289479416309,6.428995331511203,2.208092718489237
7.515463830335779,3.7139990815507415,6.451076258696095,2.4045241809046574
7.552603821151287,3.5519337580253554,6.475121500505142,2.5873817859752135
7.58812315873154,3.3886806583867424,6.500995318364894,2.757115182398243
7.622009965315407,3.2239497791118716,6.528566470188877,2.9142027785381153
7.6542494631065265,3.057559703720167,6.557708497974258,3.0591602101241664
7.684825060143728,2.8894228074089123,6.5883001000755,3.1925465579477605
7.713719288217817,2.719530275733378,6.6202255656549776,3.3149681305781753
7.740914590975151,2.5479372097292754,6.653375246960759,3.4270799088672774
7.766393963072443,2.37474805636114,6.687646046049432,3.5295849165360678
7.790141443636054,2.2001025870909623,6.722941895214793,3.6232318718113237
7.812142469506964,2.024162635520707,6.759174213932906,3.7088115107885367
7.832384095862171,1.8470997923093524,6.7962623290407915,3.7871519670148257
7.850855093785264,1.669084241802861,6.83413384871094,3.8591135515779107
7.8675459362032925,1.4902749132770117,6.8727249842267195,3.9255832081363993
7.882448685336063,1.310811115972315,6.911980816308083,3.9874688193182397
7.895556796495786,1.1308058387111632,6.951855504501266,4.0456934132098485
7.9068648548828975,0.9503409312175868,6.992312438633364,4.101189156107455
7.916368264195073,0.7694644568198116,7.033324330194439,4.154890810680093
7.924062908763271,0.5881906290323144,7.07487323830124,4.2077280721891945
7.929944815053594,0.4065029343607618,7.116950519023132,4.2606158484783405
7.934009844397202,0.22436131946547752,7.159556677507916,4.314441095924032
7.936253457591857,0.0417147007929905,7.2027010884671565,4.370044235887019
7.936670604599787,-0.1414794512417145,7.246401530826026,4.428192436214167
7.935255810087369,-0.32522610966978216,7.290683455188168,4.489541165575131
7.9320035489906715,-0.5094513145306697,7.335578866843919,4.554579514059976
7.926909035845365,-0.6939450413191194,7.381124661984519,4.6235540966316835
7.919969585432174,-0.8782851345662467,7.427360202950836,4.696366520487826
7.911186734086511,-1.0617407817620848,7.4743238681557145,4.772441547263144
7.900569326268891,-1.2431584537930014,7.5220482836283455,4.850569094032796
7.888137741730961,-1.4208422625948618,7.570553974568673,4.92873560751926
7.873929319105012,-1.5924557530690475,7.619841330643866,5.003981249649275
7.858004761574322,-1.7549923159482017,7.669881143140359,5.072347602035188
7.84045483841484,-1.9048795606498872,7.720604619160711,5.129006526438655
7.821406042808341,-2.0382822652459036,7.771894684425098,5.168661105387539
7.801023220155883,-2.151625558886032,7.823581295478973,5.18625164961657
7.779506964567022,-2.2422639135550613,7.875443811975138,5.177867989353972
7.757084325431472,-2.309104952568367,7.927222491868678,5.1416081688578945
7.733993275905788,-2.352943732680835,7.978638573557257,5.078048701545873
7.710463838578979,-2.376348678648061,8.029419060572716,4.990107467135857
7.686700351792499,-2.3831387916313256,8.079320135244075,4.882351718961439
7.6628689638761855,-2.377668963245348,8.128143652433689,4.760045902057869
7.639092274243732,-2.3641772306821713,8.175744111454268,4.628283817657932
7.615450501936911,-2.3463511072172016,8.222026949630846,4.4914168974773085
7.591986990864739,-2.3271381122962147,8.266941118605619,4.352810474123835
7.568715609741777,-2.3087405543328203,8.310469223346857,4.214845183313808
7.545628204198449,-2.292712737894038,8.352617675179994,4.079052273198124
7.522701076819509,-2.2800950257506893,8.393408197911976,3.9462947124474583
7.499900126562002,-2.2715455419587425,8.43287114503645,3.8169421880522414
7.477184671142415,-2.267451840646342,8.471040566916972,3.691017257935481
7.454510152735951,-2.2680180298630037,8.507950739496327,3.568307505478551
7.431829972437321,-2.2733292465234913,8.543633814551113,3.448446919299579
7.4090966799720865,-2.283397663978772,8.578118283744109,3.3309725630810694
7.3862627033322985,-2.298194430877893,8.61142800937492,3.2153627160457114
7.363280759023519,-2.317671321526231,8.643581636535378,3.101061718642519
7.340104045808257,-2.3417750489190037,8.674592253721803,2.987495579815225
7.316686295319067,-2.3704564198653437,8.704467209519956,2.8740813379567616
7.292981731120413,-2.4036758837411383,8.733208022899523,2.7602323217742937
7.268944972283002,-2.441406548840419,8.760810346117266,2.6453608296910507
7.244530906794598,-2.48363539031037,8.787263954414176,2.52887930063154
7.219694552891494,-2.530363122444911,8.81255274742049,2.4102007423923006
7.194390921667045,-2.5816030297960344,8.836654754844414,2.288738978645714
7.168574891369085,-2.6373789257932465,8.85954214463087,2.1639091421357306
7.1422011021111524,-2.6977223195299715,8.881181236052228,2.0351287572273136
7.115223878915852,-2.762668810963531,8.901532523624502,1.9018197027324462
7.087597190806217,-2.832253695584523,8.920550720651827,1.7634113128707438
7.0592746538503715,-2.9065067381155614,8.938184833780534,1.6193448498631857
7.030209586469216,-2.9854460696552594,8.954378282279166,1.4690795569643607
7.000355125772663,-3.0690711741563885,8.96906907784881,1.3121004673827887
6.969664414031099,-3.1573549595492048,8.982190082522637,1.1479280945565475
6.938090864435607,-3.2502349579942122,8.993669363468202,0.9761300551058641
6.9055885148556655,-3.347603770216189,9.00343066401926,0.7963345708818033
6.872112477153504,-3.449298961001514,9.011394009728079,0.6082456562317604
6.837619487543488,-3.555092724824195,9.017476466290397,0.41165961972754944
6.802068560295246,-3.664681766806252,9.021593062487673,0.20648230031504175
6.765421742627184,-3.7776779748150746,9.023657885490824,-0.007253772349701676
6.727644962879033,-3.8936005781570646,9.023585347767327,-0.22937333425861645
6.688708957097463,-4.011870576628499,9.02129161442474,-0.4595447021596851
6.648590251331178,-4.131808256629799,9.016696167403143,-0.6972698231946178
6.607272168764879,-4.252634564286442,9.009723469171197,-0.9418794591559074
6.564745823122015,-4.3734769592806675,9.000304674579638,-1.1925347814228076
6.521011053529208,-4.493380118239902,8.98837932676541,-1.4482363537930922
6.476077252346809,-4.611321500381962,8.973896963227478,-1.7078410028848146
6.42996403734299,-4.726231358284668,8.95681855319863,-1.9700864463460226
6.382701723760143,-4.837016320784678,8.937117688735169,-2.2336228281530754
6.334331560552297,-4.942585255319279,8.914781460453638,-2.4970495867742635
6.284905707999104,-5.041875799618814,8.889810964585894,-2.7589554599974178
6.234486950002916,-5.133879793834046,8.86222140998592,-3.017959008985868
6.183148152064575,-5.217665877191183,8.832041819896062,-3.272746896390703
6.130971493292663,-5.292397739604966,8.799314350932155,-3.5221073083038648
6.078047515896614,-5.357346906888959,8.764093277849117,-3.7649563458978768
6.0244740468277245,-5.41189943080782,8.726443714390138,-4.000355862464042
5.970355052519646,-5.455556381778444,8.686440155765498,-4.227521988047303
5.915799488701862,-5.487928534350759,8.644164935885025,-4.445824361587497
5.860920203358354,-5.508726040770003,8.59970669226915,-4.65477678698512
5.805832942950654,-5.517744175986812,8.553158924399298,-4.854020580591055
5.750655501190786,-5.5148464026597335,8.504618718593388,-5.043302253685938
5.695507037164188,-5.499946061054448,8.454185696056529,-5.222447377378867
5.640507576553643,-5.4729879625428905,8.40196122228274,-5.391332535749074
5.585777696928215,-5.433931086593613,8.34804789692525,-5.549857225267504
5.531438386062279,-5.3827334759962735,8.292549324672574,-5.697917445252741
5.477611051302316,-5.319340311028069,8.235570150220047,-5.83538257850868
5.424417648192035,-5.24367602633162,8.17721632443496,-5.962077003264895
5.371980887928719,-5.1556412086028205,8.117595554402312,-6.077767711192577
5.320424475842691,-5.05511486275478,8.056817877290387,-6.182159020230805
5.269873327215143,-4.941962436157235,7.994996287088078,-6.274895241306804
5.22045370285357,-4.816049720185035,7.93224733467501,-6.355571853656012
5.1722932056517195,-4.677262385924823,7.86869161613845,-6.423755333848843
5.125520581792471,-4.52553044982586,7.8044540627999615,-6.479011248965525
5.080265277294212,-4.3608564202533575,7.739663950310306,-6.5209395667518235
5.036656713091679,-4.183345290763445,7.674454554642788,-6.549215389669019
4.994823260184044,-3.993233994992004,7.608962400746098,-6.563632559090981
4.954890920234124,-3.790917521821709,7.543326075155188,-6.5641469112556265
4.9169817450159075,-3.5769687193887205,7.477684606042632,-6.550915532508377
4.881212057822021,-3.352148990273854,7.412175450717548,-6.524328290379979
4.847690567919282,-3.1174076521237835,7.3469321678137485,-6.485028304838203
4.816516491398044,-2.873868691900762,7.2820818847653666,-6.433918894713539
4.7877778044790364,-2.62280487830837,7.217742695818231,-6.372155817253174
4.7615497556959525,-2.365600540998725,7.1540211376456995,-6.301125148752801
4.7378937502859655,-2.1037055595713365,7.091009886158171,-6.222408699091729
4.716856694690252,-1.8385840192230996,7.028785799167254,-6.137740164242158
4.698470854498021,-1.5716614300967895,6.967408397524832,-6.048956092444685
4.682754240197053,-1.3042743153598668,6.9069188366003855,-5.957946056666364
4.669711497043455,-1.0376253950645655,6.847339376033722,-5.866606186563222
4.659335243092809,-0.7727466614013623,6.78867331416809,-5.7767995202324
4.651607776478796,-0.5104715356825764,6.730905318965766,-5.690325661846334
4.646503061121971,-0.25141619943320004,6.674002062347302,-5.6089011706705705
4.643988899127638,0.0040307539008088145,6.617913050640596,-5.534151133841386
4.644029206666646,0.2557119068285376,6.562571539302183,-5.467611613442909
4.646586325734932,0.5036998466973777,6.507895423167754,-5.410742171073721
4.651623324201905,0.7482934358188342,6.453788001457016,-5.364947467961826
4.659106258560094,0.9900137329803261,6.400138526777398,-5.33160698230372
4.669006395889897,1.2296016608072506,6.346822456954361,-5.312112119011874
4.68130241249797,1.4680193264665815,6.293701335764243,-5.307910336994573
4.6959826057626355,1.7064566728755795,6.240622232394297,-5.32055629759342
4.713047172491391,1.9463448451986627,6.187416669418362,-5.351770325898468
4.732510620943378,2.189377204492787,6.133898966159378,-5.403504479742005
4.754404392988306,2.437538063557289,6.079863921361958,-5.478015873816285
4.778779773623879,2.6931374375358423,6.025083762623795,-5.577944878536109
4.805711147999237,2.9588463194016477,5.969304313838434,-5.706390919562407
4.835299611193254,3.237719029190256,5.91224040464281,-5.866967822232496
4.867676801485157,3.533172682232575,5.853570726420485,-6.063797892670179
4.903008528307483,3.8488602527935276,5.792932747493783,-6.301357267981691
4.941497130835418,4.188307341503199,5.729919174813966,-6.583992369948558
4.98338020425045,4.554058292304525,5.66407925111448,-6.914752772827692
