th1 (rad),w1 (rad/s),th2 (rad),w2 (rad/s),a1 (rad/s^2),a2 (rad/s^2)
1.9582961482479149,2.3329866038593905,4.741020040330623,-2.5594734374960972,-7.53451210337635,0.8298557162277336
1.9816260142865088,2.257641482825627,4.715425305955662,-2.55117488033382,-7.126356179660867,1.2366029052130993
2.004202429114765,2.186377921029018,4.689913557152324,-2.538808851281689,-6.736988405353239,1.644039601584952
2.026066208325055,2.119008036975486,4.664525468639507,-2.5223684552658394,-6.374796211347979,2.038919728374051
2.04725628869481,2.055260074862006,4.6393017840868485,-2.5019792579820987,-6.045052937312137,2.4126019626156614
2.06780888944343,1.9948095454888846,4.614281991507028,-2.477853238355942,-5.750469187456985,2.7602114590378033
2.0877569848983186,1.9373048536143147,4.589503459123469,-2.450251123765564,-5.491788816734349,3.0797529120632436
2.1071300334344616,1.8823869654469711,4.565000947885813,-2.419453594644932,-5.268344530237117,3.3712932033032477
2.125953903088931,1.8297035201446,4.540806411939363,-2.3857406626118993,-5.078529273423544,3.636272727877155
2.1442509382903774,1.7789182274103645,4.516949005313244,-2.349377935333128,-4.920169098879451,3.8769627522708037
2.1620401205644812,1.72971653642157,4.493455225959913,-2.31060830781042,-4.7908012758571505,4.096061042747323
2.179337285928697,1.6818085236629985,4.470349142881809,-2.269647697382947,-4.687870556486569,4.296405679323238
2.196155371165327,1.6349298180981329,4.44765266590798,-2.2266836405897146,-4.6088596663579535,4.480783098345853
2.212504669346308,1.5888412214345533,4.4253858295020825,-2.181875809606256,-4.551369747410058,4.651807369616119
2.228393081560654,1.5433275239604527,4.4035670714060196,-2.135357735910095,-4.513164438467204,4.8118509606225555
2.2438263568002585,1.4981958795757806,4.382213494046918,-2.0872392263038693,-4.492188660255529,4.96301119004588
2.258808315596016,1.4532739929732252,4.3613411017838795,-2.0376091144034105,-4.486570601251939,5.107100367226333
2.2733410555257483,1.4084082869607057,4.340965010639845,-1.9865381107311473,-4.494613168719935,5.2456508678773845
2.2874251383953554,1.3634621552735064,4.321099629532534,-1.9340816020523734,-4.514779368209807,5.379928998860564
2.3010597599480906,1.3183143615914084,4.30175881351201,-1.8802823120637677,-4.54567469274393,5.5109534882906805
2.3142429035640046,1.272857614663969,4.282955990391373,-1.825172777180861,-4.586028581811404,5.639515893870713
2.3269714797106444,1.2269973288458549,4.264704262619564,-1.768777618242154,-4.634676278748886,5.7662012593414085
2.339241452999103,1.180650566058366,4.2470164864371425,-1.7111156056487398,-4.690541904812052,5.891408066181992
2.3510479586596866,1.1337451470102453,4.229905330380655,-1.6522015249869197,-4.752623220996165,6.015367009070751
2.362385410129789,1.0862189148002837,4.213383315130786,-1.5920478548962123,-4.819978317944513,6.138158435222337
2.373247599277792,1.0380191316208385,4.197462836581824,-1.5306662705439888,-4.891714324585527,6.259728479551803
2.383627790594,0.9891019883749832,4.182156173876384,-1.4680689857484708,-4.966978131242347,6.379904036359657
2.39351881047775,0.9394322070625597,4.1674754840189,-1.4042699453848742,-5.044949064025422,6.498406760233229
2.4029131325483757,0.8889827164223054,4.153432784565052,-1.3392858777825418,-5.124833411171102,6.614866302755123
2.411802959712599,0.8377343823105944,4.140039925787226,-1.2731372147549906,-5.2058606796727185,6.728832980476101
2.420180303535705,0.7856757755138672,4.1273085536396765,-1.2058488849502296,-5.287281446206424,6.839790042614213
2.4280370612908433,0.732802961051803,4.115250064790175,-1.1374509845240874,-5.36836665635493,6.947165670565416
2.435365090901361,0.6791192944882537,4.103875554944934,-1.0679793278184333,-5.448408218430463,7.050344800213104
2.4421562838462436,0.624635212303949,4.09319576166675,-0.9974758798163023,-5.526720731835285,7.148680815635507
2.448402635969283,0.5693680049855961,4.083221002868587,-0.9259890716599471,-5.602644184632112,7.24150712171125
2.454096316019139,0.513341563139275,4.073961112151988,-0.8535740004428346,-5.675547451017402,7.3281485652760034
2.459229731650532,0.456586088629101,4.065425372147559,-0.7802925147900746,-5.744832417100403,7.407932641351643
2.463795592536823,0.39913776445809696,4.057622446999659,-0.7062131883765581,-5.809938563239578,7.480200393584676
2.467786970181404,0.34103837882570115,4.050560315115893,-0.6314111844407113,-5.870347833552602,7.5443168970148
2.471197353969661,0.2823349004901751,4.044246203271486,-0.5559680154705633,-5.925589628324243,7.599681196882218
2.4740207029745624,0.2230790042069327,4.03868652311678,-0.4799712035017411,-5.97524576293039,7.645735569249391
2.476251493016632,0.1633265465776288,4.0338868110817625,-0.4035138478092472,-6.018955247432092,7.681973967326397
2.4778847584824084,0.10313699410330787,4.02985167260367,-0.3266941081359832,-6.056418753872429,7.707949520879142
2.4789161284234416,0.04257280656458358,4.026584731522311,-0.24961461292719178,-6.087402653131624,7.723280964149074
2.4793418564890874,-0.018301219966732667,4.024088585393039,-0.17238180328570102,-6.1117425195259,7.727657879456843
2.47915884428942,-0.07941864516199167,4.022364767360182,-0.09510522449113258,-6.129346018765986,7.720844658278394
2.4783646578378002,-0.14071210534965153,4.021413715115271,-0.017896777908348635,-6.140195113094584,7.702683098367197
2.4769575367843037,-0.20211405648059738,4.021234747336187,0.05913005307532333,-6.144347536182463,7.673093573906394
2.4749363962194977,-0.26355753184242203,4.0218260478669405,0.1358609888143873,-6.141937509577141,7.632074735331826
2.4723008209010735,-0.3249769069381934,4.023184657755085,0.21218173616770555,-6.133175692151396,7.579701716124537
2.4690510518316917,-0.3863086638597074,4.0253064751167615,0.28797875332895095,-6.118348374114391,7.516122845351202
2.4651879651930946,-0.4474921476008513,4.028186262650051,0.363139981782463,-6.097815947724718,7.44155488684058
2.460713043717086,-0.5084703070780985,4.031817662467875,0.4375555306508688,-6.072010707789309,7.356276848332986
2.4556283406463053,-0.5691904141559916,4.036193217774384,0.5111182991341986,-6.041434056105083,7.260622426273248
2.4499364365047454,-0.6296047547170425,4.041304400765727,0.583724523396931,-6.006653204780494,7.1549711734832595
2.443640388957575,-0.6896712867648475,4.047141645999696,0.6552742351317636,-5.9682974932528685,7.039738496906504
2.4367436760899266,-0.7493542616973762,4.053694388351014,0.7256716201008286,-5.927054452023428,6.915364609992415
2.429250133472953,-0.8086248062176105,4.060951104552022,0.7948252662007528,-5.883665761780614,6.782302578081254
2.4211638854107767,-0.8674614638354166,4.06889935721403,0.8626482919815653,-5.838923268744609,6.6410056044642705
2.4124892707724226,-0.9258506965228627,4.077525840133846,0.929058348026208,-5.793665224836715,6.491913708992132
2.403230763807194,-0.9837873487712299,4.086816423614108,0.9939774851161294,-5.7487729238342995,6.335439949967757
2.3933928903194817,-1.0412750780095728,4.096756198465269,1.0573318846158068,-5.7051679013041685,6.171956333933337
2.382980139539386,-1.0983267570226145,4.1073295173114275,1.1190514479551403,-5.663809856203994,6.001779547886929
2.37199687196916,-1.1549648555846543,4.118520031790979,1.1790692434340095,-5.6256954350289785,5.825156636291689
2.360447223413314,-1.211221809934944,4.130310724225319,1.2373208097969264,-5.591857994600994,5.64225073373263
2.3483350053139644,-1.2671403898809541,4.142683932323289,1.2937433171342527,-5.563368426127775,5.453126957017589
2.335663601415155,-1.3227740741422318,4.155621365494631,1.3482745867044286,-5.541337079568997,5.257738562867067
2.3224358606737323,-1.3781874449379217,4.169104111361675,1.4008519723330992,-5.5269167713922585,5.055913495424953
2.308653986224353,-1.4334566126518442,4.183112631085006,1.4514111072873488,-5.521306787065329,4.847341489663376
2.2943194200978345,-1.4886696805224975,4.19762674215788,1.4998845221839825,-5.525757697089287,4.631561972471079
2.2794327232926097,-1.5439272574933904,4.212625587379719,1.5462001419086933,-5.541576684920405,4.407953125598953
2.2639934507176758,-1.5993430243425946,4.228087588798806,1.5902796731646829,-5.570132927030682,4.17572265986164
2.2480000204742496,-1.6550443536129014,4.243990385530452,1.6320368997632992,-5.612862356733231,3.9339011184140102
2.2314495769381204,-1.7111729771802338,4.260310754528085,1.6713759109474393,-5.671270867728276,3.68133890386648
2.214337847166318,-1.7678856858575165,4.277024513637559,1.7081892999861041,-5.746934650187302,3.4167087403393546
2.1966589903077427,-1.8253550323593895,4.29410640663742,1.7423563873894976,-5.8414958774973105,3.1385159735966766
2.178405439984149,-1.8837699911343626,4.311529970511315,1.7737415471254643,-5.9566513489868615,2.8451200204448237
2.1595677400728053,-1.9433365046242312,4.32926738598257,1.8021927473299124,-6.094130917041818,2.534771442898168
2.140134375026563,-2.0042778137946495,4.347289313455869,1.8275404617588942,-6.255661566555176,2.205670574981233
2.1200915968886163,-2.0668344294602012,4.3655647180734585,1.8495971675087064,-6.44291186872326,1.8560553780497093
2.0994232525940144,-2.131263548147434,4.384060689748545,1.8681577212892035,-6.657410233838838,1.4843282007338077
2.07811061711254,-2.1978376504858224,4.402742266961437,1.8830010032965416,-6.900429038119705,1.0892332345717113
2.0561322406076816,-2.2668419408670193,4.421572276994402,1.8938933356422587,-7.172825505388383,0.6700983901015489
2.0334638211990113,-2.3385701959209033,4.440511210350825,1.9005943195432742,-7.474829561251718,0.22715652630905073
2.010078119239802,-2.4133184915334205,4.459517153546257,1.9028658848063646,-7.805769362548274,-0.23803945629706466
1.985944934324468,-2.491376185158903,4.478545812394321,1.900485490243394,-8.163727772163027,-0.7220965864931863
1.9610311724728788,-2.5730134628805335,4.497550667296755,1.8932645243784623,-8.545128994653076,-1.2191541799669654
1.9353010378440736,-2.658464752827064,4.51648331254054,1.8810729825787926,-8.944265521973433,-1.7201617081162546
1.9087163903158029,-2.7479074080467987,4.535294042366328,1.86387136549763,-9.352793143350524,-2.2121011265979877
1.8812373162353349,-2.841435339480304,4.553932756021304,1.84175035423165,-9.7592472250012,-2.6772304079901654
1.8528229628405317,-2.939027811730316,4.5723502595636205,1.8149780501517483,-10.1486663834907,-3.092474518229693
1.8234326847232285,-3.040514475565223,4.590500040065138,1.7840533049694514,-10.50244657948856,-3.4291464467982147
1.7930275399675764,-3.1455389413601087,4.608340573114833,1.7497618405014692,-10.798581211077016,-3.6532320444736865
1.7615721505539752,-3.2535247534708787,4.625838191519848,1.7132295200567325,-11.012456676407075,-3.7264970555385344
1.7290369030192665,-3.3636493202349493,4.642970486720415,1.675964549501347,-11.1183488277472,-3.6086435426341765
1.695400409816917,-3.474832808512421,4.6597301322154285,1.6398781140750054,-11.091684448827035,-3.2606255670191873
1.660652081731793,-3.5857496530006916,4.6761289133561785,1.6072718584048136,-10.911983775987201,-2.649013643717238
1.624794585201786,-3.6948694907605635,4.692201631940227,1.5807817219676412,-10.566197919665015,-1.750990192329968
1.5878458902941803,-3.8005314699572135,4.708009449159904,1.5632718200443416,-10.051943234343717,-0.5592283502088559
1.549840575594608,-3.9010509023006508,4.723642167360347,1.557679536542253,-9.379986121158375,0.9143356867596077
1.5108300665716017,-3.9948507635122343,4.7392189627257695,1.5668228934098491,-8.575325773811047,2.6368565434383697
1.4708815589364794,-4.080604021250345,4.754887191659868,1.5931914588442329,-7.676407893878564,4.555814176109347
1.430075518723976,-4.157368100189131,4.77081910624831,1.6387496006053264,-6.732363412468351,6.603337419125332
1.3885018377220846,-4.224691734313814,4.787206602254363,1.7047829747965797,-5.7986125916746465,8.703130542584379
1.3462549203789465,-4.282677860230561,4.804254432002329,1.7918142802224235,-4.93156995564145,10.77888640348087
1.303428141776641,-4.331993559786976,4.822172574804553,1.8996031442572323,-4.183400785159296,12.762712590005338
1.2601082061787712,-4.3738275676385685,4.841168606247126,2.0272302701572857,-3.59774838905039,14.602130705079439
1.2163699305023854,-4.409805051529072,4.8614409089486985,2.17325157720808,-3.207092939830374,16.264612354067634
1.1722718799870946,-4.441875980927376,4.88317342472078,2.3358977007487565,-3.032011221056457,17.73924310833474
1.1278531201778208,-4.472196093137941,4.906532401728267,2.513290131832104,-3.082208545188075,19.035753822269285
1.0831311592464414,-4.503018178589822,4.9316653030465885,2.7036476700547967,-3.358899404158673,20.18164660237546
1.0381009774605432,-4.536607172631409,4.958701779747137,2.9054641360785514,-3.857980920230618,21.218373623538856
0.9927349057342291,-4.575186981833715,4.987756421107922,3.11764787231394,-4.573471335243403,22.197504590744373
0.946983035915892,-4.62092169518615,5.018932899831062,3.3396229182213837,-5.500828094657585,23.177622016481454
0.9007738189640304,-4.675929976132726,5.052329129013275,3.571399138386198,-6.639953000379984,24.222420271461736
0.8540145192027031,-4.742329506136525,5.088043120397137,3.8136233411008154,-7.997880588916226,25.400247752202645
0.8065912241413379,-4.8223083120256875,5.126179353808145,4.067625818622842,-9.591297927415363,26.78517662869274
0.758368141021081,-4.918221291299841,5.166855611994373,4.3354775849097695,-11.449149189029526,28.459625374210823
0.7091859281080826,-5.032712783190136,5.210210387843471,4.620073838651877,-13.615637610155165,30.518575066498997
0.6588588002761812,-5.168869159291687,5.25641112622999,4.925259589316868,-16.153943047191177,33.07545710742691
0.6071701086832643,-5.330408589763599,5.305663722123159,5.256014160391137,-19.15087384799763,36.269732913358
0.5538660227856282,-5.521917328243576,5.35822386372707,5.618711489524717,-22.722294092166916,40.27576373167085
0.4986468495031925,-5.7491402691652445,5.414410978622318,6.021469126841425,-27.018019195224507,45.31108034217274
0.44115544681154006,-6.0193204611174895,5.474625669890732,6.474579930263152,-32.22161892357836,51.63774485882883
0.3809622422003652,-6.341536650353273,5.539371469193363,6.990957378851441,-38.5316449416989,59.53818516167546
0.31754687569683243,-6.7268530997702625,5.609281042981878,7.586339230468195,-46.08695427864289,69.21373963519518
0.2502783446991298,-7.187722642556691,5.68514443528656,8.278476626820147,-54.7378535842235,80.46907227999914
0.17840111827356286,-7.735101178398926,5.767929201554761,9.083167349620139,-63.426942374888,91.85248686398252
0.1010501064895736,-8.369370602147805,5.8587608750509625,10.001692218259963,-68.7458766089757,98.64360744482953
0.017356400468095542,-9.056829368237562,5.958777797233562,10.988128292708259,-62.61650569395159,89.60982706246271
-0.07321189321428008,-9.682994425177078,6.068659080160645,11.884226563332886,-32.944416468055444,47.9079172678129
-0.17004183746605087,-10.012438589857632,6.187501345793973,12.363305736011014,21.049009172715774,-27.50200227730455
-0.2701662233646272,-9.801948498130475,6.3111344031540835,12.088285713237969,69.40104094654895,-94.8337565312939
-0.36818570834593195,-9.107938088664985,6.432017260286464,11.13994814792503,84.62648438000724,-116.02232008618304
-0.4592650892325818,-8.261673244864912,6.543416741765714,9.9797249470632,76.72813278316097,-105.21231700150837
-0.5418818216812309,-7.494391917033303,6.643213991236347,8.927601777048118,63.202346284510355,-86.70799246259604
-0.6168257408515639,-6.862368454188199,6.732490009006828,8.060521852422157,51.06926314086125,-70.17069518081215
-0.6854494253934459,-6.351675822779587,6.813095227531049,7.3588149006140355,41.545915571161906,-57.23352402220053
-0.7489661836212418,-5.936216667067968,6.8866833765371895,6.78647966039203,34.28652552706813,-47.39037709453232
-0.8083283502919215,-5.593351411797286,6.954548173141109,6.312575889446706,28.741912721540697,-39.86687250940508
-0.8642618644098944,-5.305932284581879,7.017673932035576,5.913907164352656,24.45882969115061,-34.02631682878378
-0.9173211872557132,-5.061343987670373,7.076813003679103,5.573643996064818,21.10764122133247,-29.40384284529924
-0.967934627132417,-4.850267575457048,7.132549443639751,5.279605567611825,18.456478809591484,-25.66877597453898
-1.0164373028869875,-4.665702787361133,7.185345499315869,5.022917807866436,16.3430428639626,-22.584886015999295
-1.063094330760599,-4.502272358721507,7.235574677394534,4.7970689477064425,14.653194183533648,-19.980679078807757
-1.108117054347814,-4.355740416886171,7.283545366871598,4.597262156918365,13.306011622124243,-17.72914392305897
-1.1516744585166758,-4.222680300664928,7.329517988440782,4.419970717687775,12.243480781432323,-15.734453399304
-1.193901261523325,-4.100245492850605,7.3737176956176596,4.262626183694735,11.423200243056812,-13.923512736226426
-1.234903716451831,-3.986013490420037,7.416343957454607,4.123391056332471,10.812952341769961,-12.240897063163498
-1.2747638513560313,-3.877883967002337,7.457577868017931,4.000982085700836,10.386383523089485,-10.646200331404803
-1.3135426910260546,-3.7740201317714424,7.4975876888749395,3.894520082386788,10.119360718577024,-9.11307563127033
-1.351282892343769,-3.672826524585672,7.536532889698807,3.8033893260740848,9.986852704963894,-7.629309845694707
-1.3880111575896257,-3.572957997536033,7.574566782959548,3.7270962276171375,9.960452269629515,-6.197194922366069
-1.423740737564986,-3.4733534748397377,7.611837745235719,3.6651242783934768,10.006887976311065,-4.833321369923606
-1.4584742723133834,-3.373284595076627,7.648488988019654,3.6167910646942407,10.088002987958632,-3.566867575138334
-1.4922071182641496,-3.2724045651970406,7.684656898666597,3.581122388942857,10.162596818151506,-2.435666095587158
-1.52493116391612,-3.1707785970155253,7.720468122556025,3.5567657279869858,10.19015405667115,-1.4799206048218339
-1.5566389498862754,-3.0688770564488137,7.756035779835895,3.5419665219387673,10.135864015974443,-0.7343676123638065
-1.5873277204507634,-2.967518416289069,7.791455445055283,3.534622845815129,9.97569663585156,-0.22059795977720756
-1.617002904613654,-2.8677614499305535,7.826801673513435,3.532416866217357,9.700000947727332,0.05833141560312925
-1.6456805191129595,-2.7707614404532803,7.862125842175608,3.533000180373388,9.314406842660961,0.1193316499649081
-1.6733881335174923,-2.6776173720266705,7.897455843979342,3.534193496873037,8.83769278508679,-0.0036373639227833088
-1.700164307237759,-2.5892404441758026,7.932797778948073,3.5341571232338094,8.297327353245155,-0.26576588625967174
-1.7260567116795171,-2.506267170643351,7.968139350180411,3.5314994643712128,7.724084232030754,-0.6188501853962823
-1.7511193833859506,-2.4290263283230433,8.003454344824123,3.52531096251725,7.147183001064215,-1.01794823936
-1.775409646669181,-2.357554498312401,8.038707454449295,3.51513148012365,6.590920141161977,-1.4258992548798108
-1.7989851916523052,-2.2916452969007812,8.073858769250531,3.500872487574852,6.07307159710411,-1.8153476028699191
-1.821901644621313,-2.23091458092974,8.10886749412628,3.482719011546153,5.604800889453527,-2.1686778426949656
-1.8442107904306104,-2.1748665720352047,8.14369468424174,3.4610322331192034,5.1915450001471255,-2.4766210732370872
-1.8659594561509625,-2.1229511220337334,8.178305006572932,3.4362660223868327,4.8343442677903115,-2.7362858655571713
-1.8871889673712998,-2.07460767935583,8.2126676667968,3.408903163731261,4.531218299466623,-2.9491657624654217
-1.9079350441648582,-2.029295496361164,8.246756698434114,3.379411506106607,4.278358884734468,-3.1194335431776596
-1.9282279991284699,-1.9865119075138193,8.28055081349518,3.3482171706748303,4.071049682004993,-3.252637629632686
-1.948093118203608,-1.9458014106937693,8.314032985201928,3.3156907943785034,3.904311062671979,-3.354793941675088
-1.9675511323105457,-1.9067583000670496,8.347189893145714,3.2821428549617524,3.7733124458135787,-3.431807710898075
-1.9866187153112163,-1.8690251756089138,8.380011321695331,3.2478247778527716,3.6736080968171536,-3.4891431236570227
