th1 (rad),w1 (rad/s),th2 (rad),w2 (rad/s),a1 (rad/s^2),a2 (rad/s^2)
2.9987864472017898,-1.5707030872031909,1.789473659309759,1.0052225930413203,-0.6226657017739212,-7.0387351507080504
2.983079416329758,-1.57692974422093,1.7995258852401723,0.9348352415342398,-0.628923262543992,-7.004680606637936
2.9673101188875486,-1.58321897684637,1.8088742376555147,0.8647884354678604,-0.6455523087169468,-6.968378078538466
2.951477929119085,-1.5896744999335395,1.8175221220101934,0.7951046546824758,-0.6725952262617253,-6.928912893367706
2.9355811841197497,-1.5964004521961568,1.825473168557018,0.7258155257487987,-0.7101005565550118,-6.885407484756833
2.919617179597788,-1.6035014577617068,1.832731323814506,0.6569614509012304,-0.758118087562176,-6.837023106419689
2.903582165020171,-1.6110826386373285,1.8393009383235184,0.5885912198370334,-0.8166944594336202,-6.78296129206851
2.8874713386337976,-1.6192495832316647,1.8451868505218887,0.5207616069163483,-0.885869352141845,-6.722464936650977
2.871278842801481,-1.6281082767530832,1.8503944665910521,0.4535369575498386,-0.9656723118397053,-6.654818887882732
2.85499776003395,-1.6377649998714803,1.8549298361665505,0.3869887686710113,-1.0561202588710876,-6.57934995691666
2.8386201100352353,-1.6483262024601912,1.8587997238532605,0.3211952691018447,-1.1572157043102698,-6.495426281680721
2.8221368480106332,-1.659898359503294,1.862011676544279,0.2562410062850375,-1.2689456842503233,-6.402456004815427
2.8055378644156,-1.6725878163457972,1.8645740866071292,0.19221644623688322,-1.3912814026436429,-6.299885258981457
2.788811986252142,-1.6865006303722336,1.866496251069498,0.12921759364706864,-1.5241785552111813,-6.187195484260708
2.77194697994842,-1.7017424159243455,1.8677884270059688,0.06734563880446157,-1.6675782896373275,-6.063900134169743
2.7549295557891766,-1.7184181988207188,1.8684618833940134,0.006706637462764134,-1.8214087416867302,-5.929540857342701
2.7377453738009696,-1.736632286237586,1.868528949768641,-0.05258877111066288,-1.985587073546099,-5.783683270402594
2.7203790509385937,-1.756488156973047,1.8680030620575343,-0.11042560381468883,-2.160021929866275,-5.625912463480391
2.702814169368863,-1.77808837627171,1.8668988060193874,-0.16668472844949275,-2.3446162185940405,-5.4558284032651585
2.685033285606146,-1.8015345384576502,1.8652319587348924,-0.22124301248214434,-2.5392701173212116,-5.27304141987923
2.6670179402215695,-1.8269272396308622,1.863019528610071,-0.27397342668093666,-2.7438842007459097,-5.077167984308484
2.6487486678252607,-1.8543660816383214,1.8602797943432616,-0.3247451065240215,-2.958362579755793,-4.867827004168761
2.6302050070088776,-1.8839497074358793,1.8570323432780214,-0.3734233765657091,-3.1826159360245283,-4.644636889417387
2.6113655099345188,-1.9157758667961247,1.8532981095123642,-0.419869745459883,-3.4165643258615526,-4.407213668980546
2.5922077512665576,-1.9499415100547401,1.8490994120577653,-0.46394188214968846,-3.660139610916728,-4.155170477565139
2.57270833616601,-1.9865429061639075,1.8444599932362684,-0.5054935869253399,-3.913287348242761,-3.8881187832840105
2.5528429071043712,-2.025675779646335,1.839405057367015,-0.54437477475818,-4.175967934568581,-3.6056717961204723
2.532586149307908,-2.067435458992021,1.8339613096194334,-0.5804314927193847,-4.448156745093156,-3.3074505906836653
2.511911794717988,-2.1119170264429523,1.8281569946922396,-0.6135059986262213,-4.729842930398119,-2.993093601383187
2.4907926244535585,-2.1592154557469336,1.8220219347059774,-0.6434369346400532,-5.021026429792815,-2.662270312770653
2.469200469896089,-2.209425720044862,1.8155875653595768,-0.6700596377677598,-5.321712617796568,-2.3147001827387292
2.4471062126956404,-2.2626428462228274,1.8088869689818992,-0.6932066395951471,-5.631903813270984,-1.9501781137285379
2.4244797842334123,-2.318961884355537,1.8019549025859476,-0.7127084207324325,-5.951586637148531,-1.5686081409537387
2.401290165389857,-2.3784777507270225,1.7948278183786233,-0.7283945021419699,-6.280713892719868,-1.1700474518351085
2.3775053878825867,-2.441284889654221,1.7875438733572035,-0.740094976660321,-6.619179249631431,-0.754763401748703
2.3530925389860444,-2.507476682150535,1.7801429235906003,-0.747642610677808,-6.966782528284086,-0.32330685843356016
2.328017772164539,-2.577144507433376,1.7726664974838222,-0.7508756792621436,-7.323182799790243,0.1233940082647489
2.3022463270902054,-2.6503763354312784,1.7651577406912007,-0.7496417391794961,-7.687835844878651,0.5839144929664047
2.275742563735893,-2.727254693880065,1.7576613232994058,-0.743802594249832,-8.059911783952966,1.0561827583548078
2.2484700167970924,-2.8078538117195944,1.7502232973569074,-0.7332407666662839,-8.438187973816195,1.5372911213224942
2.2203914786798964,-2.8922356914577563,1.7428908896902446,-0.717867855453059,-8.820911711116482,2.0232619537579706
2.191469121765319,-2.980444808568921,1.735712211135714,-0.6976352359154793,-9.205627151898971,2.508761149613056
2.1616646736796294,-3.072501080087911,1.728735858776559,-0.6725476244193487,-9.588961591641777,2.9867537361919236
2.1309396628787503,-3.168390696004329,1.7220103825323656,-0.6426800870574294,-9.966368543711665,3.4481002829554623
2.099255755918707,-3.2680543814414453,1.7155835816617913,-0.6081990842278748,-10.3318299255623,3.8811007983922035
2.0665752121042926,-3.3713726806970685,1.7095015908195126,-0.5693880762439528,-10.67752849086654,4.27100682619382
2.032861485297322,-3.478147965605734,1.703807710057073,-0.5266780079820146,-10.993516080053002,4.599544833638721
1.9980800056412646,-3.588083126406264,1.698540929977253,-0.4806825596456274,-11.267424843801384,4.844526890405105
1.962199174377202,-3.7007573748442777,1.6937341043807967,-0.43223729074157635,-11.48429787035321,4.979668683146839
1.9251916006287593,-3.8156003535478096,1.689411731473381,-0.382440603910108,-11.626650497989733,4.974786708441881
1.8870355970932813,-3.931866858527707,1.68558732543428,-0.3326927368256892,-11.674906689931854,4.7965949117587625
1.8477169285080042,-4.0486159254270255,1.6822603980660231,-0.28472678770810156,-11.608370775632086,4.410343064597128
1.807230769253734,-4.164699633183346,1.6794131301889421,-0.24062335706213028,-11.406868790170154,3.782497991762656
1.7655837729219004,-4.278768321085048,1.677006896618321,-0.20279837714450372,-11.053095322598473,2.884519735444009
1.72279608971105,-4.389299274311033,1.674978912846876,-0.17395317979006364,-10.535509659255576,1.6974961133053803
1.6789030969679395,-4.494654370903588,1.6732393810489754,-0.15697821865700984,-9.851352056430262,0.21698984731343735
1.6339565532589035,-4.593167891467891,1.6716695988624053,-0.15480832018387547,-9.009072830612691,-1.5429665623945032
1.5880248743442247,-4.683258619774017,1.6701215156605664,-0.1702379858078205,-8.02932621348734,-3.548012047976555
1.5411922881464846,-4.7635518819088905,1.6684191358024882,-0.20571810628758608,-6.943835484695626,-5.744803164332991
1.4935567693273957,-4.832990236755847,1.6663619547396125,-0.263166137930916,-5.791948987915199,-8.06588728011827
1.4452268669598372,-4.890909726634999,1.6637302933603033,-0.3438250107320987,-4.615443173847339,-10.437336807181664
1.3963177696934872,-4.937064158373472,1.6602920432529824,-0.44819837880391533,-3.4527675532806392,-12.787415844750505
1.3469471281097525,-4.971591833906278,1.6558100594649432,-0.5760725372514204,-2.3341348035120317,-15.054204944540906
1.2972312097706897,-4.9949331819413985,1.650049334092429,-0.7266145866968294,-1.278522018159552,-17.190564142805705
1.2472818779512758,-5.007718402122994,1.6427831882254607,-0.8985202281248865,-0.2929549892067192,-19.16580963993545
1.1972046939300458,-5.010647952015061,1.6337979859442118,-1.0901783245242411,0.626248753221795,-20.964505021256713
1.1470982144098951,-5.004385464482843,1.6228962026989693,-1.2998233747368082,1.4910166576344897,-22.583403160423774
1.0970543597650666,-4.989475297906498,1.6098979689516013,-1.525657406341046,2.318634606018737,-24.027697415800812
1.0471596067860016,-4.966288951846311,1.5946413948881908,-1.7659343804990542,3.1290425774922657,-25.307490589326004
0.9974967172675385,-4.9349985260713884,1.5769820510832002,-2.0190092863923144,3.9426409745791307,-26.43500006903845
0.9481467320068246,-4.895572116325597,1.556791958219277,-2.283359287082699,4.778697088935016,-27.422668118218784
0.8991910108435687,-4.847785145436246,1.53395836534845,-2.5575859682648865,5.654291225429134,-28.282116358196923
0.8507131593892062,-4.791242233181955,1.5083825056658011,-2.8404071318468556,6.5836772558566325,-29.023772925765446
0.8028007370573866,-4.725405460623389,1.4799784343473326,-3.13064486110451,7.5779252410326094,-29.65697345968797
0.7555466824511528,-4.649626208213062,1.4486719857362875,-3.4272145957013898,8.644735211678745,-30.190353165319603
0.7090504203690221,-4.563178856096275,1.4143998397792736,-3.7291181273545857,9.788340238728544,-30.63237746470737
0.6634186318080594,-4.46529545370899,1.3771086585057277,-4.03544190200166,11.009441467749417,-30.99188634938865
0.6187656772709695,-4.3552010390314955,1.336754239485711,-4.345360765495546,12.305132061639602,-31.278544751824146
0.5752136668806546,-4.2321497184151,1.2933006318307556,-4.658146213013788,13.668768526291387,-31.503095085411733
0.5328921696965035,-4.095462033152185,1.2467191697006177,-4.973177163867906,15.089735324186888,-31.677297093249148
0.4919375493649817,-3.9445646799103167,1.1969873980619385,-5.289950134800397,16.5530204739705,-31.813412151406133
0.4524919025658785,-3.7790344751706115,1.1440878967139345,-5.608084256314458,18.03847382710955,-31.92304034560026
0.4147015578141724,-3.598649736899516,1.08800705415079,-5.927314659770461,19.519553635495008,-32.015043667798
0.3787150604451772,-3.403454200544566,1.0287339075530855,-6.247465096448441,20.961280824546215,-32.09218344146142
0.3446805184397316,-3.193841392299104,0.966259256588601,-6.568386930863055,22.317022593159138,-32.145969751053734
0.31274210451674056,-2.9706711663675125,0.9005753872799704,-6.889846628373593,23.523649829928925,-32.14909975309001
0.28303539285306545,-2.735434668068223,0.8316769209962345,-7.211337625904493,24.494644838936086,-32.044858229215876
0.25568104617238324,-2.4904882196788622,0.7595635447371896,-7.531786208196651,25.111082844081928,-31.733233577474564
0.2307761639755946,-2.239377391238043,0.684245682655223,-7.849118543971397,25.211486742677344,-31.054819133079967
0.20838239006321418,-1.9872625238112696,0.605754497215509,-8.159666735302196,24.584041960214215,-29.776761935560735
0.18850976482510148,-1.7414221042091274,0.524157829862487,-8.457434354657803,22.9692800210274,-27.591135422175398
0.1710955437830102,-1.5117293039988533,0.43958348631590904,-8.733345708879558,20.087692861535842,-24.144763705983618
0.15597825074302166,-1.3108523753834949,0.35225002922711346,-8.974793345939394,15.710368538620873,-19.124939198015007
0.1428697269891867,-1.1537486899972862,0.26250209576771955,-9.166042737919545,9.779719208285304,-12.411764709995838
0.13133224008921385,-1.055951497914433,0.1708416683885241,-9.290160385019503,2.547187882415529,-4.255358826474554
0.12077272511006952,-1.0304796190902779,0.07794006453832908,-9.332713973284248,-5.364212694627217,4.64172279716544
0.11046792891916674,-1.08412174603655,-0.015387075194513405,-9.286296745312594,-13.075230612431445,13.270131883107293
0.09962671145880124,-1.2148740521608645,-0.10825004264763935,-9.153595426481521,-19.735350656410596,20.67385874848571
0.08747797093719259,-1.4122275587249704,-0.19978599691245458,-8.946856838996665,-24.807518806392473,26.30094502950413
0.07335569534994288,-1.6603027467888951,-0.2892545653024212,-8.683847388701624,-28.168824599879965,30.11026436146382
0.05675266788205392,-1.9419909927876948,-0.3760930391894375,-8.382744745086987,-30.010447616806566,32.42409917240109
0.037332757954176975,-2.2420954689557604,-0.4599204866403074,-8.058503753362976,-30.66232344915217,33.6969318675084
0.01491180326461937,-2.5487187034472822,-0.5405055241739372,-7.721534434687891,-30.457532364328273,34.34726138040248
-0.010575383769853453,-2.853294027090565,-0.6177208685208161,-7.378061820883866,-29.668796251313815,34.687149657227444
-0.039108324040759104,-3.149981989603703,-0.6915014867296547,-7.031190324311592,-28.49673773499682,34.917640049025586
-0.07060814393679612,-3.434949366953671,-0.7618133899727706,-6.682013923821336,-27.08153113656461,35.15141766641524
-0.10495763760633284,-3.705764678319317,-0.828633529210984,-6.330499747157184,-25.519950691974838,35.43975918397981
-0.14201528438952601,-3.9609641852390656,-0.8919385266825558,-5.976102155317386,-23.880159104381306,35.79485315051682
-0.18162492624191667,-4.199765776282879,-0.9516995482357297,-5.618153623812217,-22.21232088965513,36.20585783543552
-0.22362258400474547,-4.4218889851794305,-1.007881084473852,-5.2560950454578625,-20.55541359677236,36.64968197846576
-0.2678414738565398,-4.627443121147154,-1.0604420349284305,-4.889598225673205,-18.941195887233224,37.09793825023861
-0.31411590506801135,-4.8168550800194865,-1.1093380171851626,-4.5186188431708185,-17.396237428036724,37.52126007137533
-0.36228445586820623,-4.990817454299854,-1.1545242056168707,-4.143406242457065,-15.942695233593511,37.89178948318887
-0.4121926304112048,-5.150244406635789,-1.1959582680414413,-3.764488347625176,-14.598301389869983,38.184326886932105
-0.4636950744775627,-5.296227420534489,-1.233603151517693,-3.382645078755855,-13.375848836177262,38.37641258945466
-0.5166573486829076,-5.429985908896262,-1.2674296023052516,-2.9988809528613083,-12.28232447100987,38.44746692501151
-0.5709572077718702,-5.55280915360636,-1.2974184118338647,-2.614406283611193,-11.317733920965647,38.37702641725702
-0.6264852993079338,-5.665986492816017,-1.3235624746699768,-2.2306360194386228,-10.473586208841864,38.14206412048854
-0.683145164236094,-5.770722354904435,-1.345868834864363,-1.8492153782337373,-9.730966521962575,37.71337723147565
-0.7408523877851383,-5.868032020124061,-1.3643609886467005,-1.4720816059189807,-9.058146169134968,37.05109621449152
-0.7995327079863789,-5.95861348181541,-1.3790818047058904,-1.1015706437740655,-8.407812702642811,36.099589859180874
-0.859118842804533,-6.042691608841839,-1.3900975111436311,-0.7405747451822569,-7.71433877858862,34.78253574699779
-0.9195457588929514,-6.119834996627725,-1.3975032585954537,-0.39274938771227896,-6.892164279477266,32.999862339891706
-0.9807441088592287,-6.188756639422498,-1.4014307524725764,-0.0627507643133619,-5.837425172177016,30.629757285782283
-1.0426316752534537,-6.247130891144268,-1.40205826011571,0.24354680854446092,-4.436265377472156,27.54073243588435
-1.1051029841648963,-6.29149354491899,-1.3996227920302655,0.5189541329033045,-2.5840000888085815,23.619651814193517
-1.168017919614086,-6.317333545807076,-1.3944332507012325,0.7551506510452397,-0.21755530900129336,18.818925012550626
-1.2311912550721569,-6.319509098897089,-1.3868817441907801,0.943339901170746,2.643143238475942,13.21614985237568
-1.2943863460611278,-6.293077666512329,-1.3774483451790727,1.0755013996945029,5.8610844362923045,7.062222415979298
-1.357317122726251,-6.234466822149406,-1.3666933311821277,1.1461236238542958,9.181371052391883,0.7800503374572162
-1.4196617909477451,-6.142653111625487,-1.3552320949435848,1.1539241272288678,12.282419725626042,-5.113139530350556
-1.481088322064,-6.019828914369226,-1.343692853671296,1.1027927319253623,14.867044658592969,-10.141910207078888
-1.5412866112076924,-5.871158467783296,-1.3326649263520423,1.0013736298545735,16.748219338167313,-14.000867561966393
-1.5999981958855254,-5.703676274401623,-1.3226511900534965,0.8613649542349096,17.884245795233493,-16.60838408601461
-1.6570349586295416,-5.524833816449288,-1.3140375405111475,0.6952811133747634,18.354661654996182,-18.072278687066753
-1.7122832967940345,-5.341287199899326,-1.3070847293774,0.5145583265040958,18.30462680625328,-18.607493490423632
-1.7656961687930277,-5.158240931836793,-1.301939146112359,0.3284833915998595,17.891926452795925,-18.456031003793317
-1.8172785781113956,-4.979321667308834,-1.2986543121963605,0.14392308156192635,17.254154577952995,-17.835789530078756
-1.867071794784484,-4.806780121529304,-1.2972150813807413,-0.03443481373886123,16.496231004705557,-16.919419410496495
-1.915139595999777,-4.641817811482248,-1.2975594295181299,-0.20362900784382618,15.690809861172113,-15.832778781846372
-1.9615577741145995,-4.484909712870527,-1.2995957195965682,-0.3619567956622899,14.884282849428775,-14.66237087403795
-2.0064068712433047,-4.3360668843762395,-1.303215287553191,-0.5085805044026694,14.103866881877684,-13.46500579493665
-2.049767540087067,-4.195028215557462,-1.3083010925972178,-0.6432305623520359,13.363755624541236,-12.276522708011424
-2.091717822242642,-4.06139065931205,-1.314733398220738,-0.7659957894321502,12.669780043163517,-11.118584620105565
-2.1323317288357626,-3.9346928588804144,-1.3223933561150596,-0.8771816356332058,12.02267770613089,-10.003569371834217
-2.171678657424567,-3.8144660818191056,-1.3311651724713915,-0.977217329351548,11.420274397859329,-8.937925775919075
-2.209823318242758,-3.7002633378405125,-1.340937345764907,-1.0665965871107388,10.858887112671988,-7.9244053453288945
-2.246825951621163,-3.5916744667137928,-1.3516033116360144,-1.1458406405640278,10.334197583167203,-6.96351336008694
-2.282742696288301,-3.4883324908821205,-1.3630617180416547,-1.2154757741648972,9.841777467210305,-6.054435534778123
-2.3176260211971225,-3.3899147162100176,-1.3752164757833036,-1.2760201295126783,9.377389682067953,-5.195620059290614
-2.3515251683592227,-3.296140819389338,-1.3879766770784303,-1.3279763301055845,8.93714862870392,-4.385136746331132
-2.3844865765531162,-3.2067693331022986,-1.401256440379486,-1.3718276975688959,8.51759314053387,-3.620893925532119
-2.416554269884139,-3.12159340169696,-1.414974717355175,-1.408036636824217,8.115706675092568,-2.9007657246977483
-2.4477702039011087,-3.040436334946034,-1.429055083723417,-1.4370442940711945,7.728906637935951,-2.222663729005781
-2.478174567250569,-2.963147268566675,-1.443425526664129,-1.4592709313612524,7.3550165826700775,-1.5845747585747831
-2.5078060399362356,-2.889597102739974,-1.4580182359777414,-1.4751166789470003,6.992229823643817,-0.9845785302567894
-2.5367020109636353,-2.819674804503536,-1.4727694027672114,-1.4849624642495682,6.639069688815076,-0.4208538123695139
-2.5648987590086705,-2.753284107615385,-1.487619027409707,-1.4891710023732634,6.294349547159622,0.1083216345386954
-2.5924316000848244,-2.6903406121437885,-1.5025107374334397,-1.4880877860278765,5.957134426457835,0.6045741553184331
-2.619335006206262,-2.6307692678792103,-1.5173916152937184,-1.4820420444746922,5.626705210645782,1.0694385009494929
-2.6456426988850543,-2.5745022157727524,-1.5322120357384652,-1.4713476594651973,5.302525891049904,1.5043623343481207
-2.6713877210427817,-2.5214769568622533,-1.5469255123331171,-1.456304036121716,4.984214028412556,1.910710455946961
-2.6966024906114043,-2.4716348165781277,-1.5614885526943343,-1.4371969315622466,4.671514390235803,2.289768568051132
-2.7213188387771856,-2.42491967267577,-1.5758605220099569,-1.4142992458817352,4.364275614797633,2.6427465684842995
-2.7455680355039433,-2.3812769165277934,-1.5900035144687743,-1.3878717801968923,4.062429690233488,2.970781451986928
-2.7693808046692214,-2.3406526196254585,-1.6038822322707433,-1.358163965677023,3.7659740059700857,3.274939934229086
-2.792787330865476,-2.3029928795657577,-1.6174638719275136,-1.325414566334732,3.474955722898054,3.5562209188987626
-2.8158172596611335,-2.2682433223367773,-1.6307180175908609,-1.2898523571457445,3.1894582105539753,3.8155579164730424
-2.8384996928845014,-2.2363487402312376,-1.6436165411623183,-1.2516967779810142,2.909589309491267,4.0538215024629585
-2.8608631802868136,-2.207252847136325,-1.6561335089421283,-1.2111585629563846,2.6354711918688154,4.2718218784389
-2.882935708758177,-2.180898135217637,-1.6682450945716922,-1.1684403441719955,2.367231611048029,4.47031157419795
-2.9047446901103533,-2.1572258191071567,-1.6799294980134123,-1.123737228430016,2.1049963503012634,4.6499883058765015
