th1 (rad),w1 (rad/s),th2 (rad),w2 (rad/s)
5.454657944964237,-1.630591034924509,4.2664793149118925,-2.8906250807843494
5.438352034614992,-1.6173132161367918,4.2375730641040485,-2.7824992354651945
5.4221789024536236,-1.5990922237820921,4.209748071749397,-2.6775428453941643
5.406187980215803,-1.5761791250601742,4.1829726432954555,-2.575754295189538
5.390426188965201,-1.548819985934238,4.15721510034356,-2.4771317358806093
5.374937989105859,-1.5172550669146099,4.132443782984754,-2.3816706179245997
5.359765438436712,-1.4817181307640124,4.108627076805508,-2.2893616087864235
5.344948257129072,-1.442435863597367,4.085733460717644,-2.2001888717294737
5.330523898493099,-1.3996274088790184,4.063731572000349,-2.114128678376744
5.3165276244043085,-1.3535040114862915,4.042590285216582,-2.0311483252459794
5.302992584289446,-1.3042687666908563,4.022278801964122,-1.9512053234376923
5.289949896622537,-1.2521164668454463,4.002766748729745,-1.8742468306549966
5.277428731954083,-1.1972335368877467,3.984024280423195,-1.800209295516759
5.265456396585205,-1.1397980485481882,3.9660221874680275,-1.729018285491549
5.254058416099723,-1.0799798023864948,3.948732004613112,-1.660588471562632
5.243258618075858,-1.0179404664623242,3.9321261198974855,-1.5948237447931874
5.2330792134112345,-0.9538337605264007,3.9161778824495537,-1.5316174421781512
5.223540875805971,-0.8878056750464697,3.9008617080277723,-1.4708526614471766
5.214662819055506,-0.819994715098249,3.8861531814133006,-1.4124026467439774
5.206462871904523,-0.7505321600957379,3.872029154945861,-1.3561312292903174
5.198957550303565,-0.6795423314507768,3.8584678426529577,-1.30189330920409
5.192162126989058,-0.6071428614861892,3.845448909560917,-1.2495353665510998
5.186090698374196,-0.5334449582334628,3.832953555895406,-1.1988959914532133
5.1807562487918615,-0.4585536620841959,3.820964595980874,-1.149806424646789
5.17617071217102,-0.3825680916001831,3.8094665317344063,-1.1020911012894283
5.172345031255018,-0.3055816770917486,3.798445620721512,-1.0555681920626179
5.169289214484101,-0.22768238182505654,3.7878899388008858,-1.0100501367310692
5.1670123906658505,-0.14895291189897725,3.777789437433575,-0.9653441663192316
5.165522861546861,-0.06947091692750265,3.7681359957703826,-0.9212528109769731
5.164828152377586,0.010690815334522236,3.7589234676606127,-0.8775743914566536
5.164935060530931,0.09146416638222482,3.7501477237460463,-0.8341034929397357
5.165849702194754,0.17278549152784078,3.741806688816649,-0.7906314207587184
5.167577557110032,0.2545954161063546,3.7339003746090618,-0.7469466383835763
5.170123511271096,0.3368386171851274,3.726430908225226,-0.7028351889022506
5.173491897442947,0.419463584143815,3.7194025563362034,-0.6580811021396059
5.177686533284385,0.502422351084829,3.7128217453148076,-0.6124667905418807
5.182710756795234,0.5856701937167301,3.706697077409389,-0.5657734380122557
5.188567458732401,0.6691652831184163,3.701039343029266,-0.5177813870204933
5.195259111563585,0.7528682886367635,3.6958615291590613,-0.46827053052234147
5.202787794449953,0.8367419220921339,3.691178823853838,-0.4170207165026849
5.2111552136708745,0.9207504154651157,3.687008616688811,-0.36381217428333396
5.220362717825526,1.0048589243178172,3.683370494945978,-0.30842597308735686
5.230411307068704,1.0890328493724706,3.6802862352151045,-0.2506445246942871
5.2413016355624285,1.1732370689431382,3.6777797899681617,-0.19025214331290896
5.25303400625186,1.2574350753137788,3.6758772685350327,-0.12703567698970775
5.265608357004997,1.3415880087061294,3.6746069117651357,-0.06078522590042214
5.279024237092059,1.4256535832202055,3.6739990595061314,0.00870503633231244
5.293280772924261,1.5095849001035262,3.6740861098694544,0.08163592167342344
5.308376621925296,1.593329144965327,3.6749024690861885,0.1582021503722952
5.324309913374949,1.676826167159319,3.6764844905899112,0.23859112108066372
5.341078175046543,1.7600069415789388,3.678870401800718,0.32298151322935154
5.358678244462332,1.8427919156117927,3.6821002169330113,0.41154170833463843
5.377106163618451,1.9250892470540828,3.6862156340163574,0.504428019618662
5.396357056088991,2.0067929424553523,3.691259914212544,0.6017827230488657
5.416424985513545,2.087780909702287,3.6972777414430325,0.7037318877483273
5.437302794610567,2.167912943693308,3.704315060320516,0.8103830098053332
5.4589819240475,2.2470286697134165,3.712418890418569,0.9218224608944677
5.481452210744634,2.3249454755670067,3.7216371150275136,1.0381127718528957
5.5047016655003045,2.4014564705975703,3.7320182427460424,1.1592897814243703
5.52871623020628,2.4763285172976586,3.743611140560286,1.2853596917167434
5.553479515379257,2.5493003891101735,3.7564647374774536,1.4162960843684096
5.5789725192703585,2.620081115996613,3.7706276983211375,1.5520369647523893
5.605173330430325,2.6883485870819737,3.786148067968661,1.6924819154395225
5.632056816301144,2.753748486790119,3.8030728871230566,1.8374894541768707
5.6595943011690455,2.8158936468971465,3.8214477816648253,1.986874705305635
5.687753237638017,2.8743639013265536,3.841316528717882,2.140407506253745
5.7164968766512825,2.9287065327017396,3.8627206037804194,2.2978110818303312
5.7457839419783,2.9784373990195645,3.8856987145987225,2.4587614278057424
5.775568315968496,3.0230428246322316,3.9102863288767797,2.6228875509251695
5.805798744214818,3.0619823313113206,3.9365152043860316,2.7897727142952724
5.836418567527931,3.094692271788423,3.9644129315289844,2.9589568342092294
5.867365490245816,3.1205904090970686,3.9940024998710766,3.12994016614688
5.898571394336787,3.1390814595949985,4.025301901532545,3.3021884031359185
5.929962208932737,3.1495635851333614,4.058323785563904,3.475139288177523
5.9614578447840705,3.1514357800495003,4.093075178445679,3.6482108134360214
5.992972202584565,3.1441060513857004,4.12955728658004,3.820811042004784
6.024413263098422,3.127000236336462,4.167765397000088,3.9923495433156004
6.055683265461787,3.0995712404180846,4.207688892433244,4.1622503812911695
6.086678977865968,3.061308415108378,4.2493113962461555,4.329966536661229
6.117292062017052,3.0117467276093857,4.292611061612768,4.494995584141723
6.147409529293146,2.950475311913566,4.337561017454186,4.6568963854810885
6.176914282412281,2.877144934464666,4.3841299813089964,4.815306506295922
6.205685731756928,2.7914738650330038,4.432283046371956,4.969960025175218
6.233600470407258,2.6932516197096175,4.481982646623708,5.120705385830482
6.260532986604354,2.5823400432023496,4.533189700482013,5.267522955609282
6.286356387036378,2.4586712252768326,4.585864930038106,5.410542004392251
6.310943099289146,2.32224180204633,4.639970350082028,5.55005691289642
6.334165517309609,2.1731032744995273,4.695470919210992,5.686542561770714
6.355896550054604,2.0113480785738056,4.7523363448286995,5.820669041293984
6.376010030840342,1.8370912554001482,4.810543035241639,5.953316049041247
6.394380943394343,1.6504476894042999,4.870076195732051,6.08558759543319
6.410885420288386,1.4515050027606233,4.930932071686383,6.218827890532709
6.425400470315992,1.2402923266625798,4.9931203505917106,6.354639499916399
6.437803393582618,1.016745347955505,5.056666745590874,6.494904964606468
6.447970847062173,0.7806683376002242,5.121615795236939,6.641812956515612
6.4557775304381755,0.5316944802605815,5.188033924802095,6.797889453904597
6.461094475240781,0.26924708882409054,5.256012819341141,6.966032920630253
6.463786946129022,-0.007493123628293907,5.325673148547444,7.149549177739878
6.463712014892739,-0.2996043365739604,5.397168640324843,7.3521748432988
6.460715971526999,-0.6084028176470317,5.470690388757831,7.5780645440135705
6.454631943350528,-0.9353443936008073,5.546471034197967,7.83169022031601
6.4452784994145205,-1.2817696877046427,5.624787936401127,8.1175492202471
6.432460802537474,-1.6483455490629049,5.705963428603598,8.439482573015407
6.415977347046844,-2.0339390671304374,5.790358254333752,8.79924240975027
6.39563795637554,-2.433500888657916,5.8783506784312545,9.19371882141281
6.371302947488961,-2.834440280618227,5.970287866645383,9.610085160368797
6.342958544682779,-3.211401025429771,6.066388718249071,10.018667014750841
6.310844534428481,-3.521440239915466,6.166575388396579,10.366164739242434
6.275630132029327,-3.706453605239085,6.270237035789004,10.578486096651263
6.238565595976936,-3.713017450104205,6.376021896755516,10.587059630292792
6.201435421475893,-3.5264810424937867,6.481892493058444,10.374306966650112
6.166170611050956,-3.186920481309544,6.585635562724945,9.994245557910284
6.13430140623786,-2.763096394671389,6.685578018304048,9.536609356393859
6.106670442291146,-2.314088574491962,6.780944111867986,9.075751566247558
6.083529556546226,-1.8742076285325537,6.871701627530461,8.651910141513838
6.064787480260901,-1.4579291299131005,6.9582207289456,8.279064912115423
6.05020818896177,-1.068844105937695,7.041011378066754,7.957404005255009
6.039519747902394,-0.7058010245384182,7.120585418119304,7.6815340468098805
6.03246173765701,-0.36606216644708034,7.197400758587403,7.444524155542443
6.028801115992539,-0.04669764269094806,7.271846000142827,7.239581560796957
6.028334139565629,0.2548770417441935,7.344241815750797,7.060621050477796
6.030882909983071,0.5407415644398426,7.414848026255575,6.902373798174798
6.03629032562747,0.8124663977340224,7.483871764237323,6.760327021685689
6.04441498960481,1.0711656348598906,7.55147503445418,6.630616860766268
6.055126645953409,1.3175661852787455,7.617781203061843,6.50992208756021
6.068302307806197,1.5520774087575964,7.682880423937445,6.395374596512746
6.083823081893772,1.7748557729321506,7.746834169902573,6.284489766857747
6.101571639623094,1.98586330086916,7.8096790675711505,6.175114931578559
6.121430272631786,2.184920023807761,7.871430216886936,6.065392638350911
6.143279472869863,2.371750968100925,7.932084143270445,5.953735160198814
6.166996982550872,2.546028094445731,7.991621494872433,5.838806980992411
6.19245726349533,2.707407386634857,8.050009564682357,5.719512415186122
6.219531337361678,2.855561092665595,8.107204688834218,5.5949860005033445
6.248086948288334,2.9902050061712417,8.163154548839252,5.464583784912599
6.277988998350046,3.111120652645728,8.217800386688378,5.327874099642781
6.309100204876503,3.218172302897205,8.271079127684805,5.184626857261187
6.3412819279054755,3.3113188540494094,8.322925396257418,5.034800825222741
6.37439511644597,3.390620769563625,8.373273404509645,4.878528686342969
6.408301324141607,3.45624242738485,8.422058691373074,4.716099995000805
6.442863748415455,3.5084503663530464,8.469219691323083,4.547942362368567
6.477948252078986,3.547608028762051,8.514699114946769,4.374601352707579
6.513424332366606,3.5741676622825618,8.558445128473844,4.196719649738713
6.549166008989432,3.5886600656722454,8.60041232497123,4.015016067232305
6.585052609646154,3.591682844100074,8.640562485643553,3.830264945159904
6.620969438087155,3.5838877898402655,8.678865135095153,3.6432764074205877
6.6568083159855576,3.5659679326572333,8.715297899169359,3.4548778739104122
6.69246799531213,3.5386447213659245,8.749846677908463,3.2658971306517732
6.727854442525789,3.5026557122371127,8.782505649214981,3.0771471755409396
6.762880999648161,3.4587430572993383,8.81327712097039,2.889412979199442
6.797468430221154,3.4076430099779604,8.842171250762386,2.7034402326249456
6.831544860320934,3.350076598676148,8.869205653088635,2.5199260958907064
6.865045626307695,3.2867415611316737,8.894404914047541,2.3395119139095835
6.897913041919011,3.2183055830980623,8.917800033186637,2.1627778247571827
6.930096097749992,3.1454008431785776,8.939427811434209,1.9902391519396572
6.961550106181778,3.068619830592865,8.959330202953605,1.8223444434896707
6.992236304487706,2.9885123736036925,8.977553647388502,1.6594749976112289
7.022121428223743,2.905583792860872,8.994148397364615,1.5019456969083314
7.051177266152352,2.8202940758165522,9.009167854333699,1.3500069613479706
7.079380206910518,2.733057955505275,9.022667923947179,1.2038476243071674
7.1067107864655705,2.6442457692126062,9.03470640019025,1.0635985363963476
7.133153244157697,2.554184969613493,9.045342385554214,0.9293367079717062
7.158695093853832,2.4631621624225724,9.054635752633931,0.8010898127354715
7.183326715478058,2.37142554987873,9.062646650761286,0.6788408906658241
7.207040970976846,2.2791876677713487,9.069435059667944,0.5625331076051014
7.229832847654559,2.1866283144165535,9.075060390743994,0.4520744499642459
7.251699130798724,2.0938975822048267,9.079581135243636,0.3473422549939163
7.272638106620772,2.0011189153065936,9.083054557793576,0.2481874988634502
7.292649295773838,1.9083921301687707,9.08553643278221,0.15443878549186996
7.311733217075526,1.815796348011013,9.087080820637128,0.06590599801729885
7.329891180555636,1.723392800216896,9.0877398806173,-0.01761640848055271
7.3471251085578055,1.6312274780271432,9.087563716532495,-0.09634648012312419
7.363437383338077,1.539333607116237,9.086600251731264,-0.17051219862383224
7.3788307194092395,1.447733935411958,9.084895129745025,-0.2403492630357118
7.393308058763359,1.3564428289245642,9.082491637114668,-0.3060991979788865
7.406872487052604,1.2654681754747672,9.07943064513488,-0.368007762534195
7.419527168807352,1.174813100174679,9.075750567509537,-0.42632363082670705
7.431275299809099,1.084477499473802,9.07148733120127,-0.4812973136488254
7.442120074803837,0.9944594026918696,9.066674358064782,-0.5331802900094647
7.452064668830755,0.9047561713784119,9.061342555164687,-0.5822243179860309
7.461112230544539,0.8153655477114875,9.055520311984827,-0.628680895469879
7.469265886021653,0.7262865636059166,9.049233503030129,-0.6728008431349284
7.476528751657713,0.6375203223571909,9.04250549459878,-0.7148339840558899
7.482903954881285,0.5490706645944355,9.035357154758222,-0.7550288967195502
7.488394661527229,0.4609447301288053,9.027806865791026,-0.7936327205990902
7.493004108828517,0.37315342701914134,9.019870538585035,-0.8308909959102664
7.496735643098709,0.2857118188751187,9.011561628625932,-0.867047521572118
7.4995927612874596,0.19863944110596168,9.00289115341021,-0.9023442177029762
7.501579155698519,0.11196055651466919,8.99386771123318,-0.9370209811578982
7.502698761263666,0.025704360338448917,8.984497501421602,-0.9713155246304453
7.50295580486705,-0.06009485545709008,8.974784346175298,-1.005463191683529
7.502354856312479,-0.14539756911803287,8.964729714258462,-1.0396967417322625
7.500900880621299,-0.23015891807524608,8.95433274684114,-1.074246100474604
7.498599291440547,-0.314328601090083,8.943590285836393,-1.10933807255734
7.495456005429646,-0.3978507851000948,8.93249690511082,-1.145196014385427
7.491477497578645,-0.48066400874366944,8.921044944966967,-1.1820394659468991
7.486670857491208,-0.5627010750743128,8.909224550307497,-1.2200837413533288
7.481043846740465,-0.6438889266027747,8.897023712893963,-1.2595394785117346
7.474604957474437,-0.7241484965422913,8.884428318108846,-1.3006121489767903
7.467363472509014,-0.8033945309908341,8.871422196619077,-1.3435015296151518
7.459329527199105,-0.8815353777741616,8.857987181322926,-1.3884011382833443
7.450514173421364,-0.9584727388017991,8.844103169940093,-1.4354976363166818
7.440929446033346,-1.0341013840590687,8.829748193576926,-1.4849702012914008
7.4305884321927556,-1.108308826772771,8.814898491564012,-1.5369898742995194
7.419505343925028,-1.1809749608429645,8.799528592821018,-1.5917188869104508
7.407695594316598,-1.251971663320647,8.783611403951912,-1.6493099741291217
7.395175877683392,-1.3211623665175676,8.767118304210621,-1.7099056810391209
7.381964254018216,-1.3884016062396973,8.75001924740023,-1.7736376724792076
7.3680802379558195,-1.4535345546118972,8.732282870675437,-1.8406260570742048
7.3535448924097,-1.5163965479704502,8.713876610104695,-1.9109787392503248
7.338380926929996,-1.576812622293919,8.694766822712191,-1.9847908155225207
7.322612800707057,-1.6345970705604231,8.674918914556965,-2.0621440343456
7.306266830001452,-1.6895530381865063,8.654297474213509,-2.143106342152452
7.289371299619587,-1.7414721742303538,8.632866410791985,-2.227731541822424
7.271956577877283,-1.79013435722662,8.610589095373761,-2.316059093668139
7.254055234305017,-1.835307515243964,8.58742850443708,-2.4081140930117395
7.235702159152578,-1.8767475598903323,8.563347363506962,-2.5039074624261493
7.216934683553675,-1.9141984533982404,8.5383082888827,-2.6034364005994606
7.1977926990196925,-1.9473924264652605,8.512273924876705,-2.7066851333685538
7.17831877475504,-1.9760503620753054,8.48520707354302,-2.813626015561486
7.158558271134287,-1.9998823569794404,8.457070813387405,-2.924221034661025
7.138559447564492,-2.01858846780924,8.427828603040796,-3.03842376870302
7.1183735628864,-2.031859642938931,8.397444365353765,-3.1561818509768034
7.098054966457011,-2.0393788343166275,8.365882546843997,-3.2774399926930617
7.0776611781138445,-2.040822275812124,8.333108146917066,-3.402143611473813
7.0572529553557235,-2.0358609066531983,8.299086710802328,-3.530243107866079
7.036894346289191,-2.024161911014614,8.263784279723668,-3.6616988235098673
7.0166527271790455,-2.0053903389677434,8.227167291488568,-3.7964867022722197
6.996598823789368,-1.9792107715592726,8.189202424465845,-3.9346046583176606
6.976806716073775,-1.945288996359292,8.149856377882669,-4.076079630688364
6.957353826110182,-1.9032936731988186,8.109095581575785,-4.2209752692172104
6.938320889378194,-1.8528979985739271,8.066885828883613,-4.369400146125808
6.919791909392455,-1.7937814295532768,8.023191827422355,-4.521516312760918
6.901854095096922,-1.7256316162364205,7.977976664294746,-4.6775479075697115
6.884597778934557,-1.64814683425734,7.93120118521905,-4.83778934719116
6.868116310591984,-1.5610394332616262,7.882823291747138,-5.0026123619448315
6.852505916259368,-1.4640411656513752,7.83279716812769,-5.172470714375564
6.8378655046028545,-1.356911795289226,7.781072460983935,-5.347900778762617
6.824296386649962,-1.2394532019111795,7.727593453196309,-5.529515129910546
6.81190185463085,-1.1115324288055644,7.672298301897203,-5.717984698444286
6.800786530342795,-0.9731189535934986,7.61511845491276,-5.9140026272469965
6.79105534080686,-0.8243441210885728,7.55597842864029,-6.118219365949066
6.782811899595974,-0.6655943722321034,7.494796234980799,-6.3311334190361634
6.776155955873653,-0.4976546333759542,7.431484900790438,-6.552915409752623
6.771179409539894,-0.32192328649195845,7.3659557466929115,-6.7831355269137195
6.767960176674974,-0.14072298409818676,7.298124391423775,-7.020359187109451
6.7665529468339916,0.04227432591149216,7.22792079955268,-7.261581449007882
6.766975690093107,0.22151816943949845,7.155304985062601,-7.501505814644699
6.769190871787502,0.38902984103973004,7.080289926916154,-7.731768878913893
6.773081170197899,0.5340586885402265,7.002972238127015,-7.940402197137109
6.778421757083301,0.6433681886221929,6.923568216155644,-8.112089828068466
6.784855438969522,0.7026921233159157,6.842447317874959,-8.229943890139491
6.791882360202681,0.6996267880619651,6.760147878973564,-8.279162812130888
6.798878628083301,0.6273034562266208,6.677356250852255,-8.251710708590998
6.805151662645567,0.4870525586794161,6.594839143766345,-8.149653300229925
6.810022188232361,0.28824262862806116,6.513342610764045,-7.984778825771727
6.812904614518642,0.045221070686909226,6.433494822506328,-7.774488192972344
6.813356825225511,-0.2267472028546379,6.355749940576605,-7.536528734244459
6.811089353196964,-0.5144704737869508,6.280384653234161,-7.285286579748055
6.805944648459095,-0.8080261452668729,6.20753178743668,-7.030495195012774
6.797864387006426,-1.10062967203513,6.137226835486552,-6.777652162807808
6.786858090286074,-1.3879332045451076,6.069450313858474,-6.52911044968389
6.772978758240623,-1.6672646763641,6.004159209361635,-6.285179257711717
6.756306111476983,-1.9370190405993712,5.941307416784518,-6.044979671441736
6.736935921070989,-2.196237290569968,5.880857620070101,-5.80703010296096
6.71497354816529,-2.4443408485599742,5.822787319040491,-5.569618398136107
6.69053013967969,-2.6809761460313952,5.76709113505913,-5.331027197168942
6.663720378219376,-2.9059312431957696,5.7137808630874405,-5.089665122093914
6.6346610657874185,-3.119097058939,5.662884211866501,-4.844139506391454
