th1 (rad),w1 (rad/s),th2 (rad),w2 (rad/s),a1 (rad/s^2),a2 (rad/s^2)
5.836886266348018,0.5086625114281667,4.28898950197957,1.2979078078945743,3.2835215726361304,9.118120520149933
5.8419728914623,0.5414977271545279,4.3019685800585155,1.3890890130960736,3.0792457849275303,9.184420620173736
5.847387868733845,0.5722901850038032,4.315859470189476,1.4809332192978109,2.859513800582649,9.254593036338072
5.853110770583883,0.6008853230096297,4.330668802382455,1.5734791496611915,2.6240786523992505,9.328452029443588
5.859119623813979,0.6271261095336222,4.346403593879066,1.6667636699556274,2.3726978759000485,9.405855901621438
5.865390884909315,0.6508530882926228,4.363071230578623,1.7608222289718418,2.105136620047406,9.486719921158212
5.8718994157922415,0.6719044544930969,4.380679452868341,1.855689428183424,1.8211704140884872,9.571030343797357
5.878618460337172,0.6901161586339818,4.399236347150175,1.9513997316213976,1.5205874498328082,9.658859548629442
5.885519621923512,0.7053220331323099,4.41875034446639,2.047988327107692,1.2031902248722042,9.750382297865567
5.892572842254835,0.717353935381032,4.4392302277374664,2.1454921500863477,0.8687963815812043,9.845893119497905
5.8997463816086455,0.726041899196844,4.46068514923833,2.2439510812813266,0.5172385711892655,9.945824799459809
5.907006800600614,0.7312142849087366,4.483124660051144,2.3434093292759246,0.14836317450040692,10.050767954138168
5.914318943449701,0.7326979166537407,4.506558753343903,2.4439170088173063,-0.23797227536962137,10.161491632655489
5.921645922616238,0.7303181939000445,4.530997923432076,2.545531925143861,-0.6419030924955856,10.278964867272274
5.9289491045552385,0.7238991629750886,4.5564532426835145,2.6483215738165837,-1.0635629301128262,10.404379043048404
5.936188096184989,0.7132635336739603,4.58293645842168,2.752365364247068,-1.503090747567842,10.539170884110382
5.943320731521729,0.698232626198282,4.610460112064151,2.8577570730881714,-1.9606390989401683,10.685045737102064
5.950303057783712,0.6786262352088803,4.639037682795032,2.964607530459192,-2.436383385119408,10.844000647227105
5.9570893201358,0.6542624013576862,4.668683758099624,3.073047536931463,-2.9305314062957013,11.018346429668659
5.963631944149378,0.6249570872947292,4.699414233468938,3.1832310012281497,-3.4433321014112637,11.21072747948127
5.969881515022325,0.5905237662806165,4.73124654348122,3.2953382760229624,-3.9750816971186436,11.424137345671994
5.975786752685131,0.5507729493094301,4.764199926241449,3.4095796494796824,-4.526124509596035,11.661926982799278
5.9812944821782255,0.5055117042134698,4.798295722736246,3.5261989193076753,-5.096844196218098,11.927800878488044
5.98634959922036,0.4545432622512888,4.833557711929323,3.6454769280925556,-5.687639113584592,12.22579362520206
5.990895031842873,0.3976668711154429,4.8700124812102485,3.7677348643445763,-6.2988722661421495,12.560215490950842
5.994871700554028,0.33467814845402144,4.907689829853695,3.893337019254085,-6.930781627540486,12.935549449890043
5.998218482038568,0.2653703321786166,4.946623200046235,4.022692513752985,-7.583329660670514,13.356272938384656
6.000872185360354,0.18953703557191148,4.986850125183765,4.156255243136831,-8.255960623921812,13.826563839333366
6.002767555716073,0.10697742933269336,5.028412677615133,4.294520881530165,-8.947219330514832,14.349829842575055
6.003837330009399,0.017505236027545043,5.071357886430435,4.438019179955916,-9.654163658955195,14.927970770165741
6.004012382369675,-0.0790364005620069,5.1157380782299935,4.587298887657573,-10.371473409697384,15.560241771670785
6.003222018364055,-0.18275113465898074,5.161611067106569,4.74290130537428,-11.090118929163118,16.241529360525305
6.001394507017466,-0.2936523239506119,5.209040080160312,4.9053165989795335,-11.795406212519907,16.959783810552437
5.99845798377796,-0.411606386075811,5.258093246150107,5.074914437085058,-12.464171388115378,17.692283364189638
5.9943419199172014,-0.5362480999569648,5.308842390520958,5.251837270726954,-13.060886988010104,18.40037775668862
5.988979438917632,-0.6668569698370658,5.361360763228228,5.43584104829384,-13.532537247806877,19.022467216966792
5.982310869219261,-0.8021823423151345,5.415719173711166,5.626065720463508,-13.802467733518586,19.46541955229483
5.97428904579611,-0.9402070196503204,5.4719798309158,5.820719915986456,-13.7642748188318,19.595768952046043
5.964886975599606,-1.0778497678386383,5.530187030075665,6.016677605506916,-13.27851918322493,19.234360467088923
5.95410847792122,-1.2106349596708876,5.590353806130734,6.209021210177806,-12.177802794823117,18.16187255310985
5.942002128324511,-1.3324129876191189,5.652444018232512,6.390639935708904,-10.288752717021637,16.146826622871483
5.928677998448319,-1.4353005147893352,5.716350417589601,6.552108201937619,-7.479499803816924,13.007920751962738
5.914324993300426,-1.5100955128275044,5.781871499608978,6.682187409457247,-3.732000303621428,8.710139551418463
5.89922403817215,-1.5474155158637186,5.848693373703551,6.769288804971431,0.7847591121559174,3.462492532030469
5.883749883013513,-1.5395679247421594,5.916386261753265,6.803913730291736,5.69152866876607,-2.251274476853834
5.868354203766091,-1.4826526380544987,5.984425399056183,6.781400985523198,10.472659477164598,-7.772288371508517
5.8535276773855465,-1.3779260432828526,6.052239408911414,6.703678101808113,14.633978671110716,-12.477614436701543
5.839748416952718,-1.2315862565717455,6.119276189929495,6.578901957441098,17.856776583090777,-15.98304337531594
5.827432554387,-1.0530184907408378,6.1850652095039065,6.419071523687939,20.057153846219236,-18.216226668702564
5.816902369479592,-0.8524469522786454,6.249255924740786,6.236909257000914,21.33878928970886,-19.347274129693695
5.808377899956805,-0.6390590593815568,6.311625017310795,6.043436515703977,21.898043896823925,-19.65878044125828
5.80198730936299,-0.42007862041331756,6.372059382467834,5.846848711291394,21.942674715802436,-19.437763041277016
5.797786523158857,-0.20065187325529318,6.430527869580748,5.652471080878624,21.647815299868746,-18.91954912838964
5.795780004426304,0.01582627974339429,6.487052580389535,5.463275589594728,21.143148865263434,-18.273677555863383
5.795938267223739,0.22725776839602863,6.541685336285482,5.2805388140360945,20.516813793089582,-17.611489680115312
5.7982108449076994,0.43242590632692446,6.594490724425843,5.104423917234941,19.824998269400595,-17.000429375839385
5.8025351039709685,0.6306758890209304,6.645534963598193,4.934419623476547,19.10158215447965,-16.477676030168467
5.808841862861178,0.8216917105657269,6.694879159832959,4.769642863174862,18.365836511608173,-16.060704313923374
5.817058779966835,1.0053500756818086,6.742575588464708,4.609035820035628,17.627946814136696,-15.754670871957467
5.827112280723654,1.1816295438231754,6.788665946665064,4.451489111316054,16.892744374048977,-15.557286922418177
5.838928576161885,1.3505569875636652,6.833180837778224,4.295916242091872,16.162133907725554,-15.461916891511237
5.852434146037522,1.5121783266409208,6.876140000199143,4.1412970731767595,15.43662929588428,-15.459502958122327
5.867555929303931,1.6665446195997635,6.9175529709309105,3.9867020435955363,14.71629906369665,-15.539743640847718
5.884221375499928,1.81370761023673,6.957419991366866,3.831304607187059,14.001327478038368,-15.69181256259626
5.9023584516022956,1.9537208850171137,6.995733037438736,3.6743864815610965,13.292326828478354,-15.904801194960706
5.921895660452467,2.086644153301897,7.032476902254347,3.5153384696114895,12.590488565798415,-16.16800032365947
5.942762101985486,2.212549038959881,7.067630286950462,3.353658466374895,11.897629728141666,-16.471089971655115
5.964887592375085,2.331525336241298,7.101166871614211,3.188947566658344,11.216171228381056,-16.80427876124774
5.988202845737498,2.4436870485251085,7.133056347280794,3.0209047790458667,10.549072158474607,-17.158415553090496
6.012639716222749,2.549177770109855,7.163265395071253,2.849320623514962,9.899736557445863,-17.525084882572017
6.0381314939238475,2.6481751356843133,7.191758601306403,2.674069774689242,9.271904278384127,-17.896690770099156
6.0646132452806905,2.7408941784681544,7.2184992990532955,2.4951028669882502,8.669534502793251,-18.2665293468566
6.092022187065372,2.827589523496087,7.243450327723178,2.3124375735196843,8.096688338002991,-18.628848410637524
6.120298082300333,2.908556406876117,7.2665747034583745,2.126149089413309,7.557415321608826,-18.978890852190816
6.149383646369094,2.9841305600922055,7.287836194352508,1.9363601808914008,7.055647249386249,-19.312918421237164
6.179224951970015,3.054687032586068,7.307199796161422,1.7432309966790291,6.595101353623144,-19.628212199052157
6.209771822295876,3.1206380461222993,7.324632106128212,1.5469488746885076,6.179193365639636,-19.923046137536772
6.240978202757098,3.182429979778696,7.340101594875097,1.34771841331314,5.810959308715053,-20.196629863128358
6.272802502554885,3.2405395728658464,7.353578779008229,1.1457521146818563,5.49298289952574,-20.44901637695265
6.305207898283544,3.2954694018611037,7.365036300155047,0.9412619509123299,5.227323083368493,-20.680969039632437
6.3381625923021545,3.347742632694789,7.374448919664171,0.7344522605160055,5.015433349257803,-20.893780004045087
6.371640018629102,3.397896966187367,7.3817934422693305,0.5255144604755546,4.858060871082882,-21.089028699169276
6.405618988290976,3.4464775748981955,7.387048586874086,0.31462417348386185,4.755108947930673,-21.2682636731985
6.440083764039958,3.494028664377502,7.390194828608925,0.10194153675187684,4.705440377574887,-21.432583656895314
6.475024050683733,3.541083068153251,7.391214243976443,-0.11238429981707632,4.706592027821154,-21.582083771754263
6.510434881365265,3.5881489884314623,7.390090400978273,-0.32820513753461894,4.7543619120723815,-21.715120371565618
6.5463163712495795,3.635692607552186,7.386808349602926,-0.5453563412502751,4.842220065124548,-21.827333929961995
6.582673297325101,3.6841148082034314,7.381354786190424,-0.763629680549895,4.960485377126724,-21.910356503026218
6.619514445407136,3.733719661974699,7.373718489384925,-0.9827332455801572,5.095207081999221,-21.950125492620682
6.656851642026883,3.784671732794691,7.363891156929124,-1.202234500506364,5.226702088232376,-21.924743271405294
6.69469835935483,3.836938753677015,7.35186881192406,-1.421481933220417,5.327747529648121,-21.801890496219862
6.7330677468916,3.8902162289734963,7.337653992591856,-1.6395008381826155,5.36154589107698,-21.53596741020539
6.771969909181335,3.9438316878842663,7.32125898421003,-1.8548605122846693,5.279818736455593,-21.065473168069044
6.811408226060178,3.9966298752488223,7.302710379087183,-2.06551524396536,5.021802153202341,-20.311718160808205
6.851374524812666,4.046847896780846,7.28205522664753,-2.268632425573442,4.515532184239357,-19.18082378974543
6.891843003780474,4.09200321862324,7.259368902391795,-2.460440663470896,3.683489652927718,-17.571908637845763
6.9327630359667065,4.128838115152517,7.234764495757086,-2.636159749849354,2.4549422293851815,-15.394711663678677
6.974051417118232,4.153387537446369,7.208402898258592,-2.790106866486141,0.7861961234675353,-12.598279228371961
7.015585292492696,4.161249498681044,7.180501829593731,-2.9160896587698604,-1.313727844045014,-9.207092990956182
7.057197787479506,4.148112220240594,7.151340933006033,-3.0081605886794223,-3.760731987934831,-5.352190736572994
7.098678909681912,4.110504900361246,7.121259327119239,-3.0616824960451523,-6.3907204503196064,-1.2772916368817122
7.139783958685524,4.04659769585805,7.090642502158787,-3.0744554124139696,-8.983899482740366,2.69660990650603
7.180249935644105,3.9567587010306458,7.0598979480346475,-3.047489313348909,-11.315869402581813,6.244495132781332
7.219817522654411,3.8436000070048277,7.029423054901159,-2.985044362021096,-13.214576908500387,9.11853403309738
7.258253522724459,3.711454237919824,6.999572611280947,-2.893859021690122,-14.59607321212134,11.198820181705564
7.295368065103657,3.5654935057986106,6.970634021064046,-2.7818708198730664,-15.465725601425904,12.49474467107012
7.331023000161643,3.4108362497843516,6.942815312865315,-2.6569233731623654,-15.8925980368718,13.108078221169624
7.365131362659486,3.2519102694156334,6.916246079133692,-2.525842590950669,-15.975431853493621,13.184048034755074
7.397650465353642,3.0921559508806973,6.890987653224185,-2.3940021106031186,-15.81502700433587,12.871529217482951
7.428572024862449,2.9340056808373385,6.867047632118154,-2.2652868184282893,-15.49837993377181,12.300031991532437
7.457912081670822,2.77902188149962,6.844394763933871,-2.142286498512965,-15.092981753415469,11.57125281690824
7.485702300485818,2.6280920639654655,6.822971898948741,-2.0265739703438825,-14.647316976572315,10.759563698430826
7.511983221125473,2.4816188941997424,6.802706159245302,-1.9189783333595742,-14.1941004079524,9.916497518365272
7.536799410067471,2.3396778901202184,6.783516375911706,-1.8198133581759215,-13.75411889531633,9.076167863363276
7.560196188968673,2.202136701167055,6.765318242329947,-1.7290516795422888,-13.339670567275164,8.26016400304737
7.5822175559803435,2.0687399954943033,6.7480277255345245,-1.6464500395118151,-12.957277000883408,7.481438544487218
7.602904955935286,1.9391672254854693,6.731563225139406,-1.571635654066943,-12.609673362287833,6.747180607216236
7.622296628190141,1.8130704918625908,6.715846868598737,-1.5041638479947805,-12.297202966678402,6.060845495941658
7.640427333108767,1.6900984621958068,6.700805230118789,-1.443555393035364,-12.018763314154203,5.423545069542656
7.657328317730725,1.5699108290542647,6.686369676188435,-1.3893199423399374,-11.772431705917995,4.834978574358739
7.673027426021267,1.4521865119950848,6.672476476765036,-1.34097015659635,-11.555869509872924,4.294043916101866
7.687549291141218,1.3366278168963555,6.659066775199072,-1.2980297174353315,-11.366577002043307,3.7992315624626065
7.700915569310182,1.2229620468759224,6.646086478024719,-1.2600374018107054,-11.20204908423287,3.348872910997309
7.713145189778942,1.1109415560335936,6.633486104006612,-1.2265486727007324,-11.059866231141465,2.941292430876538
7.7242546053392775,1.000342893722179,6.621220617279604,-1.1971357483919671,-10.9377437625049,2.574896897164362
7.7342580342764995,0.89096545609713,6.609249259795685,-1.1713867794203234,-10.833554796612765,2.2482239841967355
7.743167688837471,0.7826299081310023,6.597535392001482,-1.1489045395783561,-10.74533701016781,1.9599649717964107
7.750993987918781,0.6751765380293242,6.586046346605698,-1.1293048898603921,-10.671289832493416,1.7089712659466842
7.757745753299074,0.5684636397043901,6.574753297707095,-1.1122151772009252,-10.609766382622793,1.4942510631259012
7.763430389696118,0.46236597587816214,6.563631145935085,-1.0972726665696662,-10.559262928342287,1.314960248939031
7.768054049454899,0.35677334659473925,6.552658419269389,-1.084123064080276,-10.518407642777547,1.1703901434868316
7.771621782920846,0.25158927016696375,6.5418171886285865,-1.0724191626454076,-10.485949778954462,1.0599537358048532
7.774137675622516,0.14672977237741913,6.5310929970021325,-1.061819625287359,-10.460749957332762,0.9831714185952423
7.77560497334629,0.042122272804091504,6.520474800749259,-1.0519879111014065,-10.441771986783289,0.9396568295540879
7.776026196074331,-0.06229544706374139,6.509954921638245,-1.0425913428058657,-10.428076463630164,0.9291031517947674
7.775403241603693,-0.16657621170004305,6.499529008210186,-1.033300311287918,-10.418816281657547,0.9512700732867854
7.773737479486693,-0.2707643745166185,6.489196005097307,-1.02378761055505,-10.413234115571385,1.0059715207125106
7.771029835741526,-0.37489671567233235,6.478958128991756,-1.013727895347925,-10.410661896283871,1.093064244639759
7.767280868584803,-0.4790033346351711,6.468820850038277,-1.0027972529015274,-10.410522268707467,1.2124373257124037
7.762490835238451,-0.5831085573222458,6.458792877509262,-0.9906728796444034,-10.412332005125737,1.3640026858079022
7.7566597496652285,-0.6872318773735031,6.448886148712818,-0.9770328527863245,-10.415707335600011,1.5476867170892736
7.749787430891494,-0.7913889507295032,6.439115820184955,-0.9615559856154318,-10.42037114881206,1.7634231808973908
7.741873541384199,-0.8955926622176238,6.4295002603288,-0.9439217538064578,-10.426162010860544,2.011147574034792
7.732917614762022,-0.9998542823262292,6.420061042790736,-0.9238102780661099,-10.43304494520573,2.290793209423339
7.72291907193876,-1.1041847317782865,6.410822940010075,-0.9009023459718766,-10.441123914084494,2.6022893089042447
7.711877224620977,-1.2085959709191314,6.401813916550356,-0.8748794528828341,-10.450655940497597,2.9455614555855463
7.699791264911786,-1.3131025303241073,6.393065122021528,-0.8454238383269786,-10.462066810616212,3.3205347987969875
7.686660239608545,-1.4177231984302694,6.384610883638258,-0.8122184903390087,-10.475968299347752,3.7271404429068773
7.672483007624242,-1.522482881423747,6.376488698734868,-0.77494708590994,-10.493176866568136,4.165325477455619
7.657258178810005,-1.6274146500894284,6.368739227875769,-0.7332938311353838,-10.514733776952035,4.635067114095911
7.6409840323091105,-1.7325619878589489,6.361406289564415,-0.6869431599944247,-10.541926599525448,5.136391377006196
7.623658412430521,-1.8379812538542033,6.3545368579644705,-0.6355792462243627,-10.576312038343838,5.669396735153467
7.605278599891979,-1.9437443742376417,6.348181065502227,-0.578885278872828,-10.61974002286674,6.234282948293984
7.585841156149603,-2.049941774466309,6.342392212713499,-0.5165424493898882,-10.674378928275903,6.83138519554596
7.56534173840494,-2.156685563749068,6.3372267882196,-0.44822859743442867,-10.742741673460872,7.4612132221334155
7.543774882767449,-2.2641129804836764,6.332744502245256,-0.3736164652130945,-10.827712211159936,8.124494708714224
7.521133752962613,-2.3723901025952756,6.329008337593125,-0.29237151812595225,-10.932571506313145,8.822221232473355
7.49740985193666,-2.481715817658407,6.326084622411866,-0.2041493058012187,-11.061021376599292,9.555693883012406
7.472592693760076,-2.5923260314244,6.3240431293538535,-0.10859236697109464,-11.217203355717954,10.326563555824924
7.446669433445832,-2.7044980649815793,6.322957205684142,-0.005326731412845398,-11.405707738582835,11.136857756376688
7.4196244527960165,-2.8185551423674076,6.322903938370014,0.10604184615092149,-11.631564710212349,11.988980753231937
7.391438901372342,-2.934870789469531,6.323964356831523,0.22593165368324086,-11.900204210620931,12.885666088719084
7.362090193477647,-3.0538728315757404,6.3262236733683554,0.3547883145704317,-12.217362794918996,13.829848179256127
7.33155146516189,-3.1760464595249305,6.32977155651406,0.49308679636299296,-12.588902427800795,14.824400523320461
7.29979100056664,-3.3019354838029384,6.3347024244776895,0.6413308015961976,-13.02048519180448,15.871658102664046
7.2667716457286105,-3.4321403357209834,6.341115732493652,0.800047382622838,-13.517015291154337,16.972595361680685
7.2324502423714,-3.567310488632527,6.34911620631988,0.9697733362396449,-14.08170993951714,18.125461012760127
7.196777137485075,-3.7081275880276983,6.3588139396822765,1.1510279463672461,-14.714586873256728,19.323567494487495
7.159695861604798,-3.8552734567602656,6.370324219145949,1.344263621312121,-15.410052213451284,20.55178817478702
7.121143127037196,-4.009373978894779,6.383766855359069,1.5497815030599913,-16.15313968477668,21.78113249875209
7.081049387248248,-4.170905375742546,6.39926467038967,1.7675928280475122,-16.913818254938153,22.960588830628186
7.039340333490823,-4.340043558291927,6.416940598670145,1.997198716353794,-17.638746524278414,24.00538578621459
6.9959398979079035,-4.516431023534711,6.436912585833682,2.23725257421594,-18.240160982077413,24.78128576571392
6.950775587672556,-4.698832633355485,6.459285111575841,2.485065431873079,-18.582788680439645,25.086266357599975
6.9037872613390014,-4.884660520159882,6.484135765894572,2.735928095449079,-18.472722932075822,24.6353095583749
6.854940656137402,-5.06938774948064,6.511495046849062,2.9822811910328277,-17.658125242249213,23.062452413727293
6.804246778642596,-5.245969001903132,6.541317858759391,3.2129057151701006,-15.85974047298173,19.96575820543259
