th1 (rad),w1 (rad/s),th2 (rad),w2 (rad/s)
2.6524964068764993,-0.5734243402221498,3.8726908821655,-0.8921529036032246
2.646762163474278,-0.6297594133611023,3.863769353129468,-0.8104586227312557
2.6404645693406668,-0.6872442508309513,3.8556647669021555,-0.7294831540926874
2.633592126832357,-0.7457798595781114,3.848369935361229,-0.6493497773589382
2.626134328236576,-0.8052697641941725,3.8418764375876395,-0.570188091136193
2.6180816305946344,-0.8656206352583036,3.8361745566762777,-0.4921331746193416
2.609425424242051,-0.9267429541190184,3.831253224930084,-0.41532476383997036
2.600157994700861,-0.9885517091272106,3.8270999772916845,-0.33990645131853586
2.590272477609589,-1.0509671180662508,3.823700912778499,-0.2660249189753545
2.5797628064289264,-1.1139153710652527,3.8210406635887457,-0.19382921545632764
2.5686236527182738,-1.17732938769442,3.8191023714341825,-0.1234700904936061
2.5568503588413294,-1.241149581320305,3.8178676705292465,-0.05509940041674426
2.5444388630281263,-1.3053246232543443,3.817316676525079,0.011130399699564891
2.531385616795583,-1.3698121988743284,3.8174279805220745,0.07506666068157455
2.5176874948068395,-1.434579747839247,3.81817864712889,0.13655682348025733
2.5033416973284472,-1.499605180832959,3.8195442153636927,0.1954485656674303
2.4883456455201176,-1.5648775660062733,3.821498701020367,0.25158979344417115
2.4726968698600547,-1.630397779442799,3.824014598954809,0.30482846360710214
2.456392892065627,-1.6961791155086317,3.8270628835908798,0.35501222175737773
2.4394311009105407,-1.762247854773293,3.8306130058084533,0.4019878454363654
2.421808622362808,-1.8286437891851288,3.834632884262817,0.4456004837223764
2.4035221844709564,-1.8954207061952226,3.8390888891000405,0.485692687997806
2.384567977409004,-1.9626468353775048,3.8439458159800184,0.5221032319714229
2.364941509055229,-2.0304052626080864,3.8491668482997325,0.554665722515654
2.3446374564291483,-2.0987943178627115,3.854713505524889,0.5832070063969281
2.3236495132505213,-2.1679279429921063,3.860545575588858,0.6075453815438934
2.3019702338206,-2.237936045273291,3.866621029404297,0.6274886251956836
2.279590873367867,-2.308964840949562,3.872895915656254,0.6428318552699122
2.2565012249583716,-2.3811771902035215,3.879324234208953,0.6533552458518753
2.232689453056336,-2.454752920891391,3.8858577866674717,0.6588216231950783
2.208141923847422,-2.529889132724531,3.8924460028994226,0.6589739755003762
2.182843032520177,-2.6068004662160704,3.8990357426544264,0.6535329185651186
2.156775027858016,-2.6857193113924325,3.9055710718400776,0.6421941708128953
2.1299178347440915,-2.766895919753895,3.9119930135482064,0.6246261059530338
2.1022488755465525,-2.8505983689971752,3.918239274607737,0.6004674703519733
2.073742891856581,-2.937112313344811,3.9242439493112564,0.569325375908369
2.0443717687231326,-3.026740432783648,3.92993720307034,0.5307737085280549
2.0141043643952963,-3.1198014720614715,3.9352449401556204,0.4843521277338345
1.9829063496746815,-3.216628735143666,3.9400884614329588,0.4295658747101142
1.950740062323245,-3.3175678736190544,3.94438412018006,0.3658866537709192
1.9175643835870544,-3.422973779515202,3.9480429867177693,0.29275490451624253
1.8833346457919025,-3.5332063662711395,3.9509705357629317,0.20958383609613293
1.848002582129191,-3.6486249995391518,3.953066374123893,0.11576564641099461
1.8115163321337995,-3.7695813268662097,3.9542240305880028,0.010680390601737685
1.7738205188651375,-3.8964102587156675,3.9543308344940202,-0.10629201540650152
1.7348564162779807,-4.029418881153986,3.953267914339955,-0.23575618296496562
1.694562227466441,-4.168873142871137,3.9509103525103053,-0.37828162042865954
1.6528734960377296,-4.314982266854644,3.9471275363060188,-0.5343788087264034
1.609723673369183,-4.467881000015694,3.9417837482187545,-0.7044709319552185
1.5650448633690262,-4.627610038951709,3.9347390388992025,-0.8888615449029587
1.518768762979509,-4.79409525625933,3.9258504234501728,-1.087698907534298
1.4708278104169157,-4.9671266871941615,3.9149734343748297,-1.3009382710661386
1.421156543544974,-5.146338592773878,3.9019640516641685,-1.5283040275199642
1.3696931576172353,-5.331192245538984,3.8866810113889687,-1.769254269238799
1.3163812351618454,-5.520963323056967,3.8689884686965805,-2.0229508480510567
1.2611716019312758,-5.714735865715212,3.84875896021607,-2.288238350273845
1.2040242432741237,-5.911404586303021,3.8258765767133314,-2.5636353804876886
1.1449101974110936,-6.1096868599442615,3.8002402229084544,-2.8473410638567773
1.083813328811651,-6.308144971329144,3.771766812269887,-3.137258684548955
1.0207318790983595,-6.505218213386324,3.740394225424397,-3.4310369230023783
0.9556796969644963,-6.699263346693623,3.706083856194373,-3.726127396564467
0.8886870634975601,-6.888600921445467,3.6688225822287284,-4.019855404928178
0.8198010542831055,-7.071564225100624,3.6286240281794466,-4.309499243663403
0.7490854120320992,-7.24654730255442,3.5855290357428125,-4.59237246365174
0.676619939006555,-7.412048672577047,3.539605311106295,-4.865903209991644
0.6024994522807846,-7.566707999042022,3.4909462790063785,-5.127705307389138
0.5268323722903644,-7.709333935364317,3.4396692259324873,-5.375636945228489
0.44973903293672124,-7.8389224530641615,3.3859128564802026,-5.607844406170787
0.3713498084060796,-7.954665991009768,3.329834412418495,-5.822789976169338
0.29180314849598193,-8.055954563173737,3.2716065126568017,-6.019264694131957
0.21124360286424457,-8.14237045395488,3.2114138657154823,-6.196387751178902
0.12981989832469576,-8.213678302293376,3.1494499882036933,-6.353595045183391
0.047683115301762,-8.26981228080724,3.0859140377518592,-6.490619648936504
-0.03501500750631041,-8.310861799925961,3.0210078412624943,-6.607466843660123
-0.11812362550557003,-8.337056802351466,2.954933172825893,-6.7043860214592845
-0.20149419352908468,-8.34875333973824,2.8878893126113003,-6.781841289771253
-0.28498172692646706,-8.346419797047265,2.820070899713588,-6.840482116671358
-0.3684459248969397,-8.330623880691498,2.7516660785468745,-6.881114906609657
-0.45175216370385474,-8.302020322636615,2.682854929480778,-6.904676029867836
-0.5347723669302209,-8.261339167013379,2.6138081691820996,-6.912206558719663
-0.6173857586003547,-8.209374482873281,2.544686103594903,-6.90482878440099
-0.6994795034290875,-8.146973367680689,2.475637815750893,-6.883724486860162
-0.7809492371058944,-8.075025152850754,2.4068005708822913,-6.850114884978788
-0.8616994886344019,-7.994450779823512,2.3382994220325033,-6.805242189543347
-0.9416439964326371,-7.906192371274505,2.27024700013707,-6.750352698063893
-1.020705920145382,-7.811203069376506,2.202743473156431,-6.686681396403135
-1.0988179508391471,-7.710437247200474,2.1358766591923994,-6.615438057651328
-1.175922323311152,-7.6048412187554195,2.069722278615886,-6.537794847766804
-1.2519707354987062,-7.495344578210762,2.0043443301382178,-6.454875457115246
-1.326924181280814,-7.3828522912727585,1.9397955755670653,-6.367745776365097
-1.4007527041935415,-7.268237644044427,1.8761181178034143,-6.277406125040732
-1.4734350806339858,-7.152336129875928,1.813344056553007,-6.1847850232562935
-1.5449584419327451,-7.035940325603958,1.751496206320444,-6.090734474166365
-1.6153178451887846,-6.919795777843676,1.6905888615787803,-5.996026699054017
-1.6845158029672214,-6.804597889906084,1.6306285945882402,-5.901352241179224
-1.7525617818662822,-6.690989772266814,1.571615072176448,-5.807319330639717
-1.8194716795889503,-6.579560995609671,1.5135418788700508,-5.7144543821977525
-1.885267289545047,-6.47084716612725,1.4563973350480732,-5.623203482428243
-1.9499757612063195,-6.365330228361437,1.4001653002237908,-5.5339347122590405
-2.013629063489934,-6.26343939141703,1.3448259531012003,-5.446941146146728
-2.0762634574041043,-6.165552569596101,1.2903565416397331,-5.3624443695118
-2.1379189831000653,-6.071998227879157,1.236732097944615,-5.28059836109661
-2.1986389653788567,-5.98305752558574,1.183926114333649,-5.201493595859114
-2.258469540634714,-5.89896665728079,1.131911178375058,-5.1251612360220555
-2.317459207207522,-5.819919297848758,1.0806595660148375,-5.051577292089813
-2.3756584001860097,-5.746069067974352,1.0301437930939394,-4.980666651205184
-2.433119090865753,-5.677531946467988,0.9803371265818877,-4.912306886434414
-2.4898944103304332,-5.614388566482635,0.9312140577175435,-4.8463317768729555
-2.5460382959952597,-5.556686343335291,0.8827507399488139,-4.782534484453733
-2.6016051594286127,-5.504441392145875,0.8349253951042765,-4.720670348782969
-2.6566495733500712,-5.457640203739939,0.7877186916164468,-4.660459276163586
-2.7112259753874706,-5.416241057249729,0.7411140988548109,-4.601587713286618
-2.7653883859599677,-5.380175157720678,0.6950982217219448,-4.543710210108528
-2.8191901375371744,-5.349347497013706,0.6496611196208595,-4.486450590531794
-2.8726836125073114,-5.323637446694055,0.6047966137155415,-4.429402764096311
-2.925919986974252,-5.302899102782051,0.5605025860745784,-4.372131227446182
-2.9789489780020726,-5.286961414612654,0.5167812738001165,-4.31417132133833
-3.0318185921481993,-5.2756281440147585,0.47363956058673323,-4.255029327827967
-3.084574873588347,-5.268677716942858,0.43108926730845354,-4.194182513291413
-3.1372616507577753,-5.265863047838403,0.3891474421755394,-4.131079246190405
-3.189920281236159,-5.266911437454485,0.34783664971363537,-4.065139343652241
-3.242589395610704,-5.271524667456708,0.30718525627711296,-3.9957548272406247
-3.295304642285271,-5.279379439226473,0.26722770800470674,-3.922291294243886
-3.3480984366775357,-5.29012832880854,0.2280047950622679,-3.844090134055892
-3.400999719965621,-5.303401453035968,0.18956389372170898,-3.760471836355441
-3.454033734495981,-5.318809060873043,0.15195917535815456,-3.6707406441904435
-3.507221825104711,-5.3359452753607375,0.11525176891625014,-3.5741907949089207
-3.5605812778583186,-5.354393210747911,0.07950986096716092,-3.4701145582621558
-3.6141252099657977,-5.373731671257284,0.044808715384539365,-3.3578122164657405
-3.6678625266783706,-5.393543597032132,0.011230593219881957,-3.2366040283664157
-3.721797962648692,-5.413426354247173,-0.021135447063782203,-3.1058440736130817
-3.7759322261911636,-5.433003866972337,-0.05219388779991302,-2.964935680877855
-3.830262264860887,-5.451940458205527,-0.08184324460869158,-2.813347910466787
-3.8847816694429422,-5.4699561115040405,-0.10997672371335945,-2.650632297823928
-3.9394812305579827,-5.486842694235237,-0.13648304669159872,-2.4764387918267325
-3.994349657500335,-5.502480517303925,-0.16124743460986604,-2.2905295716707377
-4.0493744626733745,-5.516854469817168,-0.18415273032657342,-2.092789237751316
-4.1045430073715465,-5.530068890641869,-0.20508062270408658,-1.8832297874710986
-4.1598436962779655,-5.5423603526217935,-0.22391292057879758,-1.6619888435703216
-4.215267299804183,-5.554107664065547,-0.2405328090145008,-1.4293198225743993
-4.270808376444839,-5.565838648414998,-0.2548260072402448,-1.1855731112322117
-4.326466762928988,-5.57823364153113,-0.2666817383525669,-0.9311678238153017
-4.3822490993443,-5.592126121930744,-0.27599341659071996,-0.6665542734317529
-4.438170360563607,-5.60850142109204,-0.2826589593250375,-0.3921678093517488
-4.494255374774528,-5.628494998947611,-0.286580637418555,-0.10837503992329794
-4.550540324764004,-5.653392268526369,-0.28766438781778797,0.18458642715126605
-4.607074247449267,-5.684632385882352,-0.2858185235462753,0.4866738188296635
-4.663920571308091,-5.723818788144023,-0.28095178535797866,0.7981102998599714
-4.721158759189531,-5.772739598120011,-0.27297068235937894,1.1194620278497913
-4.7788861551707305,-5.833401381340187,-0.261776062080881,1.4517231865524982
-4.837220168984133,-5.908080215166952,-0.24725883021535602,1.7964126620913068
-4.896300971135802,-5.999394658618056,-0.22929470359444296,2.155687850591169
-4.956294917721983,-6.110405939735152,-0.20773782508853128,2.532482854347199
-5.017398977119334,-6.2447511615915365,-0.1824129965450593,2.9306794284804205
-5.0798464887352495,-6.406814499859112,-0.1531062022602551,3.3553178907617336
-5.14391463373384,-6.601936351201392,-0.11955302335263776,3.812847704679576
-5.209933997245854,-6.836643838289166,-0.081424546305842,4.311393201730695
-5.278300435628746,-7.118839525386145,-0.03831061428853506,4.860942925742846
-5.349488830882608,-7.457763021376747,0.0102988149688934,5.473197196066555
-5.424066461096375,-7.863233029690544,0.06503078692955895,6.160374164640852
-5.50269879139328,-8.34294488827445,0.12663452857596746,6.9312426173716934
-5.586128240276025,-8.895038862542714,0.1959469547496844,7.780458023466688
-5.675078628901453,-9.49081371187139,0.2737515349843513,8.664002380951125
-5.769986766020167,-10.043772961362878,0.36039155879386253,9.455438085197443
-5.870424495633795,-10.385768424706713,0.45494593964583696,9.912438216450273
-5.974282179880863,-10.334572653677908,0.5540703218103397,9.772736294328862
-6.077627906417642,-9.887202470237268,0.6517976847536283,9.027949326603556
-6.176499931120015,-9.258372571966268,0.7420771780196639,7.979352707382569
-6.269083656839677,-8.652149780338428,0.8218707050934896,6.916483373838277
-6.355605154643062,-8.148648369940553,0.8910355388318724,5.95568367733982
-6.4370916383424674,-7.7543864628662655,0.9505923756052705,5.109207399723645
-6.51463550297113,-7.453728307165219,1.001684449602507,4.357179232053585
-6.5891727860427824,-7.228838311532527,1.045256241923043,3.6759159914604713
-6.661461169158108,-7.0647140186513955,1.0820154018376476,3.0453787167640884
-6.732108309344622,-6.949608342944921,1.1124691890052885,2.4501024643230016
-6.801604392774071,-6.874375708537236,1.1369702136485185,1.8785599689865249
-6.870348149859444,-6.831731346297988,1.1557558133383836,1.3223608273230765
-6.938665463322423,-6.815647516467868,1.1689794216116143,0.7756068099295672
-7.006821938487102,-6.820905965083136,1.17673548971091,0.23442734585311076
-7.075030998137933,-6.842782286561513,1.179079763169441,-0.3033496104221285
-7.143458821003549,-6.876836092010371,1.1760462670652196,-0.8384428411027619
-7.2122271819236525,-6.918786978351127,1.167661838654192,-1.3703222591626305
-7.281415051707164,-6.96446116641632,1.1539586160625657,-1.8974038677249077
-7.351059663371327,-7.00979556100069,1.1349845773853167,-2.4172546827865244
-7.421157618981334,-7.050885398988628,1.1108120305574514,-2.9268151060071714
-7.49166647297122,-7.084059919193474,1.0815438794973797,-3.4226352303520824
-7.562507072163155,-7.105969156810275,1.0473175271938588,-3.9011127925501694
-7.633566763731257,-7.113665348710181,1.0083063992683572,-4.358715412185119
-7.704703417218359,-7.104665198604469,0.964719245146506,-4.792169296954596
-7.7757500692044035,-7.076984185010306,0.91679755217696,-5.198600596777769
-7.846519911054506,-7.029140207647768,0.8648115462091823,-5.575622744879682
-7.916811313130984,-6.96012977304258,0.8090553187603855,-5.921371367160152
-7.98641261086141,-6.869384349230469,0.749841605088784,-6.234495553074905
-8.055106454353714,-6.756716723030211,0.6874966495580349,-6.514118938059479
-8.122673621584017,-6.622267081967247,0.6223554601774401,-6.759785551356282
-8.188896292403689,-6.466456571227923,0.5547576046638774,-6.971404010007569
-8.253560858115968,-6.289952987207102,0.48504356456380165,-7.149200229726975
-8.31646038798804,-6.09364984062111,0.4135515622665319,-7.293684409171893
-8.37739688639425,-5.878656899474817,0.340614718174813,-7.405633569324558
-8.436183455388997,-5.646297956164805,0.2665583824815674,-7.486087107650871
-8.492646434950645,-5.398110213654973,0.19169751140505867,-7.536350113529366
-8.546627537087195,-5.135839447876515,0.116334010269765,-7.557997813118111
-8.59798593156596,-4.861425925585854,0.04075403213858389,-7.552874497442591
-8.646600190821818,-4.5769777486261445,-0.03477471283584202,-7.523081490018202
-8.69236996830808,-4.28473054085582,-0.11000552773602404,-7.470950823886075
-8.73521727371664,-3.986994787106538,-0.1847150359748848,-7.3990038919354095
-8.775087221587704,-3.6860942454665437,-0.2587050748942389,-7.309896918244523
-8.81194816404237,-3.384300319356849,-0.3318040440766841,-7.206357212136327
-8.845791167235939,-3.0837678724111517,-0.4038676161980474,-7.091115475344683
-8.87662884596005,-2.786477664620185,-0.47477877095149423,-6.966839790780018
-8.904493622606253,-2.4941895334636777,-0.5444471688592945,-6.8360763884138835
-8.92943551794089,-2.208408918495138,-0.6128079327434333,-6.701201084874438
-8.95151960712584,-1.9303676584939407,-0.6798199435921777,-6.564383742429785
-8.97082328371078,-1.6610184693500138,-0.7454637810164755,-6.4275665071733386
-8.98743346840428,-1.4010413410075921,-0.8097394460882089,-6.2924552171785395
-9.001443881814357,-1.150859365310012,-0.8726639982599943,-6.160522369873281
-9.012952475467458,-0.9106612162296668,-0.9342692219587271,-6.033019451291146
-9.022059087629755,-0.6804275734974145,-0.9945994164716385,-5.9109962239759755
-9.028863363364728,-0.45995910072976115,-1.0537093787113982,-5.795324661619038
-9.033462954372025,-0.24890404808424518,-1.1116626253275885,-5.686725505367402
-9.035951994852867,-0.0467840534767468,-1.1685298803812625,-5.585795802625291
-9.036419835387635,0.14698280092538746,-1.2243878384075153,-5.493036195642449
-9.03495000737838,0.3330621967679984,-1.2793182003639398,-5.408877097900851
-9.031619385410702,0.5121872209038989,-1.3334069713429484,-5.3337031946669065
-9.026497513201663,0.6851453240622237,-1.3867440032896174,-5.2678759072119
-9.01964605996104,0.8527682414946889,-1.4394227623617364,-5.2117535513446756
-9.011118377546094,1.0159242942823106,-1.491540297875183,-5.165708881002558
-9.00095913460327,1.1755122332422148,-1.5431973866852087,-5.130143506449258
-8.989204012270848,1.332455441442658,-1.5944988217497014,-5.105498262665104
-8.975879457856422,1.487694797452535,-1.6455538043763525,-5.092257892585352
-8.961002509881897,1.6421777128861195,-1.696476383302206,-5.090947272519676
-8.944580732753035,1.796839653821285,-1.747385856027403,-5.10211465934553
-8.926612336214822,1.9525726671355328,-1.7984070026208583,-5.1262948492804385
-8.907086609543466,2.110172904518237,-1.8496699511136627,-5.163941484883589
-8.885984880498283,2.270255863654907,-1.9013093659624987,-5.215313007690766
-8.863282321861734,2.433124537532083,-1.9534624960394062,-5.280291584803344
-8.838951076486413,2.598573612194681,-2.0062654118874397,-5.358111121672625
-8.812965340364467,2.765616623201104,-2.059846523104166,-5.446975240362254
-8.785309174132456,2.9321413497057685,-2.1143162755077887,-5.54357111860125
-8.755987760635398,3.0945454257571265,-2.169751986693801,-5.642549654720404
-8.725042306377826,3.247491284431644,-2.2261774832410053,-5.736163802970879
-8.69256739353351,3.384033255204946,-2.283539121270714,-5.8144163760471415
-8.65872706098146,3.496425613134706,-2.3416832850311855,-5.866149112385885
-8.623762804850113,3.577748847864408,-2.4003447761550443,-5.881269433011276
-8.58798531637147,3.6239789539266503,-2.459157470485157,-5.85360069188442
-8.551745526832203,3.635531453875398,-2.517693477404001,-5.783017034198786
-8.515390212293449,3.6173045418911527,-2.575523647745989,-5.675512247841828
-8.479217166874538,3.577130292882936,-2.6322787702244073,-5.541077677404724
-8.443445863945708,3.5235685013012423,-2.6876895469984543,-5.390681857921962
-8.408210178932697,3.4641540831857798,-2.741596365577674,-5.233881853133722
-8.373568638100839,3.4045826286088463,-2.793935184109011,-5.077725815434036
-8.33952281181475,3.3486732189721686,-2.844712442263351,-4.926717031105752
-8.306036079625027,3.298722597010257,-2.893979612574409,-4.783305252425951
-8.273048853654924,3.2559485564178714,-2.9418126650986682,-4.648491320688773
-8.240489368090746,3.2208741815145103,-2.988297578305556,-4.52234449254499
-8.2082806262756,3.1936116782797455,-3.033521023231006,-4.404378845483399
-8.176344509492804,3.174054073328987,-3.07756481168584,-4.293802156340499
-8.144603968759514,3.1619975069695485,-3.1205028332492453,-4.189669521346296
-8.112983993689818,3.157216127453809,-3.1623995284627084,-4.090972354130753
-8.08141183241528,3.1595064341078447,-3.203309252004016,-3.9966859762288753
