th1 (rad),w1 (rad/s),th2 (rad),w2 (rad/s),a1 (rad/s^2),a2 (rad/s^2)
3.4486183114920004,-2.4397275396016167,5.615001137810517,-1.1165880224710774,4.5082272017605485,3.6733882290979607
3.424221036095984,-2.394645267584011,5.603835257585806,-1.0798541401800978,4.335929596741004,3.932918841668808
3.400274583420144,-2.3512859716166012,5.593036716184005,-1.0405249517634099,4.161903670492276,4.1708129818047395
3.376761723703978,-2.3096669349116783,5.5826314666663714,-0.9988168219453625,3.986598111525337,4.3880076026272725
3.3536650543548614,-2.269800953796425,5.572643298446918,-0.9549367459190897,3.810440433196609,4.585423421083116
3.330967044816897,-2.2316965494644587,5.563093930987727,-0.9090825117082586,3.633829475220607,4.763957023698954
3.3086500793222524,-2.1953582547122528,5.5540031058706445,-0.8614429414712691,3.4571290854632593,4.924473802233114
3.28669649677513,-2.1607869638576203,5.545388676455932,-0.812198203448938,3.2806628269163145,5.067801673787446
3.265088627136554,-2.127980335588457,5.537266694421443,-0.7615201867110636,3.1047095610248006,5.194725519504602
3.243808823780669,-2.096933239978209,5.529651492554332,-0.7095729315160175,2.929499766958674,5.305982262797921
3.222839491380887,-2.067638242308622,5.522555763239172,-0.6565131088880383,2.755212466592092,5.402256501126204
3.202163108957801,-2.0400861176427014,5.515990632150292,-0.6024905438767763,2.5819726365957063,5.484176603805359
3.181762247781374,-2.0142663912767445,5.509965726711524,-0.5476487778387227,2.409849002001676,5.552311191622986
3.1616195838686068,-1.9901679012567277,5.504489238933137,-0.4921256659224928,2.2388521198478353,5.607165921692062
3.1417179048560393,-1.9677793800582493,5.499567982273912,-0.43605400670557215,2.0689326771722483,5.649180512879838
3.122040111055457,-1.9470900532865267,5.495207442206856,-0.3795622015767738,1.8999799449886852,5.678725963352669
3.1025692105225917,-1.9280902538366398,5.491411820191088,-0.3227749419432471,1.7318203493591457,5.6961019326080375
3.0832883079842253,-1.9107720503430483,5.488184070771656,-0.2658139226171667,1.5642161428813006,5.701534286393732
3.0641805874807946,-1.8951298889142354,5.485525931545484,-0.20879857975322935,1.3968641855713166,5.695172834962078
3.0452292885916523,-1.8811612470585222,5.483437945747952,-0.15184685140360857,1.2293948741378766,5.67708933423318
3.026417676121067,-1.8688672983171435,5.481919477233916,-0.09507595806127676,1.061371294026153,5.647275866912354
3.0077290031378956,-1.858253585376882,5.480968717653303,-0.038603199392153224,0.8922887104581869,5.605643777843383
2.989146467284127,-1.8493306982723001,5.480582685659381,0.017453238386280608,0.7215745641112646,5.552023406351515
2.9706531603014037,-1.8421149526311875,5.480757218043244,0.07297347244979577,0.5485891950493557,5.4861649393985195
2.952232010775092,-1.8366290606806939,5.4814869527677414,0.12783512184378096,0.37262758574661314,5.40774080403104
2.933865720168285,-1.8329027848232278,5.482765303986179,0.18191252988409137,0.1929224906421069,5.316350126108985
2.9155366923200527,-1.8309735599168067,5.48458442928502,0.23507603114518122,0.008649404819560318,5.211525903639287
2.8972269567208846,-1.8308870658686112,5.486935189596472,0.2871912901815741,-0.1810660841672237,5.092745674206251
2.8789180860621983,-1.8326977267102833,5.489807102498287,0.3381187469236366,-0.37713792400775936,4.959446591044302
2.8605911087950955,-1.8364691059503608,5.493188289967524,0.3877132128340796,-0.5805054797478817,4.811045951204894
2.842226417735592,-1.8422741607478397,5.497065422095864,0.43582367234612857,-0.7921148740096562,4.646968326542285
2.823803676128114,-1.8501953094879362,5.501423658819325,0.4822933556115514,-1.012894950556044,4.466680511531001
2.805301723033234,-1.8603242589934967,5.506246592375441,0.5269601607268614,-1.2437270422885118,4.269735490757574
2.7866984804432993,-1.872761529416382,5.511516193982709,0.5696575156344371,-1.4854078225701421,4.055826504003521
2.7679708651491355,-1.8876156076420834,5.517212769139054,0.6102157806744724,-1.7386047316710755,3.824852000497672
2.7490947090727147,-1.905001654958794,5.523314926945798,0.648464300679449,-2.0038038348710834,3.5769917725823275
2.7300446925231268,-1.925039693307505,5.529799569952593,0.6842342184052723,-2.281250521595372,3.3127937886273746
2.710794295590052,-1.9478521985234587,5.536641912136646,0.7173621562915461,-2.5708842248511097,3.0332701603838053
2.6913157736048174,-1.9735610407719697,5.543815533699561,0.7476948578953841,-2.8722693386898617,2.73999925903398
2.6715801631970977,-2.002283734158868,5.551292482278515,0.7750948504857239,-3.184525719333951,2.435229256856164
2.651557325855509,-2.034128991352208,5.5590434307833725,0.7994471430542855,-3.506263508208367,2.121976401465806
2.631216035941987,-2.0691916264342916,5.567037902213915,0.8206669070689436,-3.835528387978822,1.804109295997214
2.610524119677644,-2.10754691031408,5.575244571284604,0.8387080000289158,-4.16976458343328,1.4864086295430243
2.589448650574503,-2.1492445561484126,5.583631651284893,0.853572086324346,-4.505803691157036,1.17459054289224
2.567956205013019,-2.194302593059983,5.592167372148136,0.8653179917532684,-4.839887467511158,0.875281558891554
2.5460131790824194,-2.2427014677350945,5.600820552065669,0.8740708073421839,-5.167731730445169,0.5959341946141268
2.5235861644050686,-2.2943787850395463,5.609561260139091,0.8800301492883251,-5.4846363186180485,0.3446753533287697
2.5006423765546733,-2.349225148225727,5.618361561631974,0.8834769028216128,-5.785642540401226,0.13008450685882
2.477150125072416,-2.407081573629739,5.62719633066019,0.884777747890201,-6.065734910052715,-0.03909466491276219
2.4530793093361187,-2.467738922730266,5.636044108139092,0.8843868012410734,-6.320078662156757,-0.15429770046634408
2.4284019201088163,-2.5309397093518338,5.644887976151503,0.88284382423641,-6.544279272576862,-0.20751838939497164
2.4030925230152977,-2.5963825020776023,5.653716414393868,0.8807686403424603,-6.73464587245084,-0.19169704922426617
2.3771286979945216,-2.6637289608021106,5.662524100797293,0.8788516698502176,-6.888437892516424,-0.10108715603555418
2.3504914083865005,-2.732613339727275,5.671312617495794,0.8778407982898621,-7.004074176148632,0.06843167060051529
2.3231652749892278,-2.802654081488761,5.680091025478693,0.8785251149958672,-7.081286409730354,0.3191235016991841
2.29513873417434,-2.8734669455860646,5.688876276628652,0.881716350012859,-7.121203797015907,0.6512713466475455
2.2664040647184795,-2.9446789835562237,5.697693440128781,0.8882290634793344,-7.1263627335844975,1.0631709627748225
2.236957274882917,-3.015942610892069,5.706575730763574,0.8988607731070826,-7.100642779068721,1.5512454665695183
2.2067978487739963,-3.086949038682756,5.715564338494645,0.9143732277727777,-7.0491373519786285,2.1102722351792647
2.1759283583871687,-3.157440412202542,5.724708070772373,0.9354759501245704,-6.97797331703981,2.733704477868292
2.144353954265143,-3.2272201453729403,5.734062830273619,0.9628129949032533,-6.894097374282185,3.4140634625861717
2.1120817528114135,-3.2961611191157623,5.743690960222652,0.996953629529115,-6.805048690827998,4.143374217047171
2.079120141620256,-3.364211606024042,5.753660496517942,1.0383873716995868,-6.7187367273155285,4.913617550171532
2.0454780255600156,-3.4313989732971972,5.764044370234938,1.087523547201302,-6.643241163490924,5.717173996521073
2.0111640358270435,-3.4978313849321063,5.774919605706951,1.1446952871665128,-6.586647815078928,6.547240069736566
1.9761857219777224,-3.5636978630828957,5.786366558578616,1.2101676878638785,-6.556931051206899,7.398203255804093
1.9405487433468933,-3.6292671735949646,5.798468235457255,1.2841497204219194,-6.561889977269287,8.265968793332426
1.9042560716109436,-3.6948860733676576,5.811309732661474,1.3668094083552438,-6.609142928216309,9.148237940171583
1.867307210877267,-3.760977502649821,5.824977826745027,1.4582917877569597,-6.706182888607541,10.044743761098179
1.8296974358507687,-3.8280393315358965,5.839560744622596,1.5587392253679415,-6.860495493643118,10.957456318201388
1.7914170425354097,-3.896644286472328,5.8551481368762754,1.6683137885499555,-7.0797413896371815,11.890774497794206
1.7524505996706865,-3.9674417003686995,5.871831274761775,1.7872215335278976,-7.3720060413522654,12.85172670808213
1.7127761826669996,-4.041161760782222,5.889703490097054,1.9157388006087188,-7.746122670183198,13.850207608232376
1.6723645650591774,-4.118622987484054,5.908860878103142,2.0542408766910425,-8.212078013888885,14.8992832764433
1.631178335184337,-4.200743767622943,5.929403286870053,2.2032337094554757,-8.781516154158243,16.015603265338946
1.5891708975081076,-4.288558929164526,5.951435623964607,2.363389742108865,-9.46836287501413,17.21996528663674
1.5462853082164623,-4.383242557914667,5.975069521385696,2.535589394975233,-10.28960184407169,18.538087035199847
1.5024528826373156,-4.486138576355384,6.000425415335449,2.720970265327231,-11.266243790468076,20.00164936380225
1.4575914968737618,-4.598801014260065,6.027635117988721,2.920986758965254,-12.424538871381152,21.649683129295838
1.411603486731161,-4.723046402973877,6.0568449855783735,3.137483590258212,-13.79748531176525,23.530371222987895
1.3643730227014224,-4.861021256091529,6.088219821480956,3.372787302488091,-15.426670942875633,25.703308946459728
1.315762810140507,-5.015287965520286,6.121947694505836,3.6298203919526886,-17.364416543192846,28.242165023195128
1.2656099304853041,-5.188932130952214,6.158245898425363,3.91224204218464,-19.675995349005174,31.23740581940545
1.213720609175782,-5.385692084442265,6.19736831884721,4.224616100378694,-22.441204303277395,34.7980374135626
1.1598636883313593,-5.610104127475039,6.239614479850997,4.57259647451432,-25.753344708339263,39.049601563016495
1.1037626470566089,-5.867637574558432,6.28534044459614,4.9630924901444855,-29.71077208886756,44.121583939815935
1.0450862713110245,-6.164745295447108,6.334971369497585,5.404308329542645,-34.38943120072033,50.10791680206674
0.9834388183565534,-6.508639607454311,6.3890144527930115,5.9053874975633125,-39.769672677443,56.9630271023508
0.9183524222820103,-6.906336334228741,6.448068327768644,6.47501776858682,-45.55961146425313,64.25231261989744
0.8492890589397228,-7.361932448871272,6.512818505454512,7.117540894785795,-50.808046805536634,70.60684237258552
0.7756697344510102,-7.870012916926639,6.58399391440237,7.82360931851165,-53.19263635941594,72.7221040027402
0.6969696052817438,-8.401939280520798,6.662230007587487,8.550830358539052,-48.239866298030535,64.26302357034075
0.6129502124765358,-8.884337943501103,6.747738311172878,9.19346059424246,-30.30911029045473,37.255630048483354
0.5241068330415247,-9.18742904640565,6.839672917115302,9.566016894727293,1.057902439196326,-8.966523444839238
0.43223254257746824,-9.176850022013687,6.935333086062575,9.4763516602789,33.517435412847554,-57.028917752339204
0.34046404235733135,-8.84167566788521,7.030096602665364,8.906062482755507,51.29923794007199,-84.68429139259527
0.2520472856784792,-8.328683288484491,7.119157227492919,8.059219568829555,52.83367402937684,-89.59269847464385
0.16876045279363433,-7.800346548190722,7.199749423181214,7.163292584083116,46.25179225856821,-83.0642413637008
0.0907569873117271,-7.337828625605041,7.271382349022045,6.332650170446108,37.8156431432691,-73.85710367079207
0.017378701055676696,-6.95967219417235,7.334708850726506,5.594079133738187,30.016296626420573,-65.48235352609458
-0.052218020886046795,-6.659509227908144,7.390649642063888,4.939255598477241,23.439943275724257,-58.787822184383224
-0.11881311316512823,-6.4251097951509015,7.44004219804866,4.351377376633409,18.031225413149983,-53.71412444073962
-0.18306421111663723,-6.244797541019402,7.483555971814995,3.814236132226013,13.585819711987602,-49.980897134225785
-0.24551218652683127,-6.108939343899526,7.5216983331372544,3.314427160883755,9.903573408025437,-47.300941956443374
-0.30660157996582654,-6.009903609819272,7.554842604746092,2.8414177413193213,6.825038460371075,-45.43179153395198
-0.36670061606401927,-5.941653225215561,7.583256782159285,2.3870998259798015,4.232912004622275,-44.17819661144705
-0.42611714831617487,-5.899324105169339,7.607127780419083,1.9453178598653311,2.044859724180985,-43.38264810838223
-0.48511038936786827,-5.878875507927529,7.626580959017737,1.5114913787815087,0.20556004412359435,-42.91515230787435
-0.5438991444471436,-5.8768199074862935,7.641695872805552,1.0823398557027653,-1.320142077947849,-42.66518290597643
-0.6026673435220066,-5.890021328265772,7.652519271362579,0.655688026643001,-2.552847060368047,-42.53622231985649
-0.6615675568046643,-5.915549798869453,7.65907615162901,0.23032580344443604,-3.503270135588555,-42.442620665565826
-0.7207230547933589,-5.950582500225338,7.6613794096634535,-0.19410040321122224,-4.176256362607307,-42.30834733766467
-0.7802288797956123,-5.9923450638514115,7.659438405631342,-0.617183876587869,-4.574307061967456,-42.06717463282054
-0.8401523304341264,-6.038088134471086,7.6532665668654625,-1.0378556229160745,-4.70064525899913,-41.66380216747233
-0.9005332117788373,-6.085094587061077,7.642888010636302,-1.4544936445907979,-4.561735500021326,-41.05539713167366
-0.9613841576494481,-6.13071194206129,7.6283430741903935,-1.8650476159075344,-4.1691112785687565,-40.213017081752234
-1.022691277070061,-6.172403054846978,7.609692598031318,-2.267177786725057,-3.5403651047547577,-39.122432090821896
-1.0844153076185308,-6.207806705894526,7.587020820164067,-2.658402107633276,-2.6992222184759296,-37.78398975317513
-1.1464933746774761,-6.234798928079285,7.560436799087735,-3.036242005165027,-1.6747321831335673,-36.21136122962007
-1.208841363958269,-6.2515462499106205,7.530074379036084,-3.398355617461228,-0.4997412086882549,-34.429233226575704
-1.2713568264573751,-6.256543661997503,7.496090822861472,-3.742647949726985,0.7910856031822864,-32.47021737853266
-1.3339222630773502,-6.24863280596568,7.458664343364202,-4.067350123512312,2.163369278581742,-30.371385805025408
-1.396408591137007,-6.226999113179862,7.417990842129079,-4.371063981562566,3.584938271203122,-28.170881660693734
-1.4586785822688055,-6.1911497304678305,7.374280202313454,-4.6527727981695035,5.027324274419603,-25.904998169513167
-1.520590079573484,-6.140876487723634,7.327752474331759,-4.911822779864635,6.466693905201388,-23.60599665915695
-1.5819988444507203,-6.0762095486716206,7.278634246533112,-5.1478827464562045,7.884186128384603,-21.300783848546015
-1.6427609399374365,-5.997367687387775,7.22715541906855,-5.360890584941664,9.265715628171462,-19.010428994521718
-1.7027346168113142,-5.90471053110606,7.173546513219134,-5.550994874886881,10.601361640161155,-16.750397498763753
-1.7617817221223748,-5.798696914704449,7.118036564470265,-5.718498849874519,11.884488272188376,-14.531318291337351
-1.8197686912694193,-5.6798520319825645,7.06085157597152,-5.863812032787892,13.110742093690346,-12.360083883661636
-1.8765672115892449,-5.548744611045661,7.002213455643641,-5.9874128716245085,14.277055056742041,-10.241093472890123
-1.9320546576997015,-5.405974060478241,6.942339326927396,-6.08982380635341,15.380754470539525,-8.177478464795866
-1.986114398304484,-5.252166515772846,6.881441088863862,-6.171598591001368,16.418853142168942,-6.172186064658297
-2.0386360634622123,-5.087977984351157,6.819725102953848,-6.233320451647951,17.387565369964246,-4.228833631351047
-2.089515843305724,-4.914102330651514,6.757391898437368,-6.2756087879614615,18.28206940857054,-2.35228118089486
-2.138656866612239,-4.731281636565808,6.694635810557753,-6.29913159977041,19.09651428534492,-0.5489009214460644
-2.185969682977897,-4.540316493712359,6.6316444945600495,-6.304620608984871,19.824248212765795,1.1734488948988335
-2.2313728479150203,-4.3420740115847005,6.5685982884702,-6.292886120035883,20.458227583538207,2.8057132288831053
-2.2747935880308674,-4.137491735749318,6.505669427269842,-6.264828987747052,20.991550663754172,4.338138590313377
-2.3161685053883607,-3.9275762291117764,6.443021137392371,-6.221447601843918,21.41805017117055,5.7609102541326465
-2.3554442676794785,-3.713395727400071,6.380806661373932,-6.163838499302591,21.732875537477213,7.064849030106742
-2.3925782249534793,-3.496066972025299,6.319168276380906,-6.093190009001524,21.932999815484877,8.24208758164721
-2.427538894673732,-3.27673697387045,6.258236376290891,-6.010769133185052,22.017597805430547,9.286654456946188
-2.4603062644124365,-3.056560995816145,6.19812868495904,-5.91790258861559,21.988259608980933,10.194910007842696
-2.490871874370598,-2.8366783997263356,6.1389496590728845,-5.815953488537163,21.849024887484127,10.965799850024565
-2.519238658367861,-2.6181881508514944,6.080790124187513,-5.706295490036918,21.606244383804814,11.600915145844066
-2.545420539876376,-2.4021257070134463,6.0237271692871435,-5.590286338578477,21.268293626252973,12.104371227946704
-2.5694417969465104,-2.1894427707509165,5.967824305901359,-5.46924262629901,20.845176781562795,12.482533919862416
-2.5913362246540195,-1.9809910029352886,5.913131879638368,-5.344417287100386,20.348065158645795,12.743634440534382
-2.611146134683372,-1.7775103513488306,5.859687706767365,-5.216980942695042,19.788814962636124,12.897318432865985
-2.6289212381968605,-1.5796222017224695,5.807517897340414,-5.088007758366382,19.179503695663005,12.95417308829621
-2.644717460214085,-1.3878271647658393,5.75663781975675,-4.9584660274834205,18.532015871065216,12.925270067755708
-2.6585957318617432,-1.2025070060551872,5.707053159481916,-4.8292133268058635,17.85769839216118,12.821752849205108
-2.6706208019222952,-1.0239300221335754,5.658761026213857,-4.700995798313812,17.167095759576473,12.654487117697663
-2.680860102143631,-0.8522590645378108,5.611751068230719,-4.574450927136835,16.469766459215442,12.433783350618276
-2.689382692789009,-0.6875613999456563,5.566006558959351,-4.4501130936306525,15.774175146932505,12.169192827387942
-2.6962583067884656,-0.5298196484763313,5.521505428023044,-4.328421165356773,15.08765079110508,11.869372387899638
-2.701556503273229,-0.37894314056528056,5.478221216369477,-4.209727441477777,14.416398596140189,11.54200943584238
-2.7053459346788817,-0.23477915460387866,5.4361239419546985,-4.094307347119353,13.765552922415841,11.193796703866614
-2.7076937262249205,-0.09712362537972025,5.3951808684835045,-3.982369380080687,13.139259066845145,10.830445786462457
-2.708664962478718,0.03426896528873122,5.355357174682697,-3.874064922216063,12.540773208818408,10.456728978639994
-2.7083222728258303,0.15967669737691528,5.316616525460537,-3.7694976324296627,11.972571663869372,10.076540139053392
-2.706725505852061,0.279402414015609,5.278921549136241,-3.6687322310391286,11.436462522294322,9.692966800276032
-2.703931481711905,0.3937670392385522,5.2422342268258495,-3.571802563036368,10.933694579018264,9.308367335779694
-2.699993811319519,0.5031039850287349,5.206516201195486,-3.478718889678571,10.46506006501389,8.9244485026844
-2.694962771469232,0.6077545856788737,5.1717290122987,-3.389474404651727,10.030989015219857,8.542340019190975
-2.6888852256124434,0.7080644758310723,5.137834268252183,-3.3040510044598173,9.631634144133294,8.162663965090557
-2.6818045808541324,0.8043808172724053,5.104793758207585,-3.2224243648089117,9.266945867054664,7.785597708153703
-2.6737607726814083,0.897050275942952,5.072569514559495,-3.1445683877273747,8.936737635803812,7.410929776695707
-2.664790269921979,0.9864176523009901,5.0411238306822215,-3.0704590899604174,8.640742090792642,7.038108650337229
-2.654926093398969,1.0728250732089166,5.0104192397826175,-3.000078003457045,8.378658703075912,6.666284864361977
-2.64419784266688,1.1566116602396757,4.980418459748047,-2.9334151548134253,8.15019362114076,6.294347157896386
-2.632631726064483,1.2381135964510832,4.9510843081999125,-2.8704716832344612,7.955092370502789,5.920953682803668
-2.6202505900999724,1.317664520156111,4.922379591367568,-2.8112621464064245,7.793165893198589,5.544559569704909
-2.6070739448984113,1.3955961790880969,4.894266969903503,-2.7558165507093753,7.664310162527968,5.163442462807672
-2.5931179831075304,1.4722392807133766,4.86670880439641,-2.7041821260812986,7.568519258648766,4.775728033305085
