th1 (rad),w1 (rad/s),th2 (rad),w2 (rad/s)
1.1270980738971106,-0.45103381305225754,0.09208108065017204,-0.46091877691379823
1.122587735766588,-0.5517254418794638,0.08747189288103406,-0.4167765110331727
1.1170704813477934,-0.6523885515972956,0.08330412777070234,-0.37133911921436324
1.1105465958318204,-0.7530931806415542,0.07959073657855871,-0.3243173912812001
1.1030156640254047,-0.8539123868574314,0.07634756266574672,-0.2754231102857597
1.0944765401568304,-0.9549236394879786,0.07359333156288912,-0.22436857202572918
1.0849273037619507,-1.0562102465922263,0.07134964584263183,-0.1708660890314998
1.0743652012960285,-1.1578628143882144,0.06964098495231683,-0.11462748034181663
1.0627865731521464,-1.2599807294769978,0.06849471014889866,-0.055363555604396
1.0501867658573765,-1.3626736468209524,0.0679410745928547,0.007216386873133668
1.036560029389167,-1.4660629546781763,0.06801323846158604,0.07340501197884867
1.0218993998423853,-1.570283170908493,0.06874728858137452,0.14349728922938199
1.0061965681333005,-1.6754832009634806,0.07018226147366834,0.21779062840384183
0.9894417361236657,-1.7818273533018953,0.07236016775770676,0.29658466357281044
0.9716234625906468,-1.8894959584594782,0.07532601439343486,0.38018046753668394
0.952728503006052,-1.9986853672599563,0.0791278190688017,0.4688788758690202
0.9327416493334525,-2.109607002961087,0.08381660782749191,0.5629774540493038
0.9116455793038416,-2.222484999631685,0.08944638236798495,0.6627654360025925
0.8894207293075248,-2.3375517591352444,0.09607403672801088,0.7685156760486045
0.8660452117161723,-2.4550404822121665,0.10375919348849692,0.8804722618604467
0.8414948068940507,-2.5751733530590686,0.1125639161071014,0.9988319032406239
0.81574307336346,-2.698143561036075,0.12255223513950764,1.1237165132569498
0.7887616377530993,-2.8240887204643683,0.13378940027207714,1.2551335272104358
0.7605207505484556,-2.9530525310543614,0.1463407355441815,1.3929195094257685
0.730990225237912,-3.084930826781001,0.1602699306384392,1.5366616531814496
0.7001409169701021,-3.2193977880869697,0.1756365471702537,1.6855913154206978
0.6679469390892323,-3.3558086631771906,0.19249246032446068,1.8384446357728748
0.6343888524574604,-3.493077996420015,0.21087690668218945,1.9932891893963056
0.5994580724932602,-3.6295388948903486,0.2308097985761525,2.1473250686091703
0.5631626835443567,-3.7628015463908335,0.2522830492622442,2.296686984062614
0.5255346680804484,-3.8896495957200425,0.27524991910287033,2.4363031002054325
0.48663817212324795,-4.006038866274855,0.29961295010492467,2.559903145630813
0.4465777834604994,-4.107283090790657,0.3252119815612328,2.6602968885887304
0.40550495255259283,-4.188501658421842,0.35181495044712013,2.7300299933685137
0.3636199359683744,-4.2453349374679235,0.3791152503808053,2.7624249721216323
0.3211665865936951,-4.274797216326855,0.4067395001020216,2.7528214541249527
0.2784186144304266,-4.275993828813552,0.43426771464327113,2.699624804439243
0.23565867614229108,-4.250396148429547,0.46126396268766356,2.604723811242313
0.1931547146579956,-4.2015263607637365,0.4873112008000867,2.473061880047527
0.15113945105035825,-4.134178151796358,0.5120418196005619,2.3115364984048714
0.10979766953239467,-4.053494073782503,0.5351571845846107,2.127681282607024
0.06926272879456963,-3.9642098041961575,0.5564339974106809,1.928573948826701
0.029620630752608054,-3.870215548630209,0.575719736898948,1.7201889553897325
-0.009081524733694037,-3.7744188864973203,0.5929216264528453,1.507177920623462
-0.04682571359866724,-3.6788088556154968,0.6079934056590799,1.2929391169551592
-0.0836138021548222,-3.584615442001765,0.6209227968286315,1.079827159336761
-0.11945995657483985,-3.492490300072502,0.6317210684219992,0.8693973656716638
-0.15438485957556486,-3.4026697239822794,0.6404150420787158,0.662628462766451
-0.18841155681538765,-3.3151057170588683,0.6470413267063803,0.4601023895995437
-0.22156261398597632,-3.229564480399676,0.6516423506023757,0.2621392257921631
-0.2538582587899731,-3.145697265250487,0.6542637428602974,0.06889350956248919
-0.28531523144247795,-3.0630898792134404,0.6549526779559223,-0.11957963121774653
-0.3159461302346124,-2.981296588340725,0.6537568816437448,-0.3032806844624886
-0.34575909611801964,-2.8998630030946866,0.6507240747991199,-0.4822379298033695
-0.3747577261489665,-2.8183413611676182,0.6459016955010862,-0.6564907765504423
-0.4029411397606427,-2.7363006362507916,0.6393367877355818,-0.8260807747598466
-0.43030414612315065,-2.6533331494088217,0.6310759799879833,-0.9910478258176613
-0.45683747761723886,-2.5690588127968526,0.6211655017298067,-1.151429860385907
-0.4825280657452074,-2.4831277503754703,0.6096512031259476,-1.3072647767268986
-0.5073593432489621,-2.3952217751693516,0.5965785553586785,-1.4585937979657828
-0.5313115610006557,-2.3050550235309255,0.5819926173790207,-1.6054656592060979
-0.5543621112359649,-2.212373928325518,0.5659379607869598,-1.7479412095858362
-0.5764858505192201,-2.1169566365899906,0.5484585486911014,-1.8860981355127366
-0.59765541688512,-2.0186119300990963,0.5295975673359741,-2.0200355969681345
-0.617841536186111,-1.9171776803970857,0.5093972113662927,-2.149878630805925
-0.6370133129900819,-1.8125188569848585,0.48789842505823344,-2.2757822212335137
-0.6551385015599305,-1.7045251042138485,0.4651406028458983,-2.397934973091934
-0.672183752602069,-1.5931079061429825,0.44116125311497895,-2.516562351019912
-0.6881148316634988,-1.4781973673356095,0.4159956296047798,-2.6319294684137207
-0.702896805336855,-1.3597386503561355,0.38967633492064263,-2.744343424375326
-0.7164941918404163,-1.2376881274480902,0.36223290067688935,-2.8541551935762794
-0.7288710731148972,-1.1120093253188568,0.33369134874112655,-2.9617610710241338
-0.7399911663680857,-0.9826687700111971,0.3040737380308852,-3.067603657619395
-0.7498178540681977,-0.8496318768573545,0.2733977014546913,-3.172172337852788
-0.7583141728367713,-0.7128590838414196,0.2416759780761634,-3.276003140198407
-0.7654427636751855,-0.5723025034972642,0.20891594667417934,-3.379677772234313
-0.7711657887101582,-0.4279034808350549,0.1751191689518362,-3.4838214695140524
-0.7754448235185087,-0.2795916102756547,0.14028095425669568,-3.589099065452005
-0.7782407396212653,-0.12728600812099097,0.10438996360217562,-3.696208344332702
-0.7795135997024751,0.029100006897312125,0.0674278801588486,-3.8058692328112604
-0.779222599633502,0.189649158703944,0.029369187830735992,-3.9188066527661913
-0.7773261080464626,0.3544229921742421,-0.009818878696925923,-4.035723821273741
-0.7737818781247202,0.5234337990425453,-0.05017611690966334,-4.157261360390862
-0.7685475401342947,0.6966010193198999,-0.09174873051357196,-4.283935724290636
-0.7615815299410957,0.8736859368768234,-0.13458808775647832,-4.416048247035351
-0.7528446705723275,1.0541970703184123,-0.17874857022683183,-4.553553975683619
-0.7423026998691434,1.2372581739306305,-0.22428410998366802,-4.695878518594195
-0.7299301181298371,1.4214330383976719,-0.27124289516961,-4.841673922544621
-0.7157157877458604,1.6045097264490016,-0.3196596343950562,-4.9885158230445095
-0.6996706904813704,1.7832667262896225,-0.3695447926255013,-5.132571110272031
-0.6818380232184742,1.9532802647879481,-0.4208705037282216,-5.2683159483435436
-0.6623052205705947,2.1088852824158857,-0.47355366321165704,-5.388457972141877
-0.6412163677464359,2.243452569610346,-0.5274382429330758,-5.484286946079774
-0.6187818420503324,2.350137280025216,-0.5822811123938736,-5.546670560135613
-0.5952804692500802,2.423112641470034,-0.6377478179952297,-5.56771965869566
-0.5710493428353798,2.4590066453535693,-0.6934250145821863,-5.542740618823076
-0.5464592763818441,2.4579639615754707,-0.748852420770417,-5.471685334642012
-0.5218796367660894,2.423764931172474,-0.8035692741168371,-5.35932164941336
-0.49764198745436466,2.362884822161461,-0.8571624906109707,-5.213966590812364
-0.47401313923275007,2.2829571190767073,-0.9093021565190944,-5.045418965331747
-0.451183568041983,2.1913277989111637,-0.9597563461724119,-4.863027749329596
-0.4292702900528714,2.0941460087467068,-1.008386623665708,-4.674496142979736
-0.4083288299654043,1.9960445807972698,-1.0551315850955054,-4.485484289716805
-0.38836838415743163,1.9002256004065485,-1.0999864279926734,-4.2997524886569645
-0.36936612815336617,1.8087313971918157,-1.1429839528792431,-4.1195445802442645
-0.351278814181448,1.722749250597642,-1.1841793986816858,-3.9460072771480275
-0.3340513216754716,1.6428761491999682,-1.223639471453166,-3.7795486181271243
-0.3176225601834719,1.5693217773586907,-1.2614349576344372,-3.620108886202021
-0.301929342409885,1.502053105059141,-1.2976360464964574,-3.4673507194078765
-0.2869088113592936,1.440892536574017,-1.332309553690536,-3.320785956092381
-0.2724998859935534,1.3855822315022768,-1.3655174132514598,-3.1798570284573047
-0.25864406367853066,1.3358250198594745,-1.397315983536033,-3.043987347195164
-0.24528581347993592,1.2913096444520469,-1.4277558570079845,-2.912611246230679
-0.23237271703541545,1.2517257460723796,-1.4568819694702912,-2.7851907967895957
-0.21985545957469166,1.2167722563365437,-1.4847338774381873,-2.6612243748303688
-0.20768773701132623,1.186161625415239,-1.511346121186491,-2.54025017231329
-0.19582612075717384,1.159621469145948,-1.5367486229096239,-2.4218467023938697
-0.18422990606571438,1.1368946587422184,-1.5609670899335626,-2.305631597648219
-0.1728609594782922,1.117738507628932,-1.5840234059100449,-2.191259512976164
-0.16168357440200287,1.1019234699100495,-1.6059360010398065,-2.0784196315939862
-0.15066433970290238,1.0892316097173027,-1.6267201973557464,-1.9668330728648342
-0.13977202360572935,1.0794550008124513,-1.6463885280843946,-1.856250374418584
-0.12897747359760484,1.0723941519466,-1.6649510318285805,-1.7464491418251595
-0.11825353207813884,1.067856512947731,-1.682415523246832,-1.6372319100024524
-0.10757496694866153,1.0656550910636715,-1.6987878423468565,-1.5284242306090667
-0.09691841603802481,1.0656071913731304,-1.7140720846529471,-1.4198729818611622
-0.08626234412429351,1.0675332856125153,-1.7282708144715588,-1.3114448870186997
-0.07558701126816836,1.0712560082912568,-1.741385263341746,-1.2030252223335731
-0.06487445118525578,1.0765992760154364,-1.7534155155650817,-1.0945166927105774
-0.05410845842510142,1.0833875245550133,-1.7643606824921874,-0.9858384525438875
-0.04327458317955128,1.091445057754917,-1.7742190670176263,-0.8769252494299247
-0.032360132602002115,1.1005955025038223,-1.7829883195119256,-0.767726669271578
-0.021354177576963892,1.1106613643782564,-1.7906655862046414,-0.6582064624043833
-0.010247563933181329,1.1214636791089305,-1.7972476508286852,-0.5483419316296286
0.0009670728579079767,1.1328217555674,-1.8027310701449815,-0.43812336433937005
0.012295290413581978,1.1445530064814806,-1.8071123037883752,-0.327553492213537
0.023740820478396783,1.156472863521177,-1.8103878387105106,-0.21664696323437516
0.03530554911360855,1.1683947737347777,-1.8125543083428544,-0.10542981198713798
0.04698949685095633,1.1801302745501967,-1.8136086064627257,0.0060610846059567375
0.0587907995964583,1.1914891446896339,-1.8135479956166662,0.11777857784002202
0.07070569104335464,1.2022796283800294,-1.812370209838266,0.2296658547068168
0.08272848732715493,1.2123087301828288,-1.8100735512911978,0.3416570918976313
0.09485157462898322,1.2213825776188385,-1.8066569803722214,0.4536781649359343
0.10706540040517161,1.2293068485297447,-1.802120198722862,0.5656474200975301
0.11935846889046905,1.2358872597959862,-1.7964637245218869,0.6774765158671415
0.13171734148842892,1.240930113615444,-1.7896889593632155,0.7890713398033218
0.14412664262458336,1.2442428970283368,-1.7817982459651822,0.9003330058262421
0.15656907159486672,1.2456349297355622,-1.7727949159069198,1.0111589360882547
0.16902542089222233,1.2449180544813223,-1.7626833265460373,1.12144403071373
0.18147460143703556,1.2419073633346285,-1.7514688862389,1.2310819277777192
0.19389367507038185,1.2364219520863537,-1.7391580669611229,1.3399663549065335
0.20625789459124538,1.2282856936597073,-1.7257584034120574,1.4479925728034357
0.21854075152784247,1.2173280198991974,-1.711278477684023,1.5550589098116419
0.23071403172683444,1.2033846993528363,-1.6957278885859066,1.6610683853182568
0.2427478787203628,1.186298596704289,-1.679117204732724,1.7659304183868536
0.2546108646874057,1.1659203973719325,-1.6614579005488554,1.8695626165154753
0.266270068661125,1.142109278514832,-1.6427622743837007,1.9718926379103545
0.2776911614462733,1.1147335053347915,-1.6230433480045972,2.072860119233907
0.28883849649962123,1.0836709292198352,-1.602314746812258,2.1724186595518375
0.2996752057918196,1.048809362032302,-1.5805905602167396,2.270537850324447
0.31016329941214266,1.0100467988063153,-1.557885181713495,2.367205340947126
0.3202637674002058,0.9672914593853558,-1.534213128304024,2.4624289297541724
0.32993668199405934,0.9204616181894109,-1.5095888390064822,2.5562386717834547
0.33914129817595345,0.8694851904163622,-1.4840264522886477,2.648688997186596
0.3478361500801171,0.8142990425801953,-1.4575395623167817,2.739860838182115
0.35597914050591906,0.7548479953465854,-1.4301409539349605,2.8298637680885745
0.3635276204593849,0.6910834870639433,-1.4018423162540747,2.9188381634096587
0.37043845533002434,0.622961867062876,-1.3726539346199782,3.006957409297599
0.3766680740006531,0.5504422885084835,-1.3425843605270023,3.0944301800656713
0.38217249688573796,0.4734841710918384,-1.3116400587263455,3.1815028397602014
0.3869073385966563,0.39204420387477634,-1.2798250303287435,3.2684620230637806
0.3908277806354041,0.30607285791865424,-1.2471404100981056,3.3556374738040406
0.3938885092145906,0.21551037679762358,-1.213584035360065,3.443405236747169
0.39604361298256685,0.12028221080405463,-1.1791499829925933,3.532191317561786
0.3972464350906074,0.020293858088460903,-1.1438280698169754,3.6224759447929125
0.397449373671492,-0.08457492566088468,-1.1076033103690464,3.7147985845311635
0.39660362441488317,-0.1944765856921417,-1.0704553245237347,3.8097638699201015
0.39465885855796173,-0.30960292201605805,-1.0323576858245338,3.908048607927284
0.3915628293378012,-0.4301929405806433,-0.993277199745261,4.010410004729757
0.38726089993199475,-0.5565413491114444,-0.9531730996979634,4.117695190793571
0.3816954864408803,-0.6890075370374862,-0.9119961477900277,4.230851996130306
0.37480541107050547,-0.8280246770620718,-0.8696876278287247,4.350940671157336
0.36652516429988474,-0.9741082203198239,-0.8261782211171513,4.4791457752214905
0.3567840820966865,-1.1278624083778732,-0.7813867633649364,4.616786601039803
0.3455054580129078,-1.2899822904546059,-0.7352188973545384,4.765322990516451
0.3326056351083617,-1.4612467702708465,-0.6875656674493739,4.926350751666378
0.31799316740565325,-1.6424948451978854,-0.6383021599327101,5.10157631565309
0.3015682189536744,-1.83457152906465,-0.5872863967761792,5.29275249742418
0.2832225036630279,-2.0382206035481936,-0.5343588718019374,5.501544307554732
0.262840297627546,-2.253886566690778,-0.4793434287263901,5.7292731779448385
0.24030143196063825,-2.4813665867575123,-0.4220506969469417,5.976457637996931
0.2154877660930631,-2.7192269932877697,-0.3622861205669724,6.242030923410573
0.18829549616018543,-2.963882014734601,-0.29986581133286666,6.52209031269276
0.15865667601283942,-3.2082711754856987,-0.23464490820593906,6.808082430581488
0.12657396425798242,-3.44027449051892,-0.16656408390012417,7.084603690607811
0.09217121935279322,-3.6415398816331503,-0.09571804699404605,7.327730945636904
0.05575582053646172,-3.788290300651397,-0.022440737537677016,7.506034013576426
0.017872917529947747,-3.856178689396561,0.05261960259808725,7.587124624191336
-0.020688869364017863,-3.829402248195732,0.12849084884000062,7.550044171598713
-0.05898289184597518,-3.7093072309046513,0.20399129055598775,7.396930384814865
-0.0960759641550217,-3.514947240474766,0.2779605944041364,7.15363257262773
-0.13122543655976937,-3.2742474323691892,0.34949692013041367,6.857542357119477
-0.16396791088346127,-3.013244599770729,0.41807234370160845,6.542989004412496
-0.19410035688116856,-2.7504065303404706,0.4835022337457334,6.233727690503309
-0.22160442218457327,-2.4963812245563686,0.5458395106507665,5.942838282354051
-0.24656823443013695,-2.256145576402467,0.605267893474307,5.675800248770065
-0.2691296901941616,-2.0312746592786546,0.6620258959620077,5.433636165179357
-0.28944243678694814,-1.8215582585302743,0.7163622576138012,5.21510881852084
-0.3076580193722509,-1.6259706554890279,0.7685133457990097,5.018014024073486
-0.3239177259271412,-1.4431973445843647,0.8186934860397446,4.839865507409219
-0.3383496993729848,-1.2718998581963141,0.8670921411138368,4.678226574294355
-0.35106869795494794,-1.1108372857372673,0.9138744068567803,4.530852364532117
-0.3621770708123206,-0.9589132505373639,0.9591829305021015,4.395736249465891
-0.3717662033176942,-0.8151858850764737,1.0031402929967603,4.271110636889406
-0.37991806216845897,-0.6788605768096071,1.0458513993656544,4.155428142038122
-0.38670666793655506,-0.5492756058276904,1.0874056807860357,4.047336061953031
-0.392199423994832,-0.425885686599013,1.127879041405566,3.945650303158534
-0.39645828086082213,-0.30824576984863916,1.1673355444371514,3.849331449527408
-0.39954073855930855,-0.19599610543591423,1.2058288589324255,3.7574639329558175
-0.4015006996136677,-0.08884889460251214,1.2434034982619837,3.669238442810046
-0.4023891885596928,0.013423457685464102,1.2800958826900841,3.5839373405965977
-0.40225495398283817,0.11099861529642949,1.31593525609605,3.500922705183949
-0.40114496782987386,0.2040132780562165,1.3509444831478894,3.4196266032341396
-0.3991048350493117,0.29257101427157006,1.3851407491802308,3.3395431991532902
-0.396179124906596,0.3767491118452704,1.4185361811717636,3.2602223587577814
-0.3924116337881433,0.45660457729298154,1.4511384047593414,3.1812644464258404
-0.3878455880152135,0.5321793880543026,1.4829510492235998,3.1023160601473223
-0.38252379413467047,0.603505082370354,1.513974209825073,3.0230664899441457
-0.37648874331096693,0.6706067537480582,1.5442048747245145,2.943244721848385
-0.36978267577348634,0.7335065038024463,1.5736373219429984,2.8626168420586753
-0.3624476107354619,0.7922263977537211,1.6022634903635853,2.780983724405258
-0.3545253467579247,0.8467909605230642,1.6300733276076378,2.698178909238217
-0.34605743715269405,0.8972292475968187,1.65705511670002,2.6140666036501092
-0.33708514467672585,0.9435765229737348,1.6831957827365212,2.5285397518054844
-0.3276493794469885,0.9858755759663765,1.708481180254576,2.4415181402542414
-0.31779062368732475,1.0241777088485247,1.7328963616571185,2.3529465165860306
-0.3075488465988395,1.058543427859786,1.7564258268229789,2.2627927107559693
-0.29696341232024165,1.0890428705245512,1.7790537539305387,2.171045757005532
-0.2860729836149961,1.1157560023421271,1.800764211500594,2.07771402067364
-0.27491542359157484,1.1387726154837783,1.8215413517073304,1.9828233385377325
-0.26352769743673704,1.1581921611074384,1.8413695850927079,1.886415183878993
-0.25194577582566263,1.1741234452686697,1.8602337369314978,1.788544868499748
-0.24020454137297592,1.1866842162279616,1.8781191856164954,1.6892797937264379
-0.2283376992106963,1.1960006683375797,1.8950119835537598,1.5886977613082718
-0.2163776925273205,1.2022068847727598,1.9108989611668425,1.4868853533618687
-0.2043556236795929,1.2054442383011144,1.9257678147004613,1.3839363883860543
-0.19230118129658175,1.2058607662070477,1.9396071785843219,1.279950458114914
-0.18024257363451127,1.2036105325367557,1.952406683165471,1.1750315477854176
-0.1682064683091437,1.198852988113109,1.9641569986433252,1.0692867404157755
-0.15621793842801263,1.1917523363697056,1.974849866047483,0.9628250040216919
-0.14430041506431557,1.1824769110211268,1.9844781160876999,0.855756059393955
-0.1324756459541043,1.1711985699446472,1.9930356766816395,0.7481893251358699
-0.12076366025465783,1.1580921083939768,2.000517569932998,0.6402329360928003
-0.10918273917071807,1.143334693773162,2.006919899293926,0.5319928310525823
-0.09774939223298644,1.1271053236272544,2.0122398276044517,0.42357190559130214
-0.0864783389967139,1.109584308203659,2.0164755466603648,0.3150692261107668
