th1 (rad),w1 (rad/s),th2 (rad),w2 (rad/s),a1 (rad/s^2),a2 (rad/s^2)
5.003695325538077,1.440597430584291,1.8012611853031362,-1.0626624649373904,9.159848141970361,-0.5241788621528256
5.01810129984392,1.5321959120039947,1.7906345606537624,-1.0679042535589187,8.993349593852363,-0.8052833691356174
5.03342325896396,1.6221294079425184,1.7799555181181732,-1.0759570872502748,8.799778703688155,-1.1354139781194146
5.049644553043385,1.7101271949794,1.7691959472456704,-1.0873112270314689,8.578973938795432,-1.5161401757209263
5.066745824993179,1.7959169343673542,1.7583228349753557,-1.1024726287886781,8.331671193699785,-1.9477835063107725
5.084704994336852,1.879233646304352,1.7472981086874688,-1.1219504638517859,8.059609422394821,-2.42927089202064
5.103497330799896,1.9598297405283003,1.7360786040489509,-1.1462431727719922,7.765598295947816,-2.958048591096313
5.123095628205179,2.0374857234877783,1.724616172321231,-1.1758236586829554,7.453537339885323,-3.530073598539549
5.143470485440057,2.1120210968866315,1.7128579357344014,-1.2111243946683508,7.128378768201859,-4.139895031368298
5.164590696408923,2.18330488456865,1.7007466917877179,-1.2525233449820337,6.796030393061547,-4.780831567402633
5.18642374525461,2.2512651884992656,1.6882214583378976,-1.30033166065606,6.463200255770073,-5.445242804017711
5.2089363971396025,2.3158971910569663,1.675218141731337,-1.354784088696237,6.137190465918902,-6.124883337664525
5.232095369050172,2.3772690957161555,1.6616703008443747,-1.4160329220728822,5.825653438114457,-6.811319601559625
5.255868060007334,2.4355256300973003,1.6475099716236459,-1.4841461180884785,5.536328481866195,-7.496382335255693
5.280223316308307,2.490888914915962,1.6326685104427612,-1.5591099414410354,5.276779787080155,-8.172623196128232
5.3051322054574666,2.5436567127867638,1.6170774110283508,-1.6408361734023178,5.054157717513422,-8.833743316621446
5.330568772585334,2.594198289961898,1.6006690492943276,-1.7291736065685321,4.875003772282917,-9.47496487514789
5.356510755484953,2.6429483276847274,1.5833773132286424,-1.823923255320011,4.74511579613398,-10.09332365157943
5.3829402387618,2.690399485646067,1.5651380806754422,-1.9248564918358053,4.669484592002433,-10.68787014575446
5.409844233618261,2.7370943315660914,1.5458895157570842,-2.03173519329335,4.652306875829126,-11.259777792455857
5.437215176933922,2.7836174003243825,1.5255721638241506,-2.1443329712179087,4.697073491376115,-11.812367609367863
5.465051350937165,2.830588135238144,1.5041288341119716,-2.2624566473115872,4.806726879653709,-12.351067930147774
5.493357232289547,2.878655404034681,1.4815042676388557,-2.385967326613065,4.983878652551908,-12.88333478610373
5.522143786329894,2.9284941905602,1.457644594372725,-2.5148006744741025,5.231077111445802,-13.418562651020427
5.551428728235496,2.980804961674658,1.432496587627984,-2.6489863009843067,5.551115705798857,-13.968016865768746
5.581236777852243,3.0363161187326466,1.406006724618141,-2.7886664696419943,5.947376501591051,-14.54481877835459
5.611599939039569,3.095789883748557,1.378120059921721,-2.9341146574255403,6.42420731550044,-15.164013402004496
5.642557837877054,3.1600319569035613,1.3487789133474655,-3.085754791445585,6.9873367936660955,-15.84274818587278
5.674158157446089,3.2299053248402223,1.3179213654330095,-3.244182273304313,7.644337888224963,-16.600591110831875
5.7064572106944915,3.306348703722472,1.2854795426999663,-3.4101881844126316,8.405156370653076,-17.46001714651927
5.739520697731717,3.390400267429003,1.25137766085584,-3.584788355877824,9.282726406619165,-18.447093734496114
5.773424700406006,3.483227531495195,1.2155297772970617,-3.7692592932227855,10.293698184334708,-19.592396517719116
5.808256975720958,3.586164513338542,1.1778371843648339,-3.9651832583999767,11.459299545084981,-20.93218115747514
5.844118620854344,3.700757508789392,1.138185351780834,-4.174505069974728,12.806336448281213,-22.509814603578832
5.881126195942238,3.8288208732722038,1.0964403010810868,-4.399603216010516,14.368288013807884,-24.377404844679845
5.91941440467496,3.9725037534102827,1.0524442689209816,-4.643377264457315,16.186331442743164,-26.597407535912208
5.959139442209063,4.134367067837714,1.0060104962764085,-4.909351339816437,18.309854096344388,-29.243611653086766
6.00048311288744,4.317465608801158,0.9569169828782441,-5.201787456347305,20.795386252311488,-32.40005336029771
6.043657768975452,4.525419471324273,0.904899108314771,-5.525787989950282,23.701511330904932,-36.15451066707347
6.088911963688695,4.762434584633323,0.8496412284152682,-5.887333096621017,27.074319704047408,-40.57908830947751
6.136536309535027,5.033177781673797,0.7907678974490581,-6.293123979715792,30.91165517038093,-45.681610679883626
6.186868087351765,5.342294333377606,0.7278366576519002,-6.749940086514628,35.08188197346115,-51.294039736183564
6.240291030685541,5.693113153112217,0.6603372567867539,-7.262880483876463,39.15185947807794,-56.83457194369662
6.297222162216664,6.084631747892997,0.5877084519479893,-7.831226203313429,42.06036922673141,-60.85372162713281
6.358068479695594,6.505235440160312,0.5093961899148549,-8.439763419584757,41.63485124593802,-60.35950239699024
6.423120834097197,6.921583952619692,0.42499855571900735,-9.04335844355466,34.35461895276836,-50.481612462127
6.492336673623393,7.265130142147375,0.33456497128346074,-9.548174568175929,16.814129834568067,-26.502239486337192
6.564987975044867,7.433271440493056,0.23908322560170145,-9.813196963039301,-9.584507406122423,9.614687097637722
6.639320689449798,7.337426366431831,0.14095125597130842,-9.717050092062925,-35.27260952961665,44.578213864025884
6.7126949531141165,6.984700271135665,0.043780755050679174,-9.271267953422665,-50.02893608292963,64.27911195670488
6.782541955825473,6.4844109103063685,-0.04893192448354748,-8.628476833855617,-52.92555053289802,67.56330379175272
6.8473860649285365,5.955155404977388,-0.13521669282210363,-7.952843795938089,-49.26277754232357,61.84847218691358
6.9069376189783105,5.4625276295541525,-0.21474513078148455,-7.334359074068954,-43.58167360856292,53.41585103993801
6.961562895273852,5.026710893468524,-0.2880887215221741,-6.8002005636695735,-38.01036767080003,45.174743833202015
7.011830004208537,4.646607216760524,-0.3560907271588698,-6.348453125337553,-33.22516771413683,38.027722548078124
7.058296076376142,4.3143555396191555,-0.4195752584122453,-5.968175899856772,-29.31269895573689,32.07154094305342
7.101439631772334,4.021228550061787,-0.479257017410813,-5.647460490426237,-26.17291462412237,27.15313203193352
7.141651917272952,3.759499403820563,-0.5357316223150754,-5.375929170106902,-23.669525845131105,23.07492186202612
7.179246911311158,3.522804145369252,-0.5894909140161444,-5.145179951486641,-21.67781566694211,19.65894126730167
7.214474952764851,3.306025988699831,-0.6409427135310108,-4.948590538813624,-20.09565159655221,16.760861532602963
7.247535212651849,3.105069472734309,-0.6904286189191471,-4.7809819234875945,-18.842630605698016,14.268193157204335
7.278585907379192,2.916643166677329,-0.738238438154023,-4.638299991915551,-17.856165043302127,12.094616362576243
7.307752339045965,2.7380815162443075,-0.7846214380731785,-4.517353828289789,-17.08739740055116,10.174299066271905
7.335133154208409,2.567207542238796,-0.8297949763560764,-4.41561083762707,-16.49774348387546,8.457224292760467
7.360805229630796,2.402230107400041,-0.8739510847323471,-4.331038594699465,-16.056166853222674,6.905616916862908
7.384827530704797,2.2416684388678143,-0.9172614706793417,-4.261982425530836,-15.7370849046253,5.49129505851533
7.407244215093475,2.084297589821561,-0.95988129493465,-4.2070694749456825,-15.518773118704615,4.1937299305158655
7.428087190991691,1.929109858634515,-1.001951989684107,-4.165132175640524,-15.38215214804639,2.9986219815213135
7.447378289578036,1.775288337154051,-1.043603311440512,-4.135145955825311,-15.30987206652833,1.8968372030567906
7.465131172949576,1.6221896164887677,-1.0849547709987652,-4.116177583794743,-15.285636161576013,0.8835793060840456
7.481353069114464,1.4693332548730076,-1.1261165468367127,-4.107341790733902,-15.293729521674711,-0.042301869061865095
7.496046401663194,1.3163959596562604,-1.1671899647440518,-4.107764809424521,-15.318734672632717,-0.8789464150792652
7.509210361259757,1.1632086129299333,-1.208267612838297,-4.116554273575313,-15.345427525924384,-1.6221296178997537
7.520842447389056,1.0097543376706895,-1.24943315557405,-4.132775569754311,-15.358851651748715,-2.265965144234341
7.530939990765763,0.8561658211532023,-1.2907609112715932,-4.1554352211966545,-15.344566946583223,-2.8036962781719055
7.539501648977295,0.70272015168737,-1.3323152634835598,-4.183472183978374,-15.289059878541865,-3.2285823843871753
7.546528850494168,0.5498295529019513,-1.3741499853233434,-4.215758007822246,-15.180287137428511,-3.5348602328145726
7.552027146023187,0.39802668152766624,-1.416307565401566,-4.251106610150392,-15.008304482232885,-3.718729469219091
7.556007412838464,0.24794363670533737,-1.45881863150307,-4.2882939048425825,-14.765911389985055,-3.7792825316939913
7.558486849205518,0.1002845228054868,-1.5017015705514958,-4.326086730159522,-14.449224953839217,-3.7192779581238926
7.559489694433573,-0.04420772673290538,-1.544962437853091,-4.363279509740761,-14.05808939751127,-3.5456494371949305
7.559047617166244,-0.1847886207080181,-1.5885952329504986,-4.398736004112711,-13.596235860564244,-3.2696569712195145
7.557199730959164,-0.32075097931366053,-1.6325825929916258,-4.431432573824906,-13.071133243877743,-2.906623098446944
7.553992221166028,-0.45146231175243795,-1.6768969187298748,-4.460498804809375,-12.493512789245587,-2.475252286208269
7.549477598048504,-0.5763974396448939,-1.7215019067779684,-4.485251327671458,-11.876599510294756,-1.9965951268311712
7.543713623652055,-0.6951634347478415,-1.766354420054683,-4.50521727893977,-11.235131688940491,-1.492776500037188
7.536761989304576,-0.8075147516372464,-1.8114065928440808,-4.520145043940142,-10.584283911055763,-0.9856441601990082
7.528686841788204,-0.913357590747804,-1.8566080432834822,-4.530001485542131,-9.938621243712825,-0.49550188843568777
7.519553265880726,-1.0127438031849323,-1.9019080581389034,-4.534956504426488,-9.31119989909966,-0.04006818510948313
7.509425827848876,-1.1058558021759288,-1.9472576231831682,-4.535357186277583,-8.712897487937228,0.36624535865692204
7.498367269827116,-1.192984777055301,-1.992611195045944,-4.5316947326910135,-8.152012960075918,0.7126996228981726
7.4864374220565635,-1.2745049066560603,-2.037928142372854,-4.524567736462032,-7.634133247605285,0.9922559159598675
7.473692372990003,-1.3508462391321132,-2.0831738197374743,-4.514645177302433,-7.162229258952565,1.2013260817924385
7.460183910598682,-1.4224685317216388,-2.1283202715104985,-4.502631916484509,-6.736923045447026,1.3393271066913286
7.445959225281465,-1.489837762176109,-2.1733465906753437,-4.489238645417595,-6.356861207015925,1.4081268800968838
7.431060847659704,-1.5534063742462683,-2.21823897712952,-4.475157376616626,-6.019134231053633,1.4114580783801018
7.415526783917241,-1.6135977165568045,-2.2629905508956862,-4.461042795832825,-5.719693229471895,1.3543593692512532
7.399390806751673,-1.6707946488515235,-2.3076009788540146,-4.447499202140313,-5.453730198109088,1.2426828397972371
7.382682860263158,-1.7253319508326144,-2.3520759708754175,-4.435072373742341,-5.216002168841504,1.0826878121439623
7.365429540754832,-1.7774919725210294,-2.396426694612841,-4.424245495620902,-5.001091458994067,0.8807263067664706
7.347654621029622,-1.8275028871109702,-2.44066914956905,-4.415438232553237,-4.803602838158387,0.6430150745092174
7.329379592158512,-1.8755389154925541,-2.484823531894582,-4.409008081808145,-4.618303877051879,0.37548302545457046
7.310624203003586,-1.921721954263073,-2.5289136127126635,-4.405253251553599,-4.440217543797057,0.08368017700153836
7.291406983460956,-1.9661241297010437,-2.5729661452281993,-4.404416449783584,-4.264676972204769,-0.2272660836799661
7.2717457421639455,-2.0087708994230913,-2.617010309726035,-4.406689110620384,-4.087351924046445,-0.5526604960321493
7.251658033169715,-2.0496444186635556,-2.661077200832239,-4.412215715580706,-3.9042553602180656,-0.8882263861219385
7.231161588983079,-2.0886869722657364,-2.7051993579880462,-4.421097979441925,-3.711737129037852,-1.2300781930552809
7.210274719260422,-2.125804343556115,-2.7494103377824657,-4.433398761372478,-3.5064703367659638,-1.5746871399685707
7.189016675824861,-2.1608690469237746,-2.7937443253961907,-4.449145632772164,-3.2854346356596276,-1.918845344544486
7.167407985355623,-2.193723393280371,-2.8382357817239123,-4.468334086217609,-3.0458995173895396,-2.2596321849707497
7.145470751422819,-2.2241823884542664,-2.8829191225860886,-4.4909304080673165,-2.785409750900927,-2.5943855626297023
7.123228927538276,-2.2520364859632758,-2.927828426666762,-4.516874263693613,-2.5017743398761123,-2.920679798700631
7.100708562678643,-2.277054229362037,-2.972997169303698,-4.54608106168062,-2.1930597670396272,-3.236311219617384
7.077938020385023,-2.298984827032433,-3.0184579799205045,-4.578444173876794,-1.8575878070433853,-3.5392919744732256
7.054948172114699,-2.317560705102867,-3.0642424216592725,-4.613837093621527,-1.4939377942428431,-3.827852238464499
7.031772565063671,-2.3325000830452955,-3.1103807925954876,-4.652115616006172,-1.100952898596593,-4.100450650102935
7.008447564233218,-2.3435096120312613,-3.156901948755549,-4.693120122507201,-0.6777496707103241,-4.355792574722969
6.985012468112905,-2.3502871087383643,-3.203833149980621,-4.736678048254431,-0.2237298511144895,-4.592855560360911
6.961509597025522,-2.352524407249509,-3.2511999304631654,-4.78260660385804,0.2614068083993447,-4.810921140922235
6.937984352953027,-2.3499103391655156,-3.299025996501746,-4.830715815267263,0.777650193060372,-5.009611940813992
6.914485249561372,-2.342133837234912,-3.3473331546544185,-4.880811934675403,1.324669631185915,-5.188932848177462
6.891063911189023,-2.328887140923053,-3.3961412740011725,-4.932701263157178,1.9018077191517182,-5.349314861319383
6.867775039779792,-2.309869063731536,-3.445468286632744,-4.986194411770372,2.508080151266578,-5.491660092358056
6.8446763491424765,-2.2847882622188704,-3.4953302307504477,-5.0411110126939525,3.1421836006319714,-5.617386356258533
6.821828466520288,-2.253366426212551,-3.5457413408773872,-5.097284876256538,3.8025136757082625,-5.728469808613303
6.799294802258163,-2.215341289455468,-3.5967141896399526,-5.154569574342671,4.4871948608035535,-5.827484249116914
6.777141389363608,-2.1704693408474327,-3.6482598853833794,-5.21284441683384,5.194124129412326,-5.917636005288909
6.755436695955134,-2.1185280995533096,-3.7003883295517177,-5.272020776886729,5.921029598861045,-6.002793773313566
6.7342514149596004,-2.0593178035646993,-3.753108537320585,-5.332048714619864,6.665545186659138,-6.087513432660301
6.713658236923953,-1.992662351698108,-3.8064290244667838,-5.3929238489464675,7.42530176067107,-6.177058670866722
6.693731613406972,-1.9184093340913972,-3.8603582629562485,-5.454694435655135,8.198034788116576,-6.277419245296731
6.674547520066058,-1.8364289862102314,-3.9149052073128,-5.5174686281081025,8.981708036080322,-6.395329849091667
6.656183230203956,-1.7466119058494283,-3.970079893593881,-5.5814219265990195,9.774652520190585,-6.5382938082700965
6.6387171111454615,-1.6488653806475224,-4.025894112859871,-5.64680486468172,10.57571970068104,-6.714617178008706
6.622228457338986,-1.5431081836407121,-4.082362161506688,-5.713951036461808,11.38444793880403,-6.9334601852686
6.606797375502579,-1.429263704252672,-4.139501671871306,-5.783285638314494,12.201241479936762,-7.204914332223374
6.592504738460052,-1.3072512894533044,-4.197334528254451,-5.855334781636728,13.027561706045176,-7.540114764092324
6.579432225565519,-1.1769756723928526,-4.255887876070819,-5.930735929277651,13.866131005460195,-7.951398605975485
6.567662468841591,-1.0383143623382507,-4.315195235363595,-6.010249915337406,14.721150116722061,-8.452520671526727
6.557279325218208,-0.8911028611710301,-4.37529773451697,-6.094775122052673,15.598529761246201,-9.058937798372725
6.5483682966064976,-0.735117563558568,-4.436245485737496,-6.185364500036401,16.506135921364532,-9.78817115504713
6.541017120970912,-0.5700562043449228,-4.49809913073786,-6.283246211586872,17.45404362183769,-10.660250331197032
6.535316558927462,-0.3955157681265459,-4.560931592853729,-6.389848714898842,18.45478348306014,-11.698230149906244
6.531361401246197,-0.21096793329594446,-4.624830080002718,-6.506831016397904,19.523542864854214,-12.928743589233225
6.529251721913237,-0.015732504647402307,-4.689898390166697,-6.636118452290237,20.678238135724133,-14.382497581651027
6.529094396866763,0.19104987670983903,-4.756259574689599,-6.779943428106748,21.939285507988632,-16.09450469490758
6.5310048956338616,0.41044273178972535,-4.824059008970666,-6.940888475055823,23.328724871736057,-18.10361825450521
6.535109322951759,0.643729980507086,-4.893467893721224,-7.121924657600875,24.868017993738796,-20.450496465866145
6.5415466227568295,0.892410160444474,-4.964687140297233,-7.326429622259536,26.57320765567219,-23.172265075895588
6.550470724361274,1.1581422370011958,-5.037951436519829,-7.558152273018492,28.444936628943776,-26.29052341976679
6.562052146731286,1.4425916032906336,-5.113532959250014,-7.82105750721616,30.44868799180555,-29.78637432205556
6.576478062764193,1.7470784832086892,-5.191743534322176,-8.118921250436715,32.47708070484169,-33.551188126553
6.5939488475962795,2.071849290257106,-5.272932746826543,-8.454433131702245,34.28140752541239,-37.29508111005179
6.61466734049885,2.41466336551123,-5.357477078143566,-8.827383942802763,35.35784649410057,-40.39189742080283
6.638813974153963,2.768241830452236,-5.445750917571593,-9.231302917010792,34.79159956476403,-41.66256471170546
6.666496392458485,3.1161578260998763,-5.538063946741701,-9.647928564127847,31.145118990570104,-39.210890262092974
6.697657970719484,3.427609016005577,-5.634543232382979,-10.040037466748776,22.68554208396625,-30.712687748977896
6.7319340608795395,3.65446443684524,-5.734943607050467,-10.347164344238555,8.450287142370106,-14.842682574792386
6.7684787052479916,3.738967308268941,-5.838415250492853,-10.49559116998648,-9.942078886604541,6.283819995868556
6.805868378330681,3.639546519402896,-5.943371162192717,-10.432752970027794,-27.81446324782404,26.49308726203001
6.84226384352471,3.3614018869246554,-6.047698691892995,-10.167822097407495,-40.4211845188974,39.62959858526694
6.875877862393956,2.9571900417356813,-6.14937691286707,-9.771526111554826,-46.432797389483305,44.19535526557075
6.905449762811313,2.492862067840848,-6.247092173982618,-9.329572558899118,-47.58216750254371,42.72302140464264
6.930378383489721,2.017040392815411,-6.340387899571609,-8.902342344852691,-46.19971602714922,38.399225231575954
6.950548787417875,1.5550432325439187,-6.429411323020136,-8.51835009253693,-43.878407276633055,33.32515120017376
6.966099219743315,1.1162591597775882,-6.514594823945505,-8.185098580535193,-41.421562895960484,28.51535720806333
6.977261811341091,0.7020435308179833,-6.596445809750858,-7.89994500845456,-39.151923550421074,24.348251029323624
6.98428224664927,0.31052429531377257,-6.675445259835403,-7.656462498161324,-37.1578488861653,20.906235357355076
6.9873874896024075,-0.06105419354788039,-6.752009884817016,-7.447400144587773,-35.42781904201868,18.154875655416177
6.986776947666929,-0.4153323839680672,-6.826483886262894,-7.265851388033611,-33.91381782792184,16.02357995427937
6.982623623827248,-0.7544705622472856,-6.89914240014323,-7.105615588490817,-32.558886696543404,14.438073526998107
6.975078918204775,-1.0800594292127197,-6.970198556028138,-6.961234853220836,-31.308298847021433,13.33151116116092
6.964278323912648,-1.3931424176829341,-7.039810904560347,-6.827919741609227,-30.11365537018928,12.646745715972347
6.950346899735819,-1.694278971384827,-7.108090101976439,-6.701452284449504,-28.934085946869608,12.335250707726427
6.9334041100219705,-1.9836198308535231,-7.175104624820934,-6.578099777372239,-27.736360179326212,12.355025386413494
