th1 (rad),w1 (rad/s),th2 (rad),w2 (rad/s),a1 (rad/s^2),a2 (rad/s^2)
0.598343148454101,-0.10540966076633747,3.3243307409546086,0.9689443279048939,-7.769453370691749,-5.331660020490795
0.5972890518464375,-0.18310419447325496,3.3340201842336574,0.915627727699986,-7.775911912559799,-5.286316167481689
0.5954580099017049,-0.26086331359885295,3.3431764615106574,0.8627645660251692,-7.774862822276283,-5.243481746275382
0.5928493767657164,-0.3386119418216158,3.351804107170909,0.8103297485624154,-7.765930350644638,-5.2021972041244675
0.5894632573475002,-0.4162712453280622,3.3599074046565334,0.7583077765211707,-7.748666853852138,-5.161388037347978
0.5853005448942196,-0.4937579138665836,3.367490482421745,0.7066938961476908,-7.722554886505356,-5.119866836873286
0.5803629657555537,-0.5709834627316371,3.374557421383222,0.655495227778958,-7.687010272550224,-5.076336821934438
0.5746531311282373,-0.6478535654571393,3.3811123736610114,0.6047318595596136,-7.641386292843249,-5.0293971200070615
0.568174595473666,-0.7242674283855719,3.3871596922566076,0.554437888359543,-7.584979123756651,-4.977550050174947
0.5609319211898103,-0.8001172196231384,3.3927040711402032,0.5046623878577935,-7.517034650747833,-4.919210656318039
0.5529307489935789,-0.8752875661306168,3.397750695018781,0.4554702812946131,-7.436756763682934,-4.8527187142519965
0.5441778733322727,-0.9496551337674461,3.4023053978317273,0.4069430941520931,-7.343317216490422,-4.776353401987605
0.5346813219945983,-1.0230883059323503,3.4063748287732483,0.3591795601322171,-7.235867102361551,-4.6883507737932915
0.5244504389352748,-1.0954469769559658,3.4099666243745705,0.31229605239428415,-7.113549957516934,-4.586924116489817
0.5134959691657152,-1.1665824765311352,3.4130895848985134,0.266426811229386,-6.97551646225609,-4.470287190834922
0.5018301444004039,-1.2363376411536962,3.4157538530108074,0.2217239393210368,-6.820940658771048,-4.336680273200708
0.4894667679888669,-1.3045470477414067,3.417971092404018,0.1783571365890297,-6.6490375526173455,-4.184398815056204
0.47642129751145285,-1.3710374232675802,3.419754663769908,0.13651314843846768,-6.45908191071,-4.0118244328618715
0.46271092327877705,-1.4356282423746802,3.4211197952542927,0.09639490410984897,-6.2504280153652285,-3.8174578323342128
0.44835464085503024,-1.4981325225283326,3.4220837442953913,0.058220325786506835,-6.022530083391002,-3.5999531625751304
0.4333733156297469,-1.5583578233622426,3.4226659475532566,0.02222079416075553,-5.774963013520708,-3.3581531914018212
0.41778973739612446,-1.6161074534974498,3.422888155494864,-0.011360737753262684,-5.507443086187835,-3.0911245973715693
0.40162866286114995,-1.6711818843593282,3.4227745481173315,-0.04227198372697838,-5.219848207796834,-2.7981925900772846
0.38491684401755666,-1.7233803664372966,3.422351828280062,-0.07025390962775123,-4.912237267611266,-2.4789740012429036
0.36768304035318367,-1.7725027391134094,3.4216492891837844,-0.09504364964018026,-4.5848681587891384,-2.1334079371122665
0.3499580129620496,-1.8183514207013007,3.4206988526873827,-0.11637772901130293,-4.238214004949297,-1.7617830489227388
0.33177449875503656,-1.8607335607507938,3.4195350753972695,-0.13399555950053033,-3.872977128543976,-1.3647604635485322
0.3131671631475286,-1.8994633320362335,3.4181951198022644,-0.14764316413601564,-3.4901002957795524,-0.9433914210268606
0.2941725298271663,-1.934364334994029,3.416718688160904,-0.15707707834628423,-3.0907747738159,-0.499128690129942
0.27482888647722603,-1.965272082732188,3.4151479173774413,-0.16206836524758364,-2.6764447393525574,-0.03383087860167626
0.25517616564990414,-1.9920365301257135,3.4135272337249654,-0.1624066740336004,-2.248807584763152,0.4502411764573521
0.23525580034864702,-2.014524605973345,3.4119031669846294,-0.15790426226902687,-1.8098096817485703,0.9504366563180401
0.21511055428891357,-2.032622702790831,3.410324124361939,-0.14839989570584647,-1.361637188081466,1.463736235453686
0.19478432726100525,-2.0462390746716457,3.408840125404881,-0.1337625333513096,-0.9067015272447793,1.9867832032671555
0.1743219365142888,-2.0553060899440934,3.407502500071368,-0.11389470131863805,-0.4476192417075354,2.515924436080976
0.15376887561484787,-2.059782282361169,3.4063635530581817,-0.0887354569578283,0.012813973417126834,3.0472611528144293
0.13317105279123617,-2.0596541426269974,3.4054761984886035,-0.058262845429684004,0.4716551012839865,3.5767090609355976
0.1125745113649662,-2.0549375916141575,3.404893570034307,-0.022495754820328027,0.9258513486883837,4.100067117231309
0.09202513544882462,-2.045679078127274,3.4046686124861036,0.018504916351985062,1.3722830140606406,4.613093699540182
0.07156834466755188,-2.0319562479866673,3.4048536616496237,0.06463585334738689,1.8078110040715165,5.111588528513979
0.05124878218768521,-2.013878137945952,3.4055000201830974,0.11575173863252668,2.2293280156489903,5.591478219902005
0.031110000808225687,-1.9915848577894621,3.406657537569423,0.17166652083154674,2.6338120848293665,6.048902923831703
0.011194152230331066,-1.9652467369411686,3.4083742027777384,0.23215555006986377,3.0183809095876297,6.4803011606107965
-0.00845831513908062,-1.9350629278452922,3.410695758278437,0.29695856167597173,3.3803451121278596,6.882489737609345
-0.02780894441753354,-1.9012594767240136,3.4136653438951967,0.36578345905206516,3.717258449359558,7.252735570509118
-0.04682153918477368,-1.8640868922304181,3.4173231784857174,0.43831081475715633,4.026962937197523,7.588816366782736
-0.06546240810707786,-1.8238172628584428,3.421706286633289,0.5141989784249836,4.3076269455251275,7.889067476070842
-0.08370058073566229,-1.7807409934031915,3.4268482764175388,0.5930896531856921,4.557774554548466,8.15241276693015
-0.10150799066969421,-1.7351632478577068,3.4327791729493957,0.6746137808549936,4.776304833239497,8.378378124991483
-0.11885962314827128,-1.6874001995253118,3.4395253107579458,0.7583975621049084,4.962500184261296,8.56708703453332
-0.1357336251435244,-1.6377751976826989,3.447109286378995,0.8440684324502415,5.11602346069137,8.719238636749774
-0.1521113771203514,-1.586614963075785,3.4555499707034976,0.9312608188177393,5.2369041512986225,8.83606957622082
-0.16797752675110925,-1.5342459215627988,3.464862578891675,1.0196215145799474,5.325514501839971,8.91930177411851
-0.18331998596673724,-1.480990776544399,3.4750587940374746,1.1088145323211325,5.382536940552544,8.971078933409986
-0.19812989373218123,-1.4271654071388735,3.486146939360686,1.1985253216552323,5.408924565653815,8.993895036308809
-0.21240154780356996,-1.3730761614823355,3.498132192577238,1.2884642720183204,5.405856703227442,8.990518309569422
-0.22613230941839332,-1.319017594450061,3.5110168352974216,1.3783694551140147,5.37469164320051,8.96391410677117
-0.23932248536289394,-1.265270678018056,3.524800529848562,1.4680085961817264,5.316918613184635,8.917169910573989
-0.2519751921430745,-1.2121014918862096,3.5394806158103793,1.5571802952874663,5.23411087289199,8.85342523355501
-0.2640962070619366,-1.1597603831572898,3.555052418763254,1.6457145476230164,5.127881534224874,8.77580864766625
-0.27569381089350947,-1.108481567815041,3.5715095642394843,1.7334726340996789,4.999843368350902,8.687383558380155
-0.28677862657165987,-1.058483134131532,3.588844290580481,1.8203464696834804,4.851573486576657,8.59110371656565
-0.2973634579129752,-1.0099673992657654,3.607047755277316,1.9062575068491368,4.684583409094269,8.48977887725719
-0.30746313190563285,-0.9631215651748227,3.6261103303458073,1.9911552956217087,4.5002946912395245,8.38605050612819
-0.3170943475573811,-0.9181186182624275,3.6460218833020246,2.0750158006829906,4.300019979751045,8.28237702475219
-0.32627553374000534,-0.875118418464917,3.6667720413088545,2.1578395709305127,4.084949132717551,8.181027784865515
-0.3350267179246545,-0.8342689271377415,3.6883504370181597,2.239649848779168,3.8561398602254493,8.084084769049127
-0.34336940719603193,-0.795707528535487,3.7107469355059512,2.320490696469659,3.6145122259971307,7.993450921379191
-0.3513264824813868,-0.7595624062755156,3.7339518424706477,2.400425205683451,3.360846287060368,7.910864002069785
-0.35892210654414197,-0.7259539434049119,3.7579560945274824,2.479533845704149,3.0957821296054773,7.837914917667851
-0.3661816459781911,-0.6949961221088572,3.782751432984524,2.5579129948808275,2.819821574439977,7.776069585270011
-0.3731316071992797,-0.6667979063644575,3.808330562933332,2.6356736907335274,2.5333308646836374,7.726693529093412
-0.37979958626292426,-0.6414645977176211,3.8346872998406676,2.7129406260244617,2.2365437023279937,7.69107856645798
-0.3862142322401005,-0.6190991606943411,3.861816706100912,2.7898514116890416,1.929564061238279,7.670471106569542
-0.3924052238470439,-0.5998035200819584,3.8897152202178025,2.866556122754737,1.612368266048423,7.666101751058293
-0.3984032590478635,-0.5836798374214741,3.9183807814453497,2.94321714026532,1.2848058849497623,7.67921604424608
-0.40424005742207825,-0.5708317785719765,3.947812952848003,3.020009300707781,0.9465990371665722,7.711106369869553
-0.40994837520779803,-0.5613657882003108,3.978013045855081,3.0971203644064764,0.5973397623208676,7.763145127096435
-0.41556203308980116,-0.5553923905771021,4.008984249499146,3.174751815677441,0.23648514019682024,7.83681944021142
-0.4211159569955722,-0.5530275391751339,4.04073176765592,3.253120010079555,-0.1366501108798283,7.93376776072293
-0.4266462323873235,-0.5543940402839322,4.073262967756715,3.332457687686784,-0.5229037843522525,8.055818803122886
-0.43219017279016286,-0.5596230781274548,4.106587544633583,3.413015875718013,-0.9232792520109336,8.205033307182026
-0.4377864035714374,-0.5688558706475642,4.140717703390763,3.495066208789833,-1.3389615227949039,8.383749124255608
-0.44347496227791305,-0.5822454858755132,4.1756683654786615,3.578903700032389,-1.7713362199826004,8.594630054319493
-0.4492974171366682,-0.5999588480753392,4.2114574024789855,3.664850000575584,-2.2220111535047136,8.840718666445323
-0.4552970056174216,-0.6221789596103863,4.248105902484741,3.7532571872400373,-2.6928397493030385,9.125492938501502
-0.46151879521352546,-0.6491073571034167,4.285638474357142,3.844512116625052,-3.185944912941989,9.452925821037251
-0.46800986878455964,-0.6809668062328366,4.324083595523392,3.939041374835425,-3.7037407832412144,9.827545551442249
-0.474819536846888,-0.7180042140652487,4.363474009271746,4.037316830349847,-4.2489480066072005,10.254492368670675
-0.4819995789875405,-0.7604936941313207,4.403847177575245,4.139861754036554,-4.824595206013878,10.739563638574833
-0.4896045159288537,-0.8087396461914595,4.445245795115611,4.247257390422302,-5.433994543458381,11.289233373600851
-0.49769191239076827,-0.8630795916260433,4.4877183690198335,4.36014972415831,-6.080671580389359,11.910622225401259
-0.5063227083070287,-0.9238863074299369,4.531319866261416,4.479255946412323,-6.768217269790951,12.611377838561848
-0.5155615713813281,-0.9915684801278465,4.5761124257255394,4.605369724797941,-7.500010086297951,13.39939913569962
-0.5254772561826065,-1.066568580990826,4.6221661229735185,4.739363716154937,-8.278724694553823,14.28229562646104
-0.5361429419925148,-1.1493558279363643,4.669559760135068,4.8821866724195475,-9.105493662706355,15.26640501225878
-0.5476365002718784,-1.240410764563428,4.718381626859264,5.034850722542135,-9.978511327603158,16.355085995407418
-0.5600406079175126,-1.3401958778394596,4.768730134084685,5.198401582496209,-10.890752536172933,17.54584145383811
-0.5734425666959072,-1.449103403201189,4.820714149909647,5.37385999703459,-11.82631383149792,18.825594519533027
-0.5879336007279191,-1.5673665415161682,4.8744527498799926,5.562115942229921,-12.754676443404826,20.16314085986271
-0.6036072661430808,-1.6949133059502164,4.930073909302291,5.763747350828548,-13.621998915635855,21.49751087357724
-0.620556399202583,-1.8311332951065749,4.987711382810577,5.97872245956432,-14.338578544389152,22.720970876738438
-0.6388677321536488,-1.9745190805504664,5.0474986074062205,6.205932168331705,-14.762416007216741,23.656408380852
-0.6586129229591534,-2.1221432406226337,5.109557929089537,6.4424962521402245,-14.68153674998199,24.032479125689985
-0.6798343553653797,-2.2689586081224538,5.173982891610939,6.682821043397125,-13.80424235476574,23.468751734342785
-0.7025239414466042,-2.407001031670111,5.24081110204491,6.917508560740552,-11.778089090984816,21.499043320066868
-0.7265939517633053,-2.5247819225799595,5.309986187652315,7.132498993941221,-8.27048154870345,17.67793963937871
-0.7518417709891049,-2.607486738066994,5.381311177591727,7.309278390335008,-3.1354350705824507,11.804464826211536
-0.7779166383697749,-2.6388410887728186,5.4544039614950774,7.427323038597123,3.373843273747893,4.208225152738071
-0.804305049257503,-2.60510265603534,5.528677191881049,7.469405290124504,10.503330168263357,-4.1158028128789015
-0.8303560758178564,-2.500069354352706,5.603371244782294,7.428247261995715,17.19257271361726,-11.77475870086121
-0.8553567693613835,-2.3281436272165337,5.677653717402252,7.310499674987103,22.523949954222463,-17.58663015911985
-0.8786382056335489,-2.102904127674309,5.750758714152123,7.134633373395904,26.09043835703671,-21.068248424196454
-0.899667246910292,-1.841999744103942,5.822105047886081,6.923950889153939,28.013055922393534,-22.442376278751798
-0.9180872443513314,-1.5618691848800066,5.891344556777621,6.699527126366421,28.698545266663857,-22.298371436509527
-0.9337059362001314,-1.2748837322133681,5.958339828041285,6.476543412001326,28.58996677499023,-21.254146205338944
-0.9464547735222651,-0.9889840644634658,6.023105262161298,6.264001949947937,28.038110439862386,-19.788544055666986
-0.9563446141668998,-0.7086029600648419,6.0857452816607776,6.066116509391267,27.276444744407918,-18.214677418624973
-0.9634306437675482,-0.43583851262076273,6.14640644675469,5.883969735205017,26.44278196777648,-16.714312765560937
-0.9677890288937558,-0.17141069294299793,6.20524614410674,5.716826607549408,25.60994004076236,-15.38198997510789
-0.9695031358231858,0.0846887074646257,6.262414410182234,5.56300670779833,24.81082925620234,-14.259902060347098
-0.9686562487485395,0.33279700002664914,6.318044477260217,5.420407687194859,24.055503475088585,-13.360961312835837
-0.965328278748273,0.5733520347775349,6.372248554132165,5.286798074066501,23.341753866136788,-12.682685401276261
-0.9595947584004977,0.8067695734389029,6.42511653487283,5.1599712200537375,22.661375264964118,-12.21505835077507
-0.9515270626661086,1.033383326088544,6.476716247073367,5.0378206365459866,22.003768589186112,-11.94475099918121
-0.9411932294052232,1.2534210119804052,6.527094453438827,4.918373126554174,21.357976544336843,-11.857247259198585
-0.9286590192854192,1.4670007774237737,6.5762781847043685,4.799800653962189,20.713821754437856,-11.937810325104387
-0.9139890115111814,1.6741389949681522,6.6242761912439905,4.680422550711145,20.06253783776036,-12.171833077132293
-0.8972476215614998,1.8747643733457557,6.671080416751102,4.558704219939822,19.397114530829985,-12.544883849562428
-0.8784999778280422,2.0687355186540555,6.7166674589505,4.433255381444198,18.712478558509513,-13.042623671602561
-0.8578126226415017,2.2558603042391505,6.761000012764942,4.302829144728173,18.00557494858582,-13.65069386219823
-0.8352540195991102,2.4359160537250086,6.804028304212224,4.16632220610619,17.275381544306708,-14.35462866218552
-0.8108948590618601,2.6086698691680756,6.845691526273286,4.022775919484335,16.522872210826655,-15.13982187637243
-0.7848081603701793,2.773898591276342,6.8859192854681295,3.8713777007206107,15.75093559413662,-15.9915609954144
-0.7570691744574158,2.9314079472177084,6.924633062475335,3.711462090766467,14.964252725687546,-16.895132371185323
-0.7277550949852387,3.081050474474584,6.961747683383,3.5425107670546137,14.169136162659184,-17.835994244734053
-0.6969445902404928,3.222741836101176,6.997172791053546,3.364150824607273,13.373334414076519,-18.80000949130977
-0.6647171718794811,3.356475180241941,7.030814299299619,3.1761507296941756,12.585807286603814,-19.77372624475762
-0.6311524200770617,3.482333253107979,7.062575806596561,2.9784134672465994,11.816479914861635,-20.744691851338906
-0.5963290875459819,3.6004980522565955,7.092359941269027,2.7709665487332105,11.075985202202647,-21.701783819211112
-0.560324107023416,3.711257904278622,7.120069606756359,2.5539487105410994,10.375405873029358,-22.63554057870188
-0.5232115279806298,3.8150119630089154,7.14560909386177,2.3275933047540804,9.726028079338905,-23.538474940911787
-0.48506140835054057,3.9122722438023043,7.168885026909311,2.0922085553449628,9.139118310360992,-24.405354051648892
-0.4459386859125175,4.003663426905915,7.18980711246276,1.8481550148284738,8.625734045842115,-25.233431159308033
-0.4059020516434584,4.089920767364336,7.208288662611045,1.5958207032353935,8.196575980719548,-26.022616216511373
-0.365002843969815,4.171886527171531,7.224246869643399,1.3355945410702796,7.861885472330061,-26.775573487153828
-0.3232839786980997,4.250505381894832,7.237602815054101,1.0678388061987414,7.631384689465189,-27.497733779668177
-0.2807789248791514,4.326819228789484,7.248281203116089,0.7928614684020596,7.514247995160432,-28.19720489405508
-0.23751073259125657,4.401961708741088,7.2562098178001095,0.5108894194615088,7.519079948225449,-28.8845536102478
-0.19349111550384568,4.477152508223343,7.261318711994725,0.2220438833590308,7.653855416711069,-29.572411777058758
-0.14871959042161226,4.553691062390453,7.263539150828315,-0.0736802344115568,7.925746237487914,-30.27482101354691
-0.10318267979770773,4.632948524765332,7.2628023484841995,-0.3764284445470259,8.340709185496548,-31.006164446102577
-0.05685319455005441,4.716355616620298,7.259038064038729,-0.6864900890080516,8.902629668820621,-31.779422873718882
-0.009689638383851423,4.805381913308504,7.252173163148649,-1.0042843177452405,9.611686051385634,-32.60331130475799
0.03836418074923362,4.90149877382236,7.242130319971197,-1.3303174307928205,10.461395269394854,-33.47756512388116
0.08737916848745722,5.006112726516308,7.228827145663268,-1.665093082031632,11.433494097144447,-34.38521669495175
0.1374402957526203,5.120447667487753,7.212176214842952,-2.0089452489811497,12.489397807036866,-35.28013017587397
0.18864477242749783,5.245341645558121,7.19208676235314,-2.3617465507398894,13.556557705599827,-36.0674883736576
0.24109818888307905,5.38090722261412,7.168469296845742,-2.7224214344764652,14.508024025941198,-36.57493865534814
0.2949072611092202,5.525987462873531,7.141245082500977,-3.0881708210299466,15.13510361283344,-36.51439203716533
0.35016713573795555,5.677338499001865,7.110363374290678,-3.4533147414016,15.118891243092788,-35.44284615131974
0.4069405207279742,5.828527411432793,7.075830226876662,-3.8077432029147973,14.021018230188988,-32.75119590806005
0.46522579484230214,5.968737593734683,7.037752794847514,-4.135255161995397,11.33894741414243,-27.7451597823886
0.5249131707796489,6.082127067876107,6.99640024322756,-4.412706759819283,6.688998953392313,-19.907210396212868
0.58573444145841,6.14901705741003,6.952273175629368,-4.611778863781412,0.12934662579388614,-9.355530301666686
0.6472246120325104,6.150310523667969,6.9061553869915535,-4.705334166798079,-7.551780838131354,2.7491205855257257
0.70872771726919,6.074792715286655,6.8591020453235725,-4.677842960942821,-14.946187281395499,14.364188891291523
0.7694756444220566,5.9253308424727,6.812323615714145,-4.534201072029906,-20.671495377083893,23.487545862296372
0.8287289528467836,5.718615888701861,6.766981604993846,-4.299325613406943,-24.06221814131006,29.14433519541078
0.8859151117338022,5.477993707288761,6.723988348859776,-4.007882261452835,-25.29461877217542,31.56904083102902
0.9406950488066899,5.225047519567006,6.683909526245247,-3.692191853142545,-24.997491790062284,31.65391091731949
0.9929455240023599,4.975072601666383,6.646987607713822,-3.37565274396935,-23.828651453039235,30.34407621105126
1.0426962500190238,4.736786087135991,6.6132310802741285,-3.072211981858837,-22.275190919753225,28.34840090882779
1.0900641108903837,4.514034177938459,6.58250896045554,-2.7887279727705594,-20.634633107319623,26.108099429817557
