th1 (rad),w1 (rad/s),th2 (rad),w2 (rad/s)
1.634132209117336,-2.088490696440532,4.168250287986223,1.0902212129973463
1.6132473021529308,-2.1944033780362004,4.179152500116197,1.0622064170517371
1.5913032683725687,-2.3030745657060243,4.189774564286714,1.029229721842582
1.5682725227155085,-2.4145525875111598,4.20006686150514,0.9912996751599308
1.544126996840397,-2.5288209257293017,4.209979858256739,0.9485282156131155
1.518838787583104,-2.645781187820878,4.21946514041287,0.9011569967642584
1.4923809757048951,-2.765234602227311,4.228476710380513,0.8495863147388099
1.464728629682622,-2.886862799872249,4.236972573527901,0.7944055129176092
1.4358600016838996,-3.0102090441345677,4.244916628657077,0.7364230921808449
1.405757911242554,-3.1346615181285173,4.252280859578886,0.6766940256700875
1.3744112960612689,-3.2594407197655735,4.259047799835587,0.6165410375301162
1.341816888863613,-3.383593378916511,4.265213210210888,0.5575659726331115
1.307980955074448,-3.5059955028623757,4.270788869937219,0.5016470146718096
1.2729210000458242,-3.625367073056839,4.275805340083937,0.450917580760743
1.236667329315256,-3.740300466146772,4.280314515891544,0.4077233993413136
1.1992643246537882,-3.8493037997669877,4.284391749884957,0.37455567910991894
1.1607712866561184,-3.9508591139733213,4.288137306676056,0.3539604153640973
1.1212626955163851,-4.043493673366636,4.291676910829697,0.34842663781075034
1.0808277587827189,-4.12586087079242,4.295161177207804,0.36025951446896154
1.0395691500747946,-4.196825451371538,4.298763772352494,0.39144729194950734
0.9976008955610792,-4.255546314573167,4.302678245271989,0.4435335849908769
0.9550454324153476,-4.301549262601275,4.3071135811218975,0.517508010397686
0.9120299397893348,-4.334781998368975,4.312288661225875,0.6137281226032386
0.868682119805645,-4.355644632552014,4.318425942451907,0.7318837220364368
0.8251256734801249,-4.364991020133101,4.325744779672272,0.8710108006683873
0.7814757632787939,-4.3640993095160345,4.334454887678956,1.029556957929069
0.7378347701836335,-4.354613801492955,4.344750457258247,1.2054937934172667
0.694288632168704,-4.338463984484255,4.35680539519242,1.3964656643512696
0.6509039923238614,-4.317769697710749,4.370770051835932,1.5999595414743233
0.6077262953467539,-4.294743096814709,4.386769647250675,1.8134785603284769
0.5647788643786068,-4.271598070086631,4.40490443285396,2.0347027371100177
0.5220628836777405,-4.250476035322016,4.42525146022506,2.261623935713382
0.4795581233245203,-4.233394130585532,4.4478676995821935,2.4926475952741125
0.437224182018665,-4.222218453507734,4.4727941755349345,2.7266596683689857
0.3950019974835876,-4.218661969553503,4.5000607722186245,2.9630624703622837
0.35281537778805255,-4.224304555689553,4.529691396922248,3.2017869075099563
0.31057233223115704,-4.240631612164221,4.561709265997347,3.443290590705456
0.26816601610951485,-4.269087709026246,4.596142171904402,3.688551881450433
0.2254751390192524,-4.311142594187649,4.633027690718906,3.9390694597364484
0.18236371307737592,-4.368368264298451,4.672418385316271,4.196876108755356
0.13868003043439142,-4.442527382413799,4.7143871464038245,4.464574516898094
0.09425475661025343,-4.535674817123996,4.759032891572805,4.745402186943804
0.048898008439013464,-4.650275071550309,4.806486913442243,5.043331783620952
0.0023952577235103675,-4.7893380611739875,4.856920231278453,5.363211450066059
-0.045498122888229506,-4.956572192945098,4.910552345779114,5.710944162253075
-0.09506384481768049,-5.15654242414651,4.967661787401645,6.093689697889819
-0.14662926905914558,-5.394790975171745,5.028598684380543,6.520032034596934
-0.20057717881086304,-5.6778036743828295,5.093799004726512,6.99995286769294
-0.2573552155546913,-6.012525657277416,5.163798533403441,7.544204992461401
-0.3174804721274655,-6.404717393784169,5.239240583328055,8.162107078188033
-0.3815276460653072,-6.854568740553417,5.320861654109935,8.855564170299765
-0.4500733334708414,-7.346525174578703,5.409417295812933,9.605066196781209
-0.5235385852166284,-7.829663456484889,5.505467957780745,10.342518769718811
-0.6018352197814774,-8.193395260139585,5.608893145477933,10.917474459463694
-0.6837691723828732,-8.277769990474958,5.71806789007257,11.111412613505173
-0.7665468722876227,-7.983498760522805,5.829182016207621,10.79057952949116
-0.8463818598928508,-7.399182571614006,5.937087811502533,10.081574128210201
-0.9203736856089908,-6.719904051826454,6.037903552784635,9.256176205086941
-0.9875727261272553,-6.077605395634008,6.130465314835504,8.496345406077632
-1.0483487800835953,-5.514519635121501,6.215428768896281,7.859483481780355
-1.1034939764348104,-5.029400024101962,6.294023603714084,7.343480719609632
-1.15378797667583,-4.608742266006546,6.367458410910181,6.929951424772223
-1.1998753993358955,-4.238294940387698,6.436757925157903,6.599948258513246
-1.2422583487397725,-3.9060332296778895,6.502757407743036,6.337902759815723
-1.2813186810365513,-3.60241797264251,6.566136435341193,6.131872839202488
-1.3173428607629765,-3.3199813547735197,6.6274551637332175,5.972897453516397
-1.3505426743107116,-3.0528486220634194,6.687184138268382,5.854279685432357
-1.3810711605313457,-2.7963466615119748,6.745726935122706,5.77099231570032
-1.4090346271464655,-2.546716928679664,6.803436858279709,5.719220237228839
-1.4345017964332623,-2.300917525179152,6.8606290606519975,5.6960113680663875
-1.4575109716850538,-2.0564956507854415,6.917589174332662,5.69900412576983
-1.4780759281929083,-1.811515113269249,6.97457921559036,5.726205395214556
-1.4961910793256008,-1.5645275434431396,7.031841269542506,5.775799943968532
-1.5118363547600322,-1.3145786482155388,7.089599268982191,5.8459786256817
-1.5249821412421876,-1.0612418209595469,7.148059055239008,5.934778564109301
-1.535594559451783,-0.8046706563556382,7.207406840880101,6.039934346691665
-1.5436412660153394,-0.5456594789034039,7.267806184347018,6.1587454780242386
-1.5490978608043733,-0.285697234165967,7.32939363912726,6.287971926759264
-1.5519548331460329,-0.02699583200484129,7.392273358394853,6.423775816763672
-1.5522247914660814,0.22752919943859856,7.456511116562489,6.561731512735647
-1.5499494994716954,0.47434782535261116,7.522128431689846,6.696925998945129
-1.5452060212181693,0.7094905313871107,7.589097691679298,6.824163748525393
-1.5381111159042982,0.9288118750689588,7.657339329164552,6.938273568662254
-1.5288229971536085,1.128324707311595,7.726722064851175,7.034490602804451
-1.5175397500804926,1.3045643024857638,7.797066970879219,7.1088607062063565
-1.504494107055635,1.454924238876671,7.868155577941282,7.1585965345558105
-1.4899448646668683,1.577902513197958,7.93974154328684,7.182314648703211
-1.4741658395348887,1.6732114460880478,8.011564689773872,7.180104804846052
-1.4574337250740081,1.7417350811938175,8.083365737822332,7.153420855911278
-1.44001637426207,1.7853524827390461,8.154899946381445,7.104823755989372
-1.4221628494346794,1.8066720921683987,8.225948183941338,7.037636203806241
-1.4040961285129954,1.808733029740139,8.2963245459794,6.955577031581865
-1.386008798215594,1.7947235470056833,8.36588031629522,6.8624327122878155
-1.3680615627455373,1.767750611632943,8.434504643418098,6.7618015163880925
-1.3503840566292078,1.7306756716016318,8.502122658581978,6.656922596107523
-1.3330772999131915,1.6860160015800267,8.568691884543053,6.550584381390326
-1.3162171398973912,1.6359013190268255,8.634197728356957,6.44509657625228
-1.299858126707123,1.5820713797248438,8.69864869411948,6.3423068770419855
-1.2840374129098746,1.5259003790051344,8.762071762889901,6.243644947647741
-1.2687784091198233,1.468436312066458,8.824508212366379,6.150179801907133
-1.2540940459991587,1.4104465139841007,8.88601001038545,6.062680841792001
-1.2399895808593178,1.3524635177722142,8.94663681880337,5.9816764277685435
-1.2264649456815957,1.294827733414462,9.006453583081056,5.90750664776431
-1.213516668347451,1.2377251710054018,9.065528649558699,5.840368885493916
-1.201139416637397,1.1812195761056754,9.123932338413638,5.78035600995969
-1.1893272208763401,1.1252790423131533,9.181735898513235,5.727487701355787
-1.1780744304532087,1.069797544618358,9.239010775526793,5.681735764630251
-1.1673764550070251,1.014612005707346,9.295828133173096,5.643044394283347
-1.1572303349499518,0.959515547043087,9.35225857711593,5.611346337912491
-1.147635179479521,0.9042675434608187,9.408372040495054,5.586575824749302
-1.1385925040449127,0.8486010307462932,9.464237798742547,5.5686790182478045
-1.1301064937374499,0.7922279327278511,9.519924588925024,5.557622641441844
-1.1221842144101715,0.7348424907952571,9.575500815339442,5.553401322303929
-1.114835789502219,0.6761232014049003,9.63103482856248,5.556044119028164
-1.1080745574881699,0.6157334994078446,9.686595269752763,5.565620613331657
-1.1019172224940914,0.5533213684498358,9.742251475886079,5.582246902420562
-1.096384008809593,0.48851801511462767,9.798073944910284,5.60609177450407
-1.0914988286584468,0.42093571213215186,9.854134862655325,5.63738331455542
-1.0872894715371253,0.35016490036607656,9.91050869580088,5.6764161504854265
-1.0837878225334645,0.275770644420815,9.967272857305735,5.723559506166411
-1.0810301160892564,0.1972885717572158,10.0245084523674,5.779266162996218
-1.079057230371684,0.1142205063222537,10.082301113997362,5.844082323525051
-1.0779150253084615,0.02603016250025217,10.140741937232612,5.91865818201594
-1.077654723683459,-0.06786045971941888,10.19992851905277,6.003758675670569
-1.0783333282806533,-0.1680728641017491,10.259966105809475,6.100273312518032
-1.0800140569216707,-0.2752701165149714,10.320968838934656,6.209222973074303
-1.0827667580868205,-0.3901479139832291,10.383061068665398,6.331759872150118
-1.0866682372266527,-0.5134131757612139,10.446378667386899,6.46915396761697
-1.0918023689842649,-0.6457410048270117,10.511070207063069,6.622754253420071
-1.098259779032535,-0.7876949625351158,10.57729774959727,6.793905423435374
-1.1061367286578863,-0.9395863832670953,10.645236803831622,6.983787782665963
-1.1155325924905573,-1.101234928626229,10.715074681658281,7.193129442045129
-1.1265449417768196,-1.2715751023782935,10.787005976078733,7.421714878831636
-1.1392606928006026,-1.4480375384016169,10.861223124867049,7.66758979823189
-1.1537410681846187,-1.625639324430319,10.937899022849368,7.925865092181905
-1.169997461428922,-1.7957952554175087,11.017157673771187,8.187121302155493
-1.187955413983097,-1.9451083782068328,11.099028886792743,8.435741943683341
-1.2074064977651653,-2.0549121819890095,11.183386306229576,8.64919756873566
-1.2279556195850554,-2.1029775832097997,11.269878281916933,8.800176708642288
-1.2489853954171535,-2.068716450401044,11.357880049003356,8.863360853592546
-1.269672559921164,-1.9410156534370466,11.446513657539281,8.82567025148227
-1.2890827164555345,-1.7240644315102458,11.534770360054104,8.693729643465668
-1.306323360770637,-1.4360091970697513,11.621707656488761,8.491697214342727
-1.3206834527413345,-1.101063892298007,11.706624628632188,8.250532302046732
-1.3316940916643145,-0.74124782897916,11.789129951652654,7.997128090011551
-1.339106569954106,-0.3723449169749753,11.86910123255277,7.74932729184732
-1.3428300191238558,-0.003872098985572725,11.946594505471245,7.516280008217979
-1.3428687401137116,0.3592197551426531,12.021757305553425,7.3009613900446055
-1.339276542562285,0.7147526403661161,12.094766919453871,7.102663144746424
-1.332129016158624,1.062011982009067,12.165793550901336,6.918749894626101
-1.3215088963385333,1.4009353093379393,12.234981049847597,6.745715301676999
-1.307499543245154,1.7316569298789193,12.302438202864368,6.579760417151138
-1.2901829739463648,2.054273567211174,12.368235807035878,6.417090623143247
-1.269640238274253,2.3687385977400157,12.43240671326731,6.254061018815408
-1.245952852296853,2.6748292687176467,12.494947323455465,6.087246211432959
-1.2192045596096766,2.9721553602179602,12.555819785569794,5.913475868930179
-1.189483006007497,3.260191836961436,12.614954544259096,5.729857127650439
-1.1568810876378826,3.538325743533967,12.6722531155356,5.53379353454477
-1.121497830202543,3.8059115859113932,12.727591050881047,5.323003854670299
-1.083438714343429,4.062331375454955,12.78082108942775,5.095540556434949
-1.0428154005888794,4.307056371645329,12.8317764949921,4.84980587370561
-0.9997448368724262,4.5397079205202955,12.880274553729157,4.584562396186119
-0.9543477576672232,4.7601149829157565,12.926120177691018,4.298934833853904
-0.9067466078380657,4.968366174443623,12.969109526029557,3.9923997726172806
-0.8570629460936294,5.164854500582917,13.00903352375573,3.6647607918747753
-0.8054144010878003,5.350313501207891,13.04568113167448,3.3161071795043777
-0.7519112660757213,5.525844198367506,13.078842203469524,2.946755590399917
-0.6966528240920463,5.692932992751065,13.108309759373522,2.55717529374796
-0.6397234941645357,5.8534613391693755,13.133881512311001,2.1478991189338332
-0.5811888807728419,6.009708427617821,13.15536050350034,1.7194239084619405
-0.5210917964966637,6.16434785111356,13.172554742584959,1.2721064820619654
-0.4594483179855281,6.320437767259192,13.185275807405578,0.8060644535857386
-0.3962439403129362,6.4814003246673,13.193336451941436,0.3210970780933587
-0.3314299370662632,6.650978239663844,13.19654742272237,-0.18334769666204148
-0.2649201546696248,6.833140883613237,13.19471394575575,-0.7081126401640687
-0.19658874583349245,7.031882783993448,13.187632819354109,-1.2540894859164031
-0.12626991799355797,7.25080356004649,13.175091924494945,-1.8216342223303665
-0.053761882393093055,7.492265870969067,13.156875582271642,-2.409350155661538
0.021160776316597615,7.755790747637298,13.132782080715026,-3.011761475846204
0.0987186837929706,8.035221181038034,13.102664465956565,-3.615230560335526
0.17907089560335093,8.314336955371317,13.06651216035321,-4.191711619274652
0.2622142651570641,8.561829896318693,13.024595044160463,-4.691709694920849
0.34783256412025104,8.730065701805756,12.977677947211255,-5.042841772167869
0.4351332211383086,8.766590076987816,12.927249529489577,-5.166817985230615
0.5227991219081868,8.642499097824576,12.87558134963727,-5.020658112822729
0.6092241128864325,8.37752659477685,12.825374768509043,-4.633203874381258
0.692999378834201,8.030017841245673,12.77904272976523,-4.091088609279565
0.7732995572466578,7.660478140191042,12.738131843672434,-3.4861018933859644
0.8499043386485682,7.307765661224583,12.703270824738574,-2.8799590029639206
0.922981995260814,6.988687605871469,12.674471234708935,-2.302665906960546
0.9928688713195287,6.706625431685552,12.65144457563933,-1.7643630593846025
1.0599351256363843,6.458800698184081,12.633800945045484,-1.26565789035032
1.124523132618225,6.240299453355516,12.621144366141982,-0.8034998516721088
1.1869261271517801,6.045897482899116,12.613109367625261,-0.3739384257782577
1.2473851019807713,5.870766471775117,12.609369983367479,0.026747047490646436
1.3060927666985225,5.71068306949597,12.609637453842385,0.4016672373974201
1.3631995973934823,5.562039141306678,12.613654126216359,0.7532614813858973
1.4188199888065491,5.421784113150147,12.621186741030218,1.0833602208673239
1.4730378299380507,5.287352995222028,12.632020343238892,1.3932870916460078
1.525911359890271,5.156599843482192,12.645953214155352,1.6839660798409368
1.577477358325093,5.0277422258204885,12.66279287495376,1.9560205810778275
1.627754780583298,4.89931665501784,12.682353080764539,2.2098601539820883
1.6767479471334763,4.770143024357705,12.70445168230436,2.4457542985996255
1.7244493773770533,4.639295688303949,12.728909225290355,2.663893851728352
1.7708423342600927,4.506079041268736,12.755548163807639,2.864440949127928
1.8159031246727801,4.370005863439647,12.784192573298919,3.047568547910758
1.8596031833071767,4.230777154846437,12.814668258778026,3.2134904692951634
1.901910954855641,4.08826259734779,12.846803163470977,3.3624828957715813
1.9427935808291188,3.9424811418784884,12.880427992428693,3.4948982552358068
1.9822183922479037,3.793581506863693,12.91537697498105,3.6111724403285974
2.0201542073165406,3.64182259364328,12.951488699384337,3.711826330011708
2.0565724332529736,3.487553980842539,12.988606962684454,3.7974625895129512
2.091447973061399,3.331196758921909,13.026581588579583,3.8687587154759537
2.1247599406506184,3.173225016817322,13.065269175734343,3.9264572611885944
2.1564921908187915,3.014148303251804,13.10453374834623,3.971354121630907
2.1866336738513095,2.85449536452493,13.14424728956254,4.0042856820205595
2.2151786274965586,2.694799416584371,13.184290146382745,4.026115540559471
2.2421266216624023,2.5355851496097737,13.22455130178834,4.037721411193144
2.2674824731585,2.3773575951413752,13.264928515900271,4.039982700749275
2.291256049109914,2.2205929150744073,13.305328342907764,4.033769142105563
2.313461978260658,2.0657311037671664,13.34566603432882,4.019930755904436
2.3341192892983296,1.9131705331638025,13.385865341887865,3.9992893119526136
2.353250994629968,1.7632642191669736,13.425858235007391,3.9726313711048107
2.3708836368216377,1.6163176473193175,13.46558454871844,3.9407029114260195
2.387046813294831,1.4725879678875569,13.5049915778327,3.904205480017002
2.401772692973706,1.3322843544521128,13.54403363263287,3.863793764350348
2.415095536518227,1.1955693150797855,13.582671570276373,3.820074443713643
2.427051229669025,1.0625607495379872,13.620872314713509,3.773606161117412
2.437676837164405,0.9333345579146515,13.658608376324683,3.7249004470397122
2.4470101827435515,0.8079276234466497,13.69585738079508,3.6744234266114217
2.455089458978018,0.6863410134067192,13.732601615061194,3.6225981491747423
2.461952869112085,0.5685432648287915,13.768827596552942,3.56980739151983
2.467638301760373,0.45447364522154243,13.80452567046814,3.5163968016512177
2.4721830382125884,0.34404530111068804,13.839689638484652,3.462678267040578
2.475623491223695,0.23714822847061628,13.874316421155058,3.408933408652973
2.4779949735084013,0.13365201837034163,13.908405755241587,3.355417118539979
2.4793314936921047,0.03340834825125588,13.941959926426987,3.302361073681286
2.479665577174617,-0.06374679581755181,13.9749835371638,3.2499771714481818
2.4790281092164417,-0.15799116761020257,14.007483308878282,3.198460842144607
2.4774481975403395,-0.2495145703485386,14.039467917299728,3.147994201254175
2.474953051836854,-0.3385174077780219,14.07094785931227,3.0987490080468363
2.4715678777590737,-0.4252094477060425,14.101935349392738,3.05088939785541
2.467315783282013,-0.5098087598086749,14.132444243371292,3.004574352377033
2.4622176956839263,-0.5925407798861828,14.162489986895062,2.9599598654955166
2.4562922878850646,-0.6736374420529601,14.192089585550018,2.9172007510044007
2.449555913464535,-0.7533363079535791,14.221261593060062,2.876452022833409
2.442022550384999,-0.8318796074112483,14.250026113288396,2.837869757535124
2.4337037543108866,-0.9095130874591366,14.278404810863746,2.801611322563222
2.424608623436295,-0.98648454624218,14.306420924089378,2.767834822240946
2.4147437779738734,-1.063041905029202,14.334099272311787,2.7366975768477246
2.4041133589235812,-1.1394306465649973,14.361466248080264,2.708353410604852
2.3927190524579314,-1.2158904235558223,14.388549782186313,2.68294848501613
2.380560148222373,-1.2926506215948879,14.415379267036474,2.6606153813998383
2.367633642006424,-1.3699246536565812,14.441985420850473,2.6414651211700666
2.3539343954698584,-1.447902779851002,14.468400072062174,2.6255768309532086
2.3394553676713485,-1.5267433029112576,14.494655840371706,2.612984835677282
2.324187934642236,-1.606562108689705,14.520785688728479,2.6036631277712887
2.3081223135553386,-1.6874207274262505,14.546822320006191,2.5975074516594328
2.291248106281076,-1.7693134103604944,14.572797394522786,2.5943156957454607
2.273554972177471,-1.8521541606679768,14.59874055148024,2.593767919148086
2.255033430570791,-1.9357652122187796,14.624678230671721,2.5954081371023086
2.2356757784486034,-2.0198690463913986,14.650632312042744,2.5986308524384376
2.2154770879846892,-2.1040865325211127,14.676618620567128,2.602676048359568
2.194436222659478,-2.187943944778631,14.702645381050724,2.6066366282222626
2.1725567832116917,-2.2708911701086962,14.728711747332946,2.60948170559254
