th1 (rad),w1 (rad/s),th2 (rad),w2 (rad/s),a1 (rad/s^2),a2 (rad/s^2)
0.3872568266283976,-1.0202987403102732,3.6427305554834915,1.0152685714989993,-2.6891571885780374,2.154710423704724
0.3770538392252949,-1.0471903121960535,3.6528832411984813,1.0368156757360465,-2.4194422007635463,2.5442582907716274
0.36658193610333434,-1.071384734203689,3.663251397955842,1.0622582586437628,-2.1481122304252143,2.9384861330788623
0.35586808876129744,-1.0928658565079412,3.6738739805422793,1.0916431199745513,-1.8773710800404206,3.3348792566434255
0.34493943019621803,-1.1116395673083455,3.684790411742025,1.1249919125409855,-1.609584761039175,3.7307254459099495
0.33382303452313455,-1.1277354149187373,3.6960403308674348,1.162299167000085,-1.347249105515206,4.123167031938578
0.3225456803739472,-1.1412079059738893,3.7076633225374356,1.2035308373194709,-1.0929505036658016,4.50926252137591
0.3111336013142083,-1.1521374110105473,3.71969863091063,1.24862346253323,-0.8493206078937635,4.886056272250783
0.29961222720410285,-1.160630617089485,3.7321848655359626,1.2974840252557378,-0.6189862782335556,5.250654091046718
0.288005921033208,-1.1668204798718205,3.74515970578852,1.349990566166205,-0.40451645611457776,5.600302074804802
0.27633771623448977,-1.1708656444329661,3.7586596114501822,1.405993586914253,-0.20836800538182382,5.932465589758832
0.2646290597901601,-1.1729493244867844,3.772719547319325,1.4653182428118414,-0.032832811338656315,6.244905019275958
0.2528995665452923,-1.173277652600171,3.7873727297474433,1.527767293004601,0.12001145472761975,6.535744873676297
0.24116679001929056,-1.1720775380528947,3.8026504026774894,1.5931247417413639,0.2483445416862466,6.803533060237341
0.2294460146387616,-1.1695940926360322,3.8185816500949032,1.6611600723437372,0.3506386458847892,7.047287567071418
0.2177500737124013,-1.1660877061771844,3.8351932508183406,1.7316329480144514,0.4256834878614576,7.26652849635937
0.20608919665062944,-1.1618308712985699,3.8525095802984852,1.804298232978045,0.4726001816096179,7.4612942409835465
0.19447088793764375,-1.1571048694824737,3.8705525626282657,1.8789111753878804,0.49084324913286886,7.632141562589185
0.18289983924281902,-1.152196436991145,3.8893416743821447,1.9552325910137722,0.4801907828152888,7.780130313892613
0.17137787487290757,-1.1473945291629921,3.9088940002922823,2.033033894152698,0.44072338872036787,7.906794466555714
0.15990392958127764,-1.1429872952757885,3.929224339233809,2.1121018388182553,0.3727930985752975,8.014101879980878
0.14847405662851976,-1.1392593642900355,3.9503453576219916,2.192242857618064,0.27698386995723123,8.104405816625778
0.1370814629856194,-1.1364895255904632,3.9722677861981723,2.273286915784322,0.15406557137397328,8.18039154223687
0.12571656772971476,-1.1349488698767236,3.9950006553560153,2.3550908312066907,0.0049434578920071175,8.24502143941809
0.11436707903094753,-1.1348994352978035,4.018551563668082,2.4375410456008715,-0.16939491189974756,8.301481931526363
0.1030180846779695,-1.136593384416801,4.042926974124091,2.520555864916135,-0.36793356572861896,8.35313520378268
0.09165215083380149,-1.1402727200740872,4.0681325327732525,2.6040872169539617,-0.5896813747806716,8.403478276334042
0.08024942363306062,-1.146169533821894,4.094173404942792,2.688121999717302,-0.8337236283392703,8.456111491966782
0.06878772829484167,-1.1545067701052867,4.121054624939965,2.77268311463697,-1.0992713068041833,8.514717989316944
0.057242660593788804,-1.1654994831733285,4.1487814560863345,2.8578302945301393,-1.385707873465961,8.583055292780617
0.045587665762055515,-1.1793565619079882,4.177359759031636,2.9436608474579455,-1.6926338285461546,8.664959803222537
0.03379410014297563,-1.1962829001934498,4.206796367506215,3.030310445490171,-2.0199096590139534,8.764364746194227
0.021831271141041133,-1.2164819967835894,4.237099471961117,3.1179540929521132,-2.3676981659262624,8.885332041080227
0.00966645117320524,-1.240158978442852,4.2682790128906385,3.2068074133629154,-2.736507455461551,9.0320985983318
-0.00273513861122328,-1.2675240529974674,4.300347087024267,3.2971283993462333,-3.12723614217689,9.20913772564835
-0.015410379141197954,-1.2987964144192363,4.33331837101773,3.3892197766027166,-3.5412225348223627,9.421236610881278
-0.02839834328539032,-1.33420863976746,4.367210568783757,3.4834321427115293,-3.98029975181848,9.673591220947202
-0.04174042968306492,-1.3740116372856448,4.402044890210872,3.5801680549210015,-4.446858826152859,9.971920364878699
-0.05548054605592137,-1.4184802255471733,4.437846570760082,3.6798872585697886,-4.943921860511828,10.32260103467094
-0.06966534831139311,-1.4679194441522916,4.47464544334578,3.783113268916498,-5.475227083869721,10.732827317379632
-0.08434454275291603,-1.5226717149909887,4.5124765760349455,3.8904415420902945,-6.045327049520158,11.210794909301613
-0.09957125990282592,-1.5831249854861904,4.551380991455848,4.002549491183311,-6.659699847323054,11.765912091685234
-0.11540250975768783,-1.649721983959421,4.591406486367681,4.120208612100163,-7.324870434513653,12.409035098598968
-0.13189972959728205,-1.7229706883045575,4.632608572488683,4.244298963086153,-8.048533854272039,13.152719577422072
-0.14912943648032762,-1.803456026847278,4.6750515621195445,4.375826158860374,-8.839662109985897,14.011467503820858
-0.1671639967488004,-1.891852647947137,4.718809823708148,4.515940833898583,-9.70855801581185,15.001925364551834
-0.18608252322827176,-1.9889382281052554,4.763969232047134,4.665960087544101,-10.666785647120598,16.142945401239853
-0.20597190550932432,-2.0956060845764615,4.810628832922575,4.827389541556499,-11.726845850322224,17.455340453971193
-0.22692796635508894,-2.2128745430796837,4.85890272833814,5.001942946096212,-12.90135486022474,18.961014353378317
-0.2490567117858858,-2.341888091681931,4.908922157799101,5.191553089629995,-14.201286238744027,20.680880742832205
-0.2724755927027051,-2.4839009540693713,4.960837688695401,5.398361897058317,-15.632486540910177,22.630503112565037
-0.29731460224339884,-2.640225819478473,5.014821307665984,5.624666928183967,-17.189072281698778,24.811554492849336
-0.3237168604381836,-2.812116542295461,5.071067976947823,5.872782473112461,-18.8413291007412,27.19581773560259
-0.3518380258611382,-3.000529833302873,5.129795801678948,6.144740650468487,-20.514289790904833,29.69640797460931
-0.38184332419416694,-3.2056727312119215,5.191243208183633,6.44170473021458,-22.051611127836974,32.11864463582422
-0.41390005150628617,-3.426188842490291,5.255660255485779,6.762891176572822,-23.159593972093987,34.08310773801354
-0.4481619399311891,-3.657784782211231,5.323289167251507,7.103722253952958,-23.334388853277577,34.924421448017824
-0.4847397877533014,-3.8911286707440067,5.394326389791036,7.452966468433136,-21.80614982836554,33.6114361343789
-0.5236510744607414,-4.109190169027662,5.468856054475368,7.789080829776925,-17.605653662877256,28.83369484612617
-0.5647429761510181,-4.2852467056564345,5.546746862773137,8.077417778238187,-9.943820863370304,19.51725074640519
-0.6075954432075824,-4.384684914290138,5.627521040555519,8.27259028570224,1.0081107465300252,5.8917650455105965
-0.6514422923504838,-4.374603806824838,5.710246943412541,8.331507936157346,13.44505850716711,-9.591834638626677
-0.6951883304187322,-4.240153221753166,5.793562022774114,8.23558958977108,24.46044473317048,-23.00643283292975
-0.7375898626362638,-3.9955487744214615,5.875917918671824,8.005525261441782,31.844173102826126,-31.418836098992934
-0.7775453503804785,-3.6771070433932,5.955973171286242,7.691336900451853,35.27803897793315,-34.49640675055672
-0.8143164208144105,-3.3243266536138685,6.032886540290761,7.346372832946286,35.81223272097279,-33.745816773116225
-0.8475596873505491,-2.9662043264041404,6.106350268620224,7.008914665215124,34.73975210228157,-30.95882416702155
-0.8772217306145905,-2.6188068053813245,6.176439415272375,6.699326423544909,33.000642134537095,-27.412996339196674
-0.9034097986684038,-2.2888003840359534,6.243432679507824,6.425196460152942,31.124978378804638,-23.81374122565702
-0.9262978025087633,-1.977550600247907,6.3076846441093535,6.187059047896372,29.362466863679305,-20.483517229082025
-0.9460733085112423,-1.683925931611114,6.369555234588317,5.982223875605552,27.807486413875193,-17.53742564241613
-0.9629125678273535,-1.405851067472362,6.429377473344372,5.80684961918139,26.478172731497512,-14.992124504185043
-0.9769710785020771,-1.141069340157387,6.487445969536187,5.6569283741395395,25.358936863605287,-12.823307731481492
-0.988381771903651,-0.8874799715213342,6.544015253277582,5.528695296824725,24.421436050156363,-10.993383966477639
-0.9972565716188643,-0.6432656110197705,6.599302206245829,5.418761457159948,23.634270361764585,-9.463791915605155
-1.0036892277290619,-0.40692290740212467,6.653489820817429,5.324123538003897,22.967132031291236,-8.199873185262492
-1.007758456803083,-0.1772515870892123,6.706731056197468,5.2421248061512715,22.39234370623138,-7.172304181960503
-1.0095309726739752,0.046671849973101504,6.75915230425898,5.170401764331666,21.88523019663751,-6.3570237605916216
-1.009064254174244,0.26552415193947665,6.810856321902297,5.10683152672575,21.424015648168233,-5.734566297176009
-1.0064090126548493,0.47976430842115897,6.861924637169555,5.04948586375399,20.989568181062403,-5.289213995210727
-1.0016113695706377,0.689659990231783,6.912419495807095,4.996593723801882,20.56513466107506,-5.008147851663655
-0.9947147696683198,0.8953113368425336,6.962385433045114,4.946512245285246,20.136122070016796,-4.8806686793348
-0.9857616562998945,1.0966725575427017,7.011850555497967,4.897705558491897,19.689940957389105,-4.897511842238853
-0.9747949307244675,1.2935719671165926,7.060827611082885,4.848730440069509,19.21590734202716,-5.05025989604846
-0.9618592110533016,1.4857310405368642,7.109314915483581,4.798227841109024,18.705190937871286,-5.330850649558447
-0.947001900647933,1.672782949915577,7.157297193894671,4.7449193346134395,18.15079433713797,-5.731176786159724
-0.9302740711487772,1.8542908932869568,7.204746387240805,4.687607566751843,17.547547286882452,-6.242773511953212
-0.9117311622159077,2.029766366155781,7.2516224629083235,4.625179831632311,16.89210128425892,-6.856591067151452
-0.8914334985543498,2.1986873789983705,7.2978742612246466,4.556613920960796,16.18291183945425,-7.562848681472221
-0.8694466247643662,2.360516497392913,7.343440400434255,4.480985434146074,15.420198591496266,-8.350965542613194
-0.845841459790437,2.5147184833078757,7.388250254775715,4.397475778719942,14.605876740340356,-9.209562753216131
-0.8206942749573582,2.6607772507112792,7.432225012562915,4.305380151187781,13.743456689307084,-10.126528410983422
-0.7940865024502455,2.7982118176043502,7.475278814074793,4.204114867077947,12.837912061340159,-11.089136249461443
-0.766104384274202,2.926590938217752,7.517319962745573,4.0932235045833325,11.8955190551186,-12.084207080056121
-0.7368384748920245,3.045546128768938,7.558252197791406,3.9723814337827714,10.923672194413259,-13.098301827418116
-0.7063830136043351,3.1547828507130706,7.597976012129234,3.84139841550859,9.930682752204834,-14.11793534013798
-0.6748351850972044,3.254089678235119,7.636389996284319,3.70021906210721,8.925566490436077,-15.129801300559816
-0.6422942883148532,3.34334534313948,7.673392186905391,3.548921049101612,7.917826975088944,-16.121000209804457
-0.6088608348834584,3.4225236128903695,7.708881397396407,3.3877110470035676,6.917239844471682,-17.079264244345936
-0.5746355987545547,3.4916960113350863,7.7427585078664425,3.2169184045601082,5.9336423273111185,-17.993174403195415
-0.5397186386412038,3.5510324346081976,7.774927691912043,3.036986660528154,4.976731325175308,-18.852366485066504
-0.5042083142951219,3.6007997478599507,7.805297558517324,2.848462995677489,4.055872724606133,-19.64772287968734
-0.4682003168165224,3.641358475106012,7.833782188474099,2.6519857668806157,3.1799244093047796,-20.3715469275158
-0.4317867320654623,3.67315771919906,7.860302046142905,2.4482702976054576,2.357075688320884,-21.0177158759121
-0.3950551548734717,3.696728476082269,7.8847847491189595,2.2380931388463368,1.594706402208027,-21.581807556825396
-0.35808787011264903,3.712675540104349,7.907165680507423,2.022275063278083,0.8992695843645027,-22.061195222500157
-0.32096111471160554,3.7216682359479942,7.927388431140204,1.8016631110530812,0.2762019729574741,-22.455104877070323
-0.2837444323521256,3.724430255677569,7.945405062250735,1.577112062282378,-0.2701333483801344,-22.764630206260506
-0.2465001297953499,3.7217289221937673,7.961176182873559,1.3494657602197728,-0.7364685093533644,-22.99270193928735
-0.20928284057341223,3.7143642371002334,7.974670840475757,1.1195387408268993,-1.1206141678255934,-23.144011082130696
-0.1721391982024099,3.7031580954219776,7.985866227884026,0.8880986300055923,-1.4214038892994691,-23.224888659316797
-0.13510761724819012,3.688944056528983,7.994747214184082,0.6558497434124243,-1.6386009679219948,-23.2431479788858
-0.09821817668290028,3.672558046849763,8.001305711618206,0.42341826362356627,-1.7727711773307449,-23.20789852594702
-0.06149259621440265,3.654830335076456,8.005539894254442,0.19133927836409606,-1.8251268147954836,-23.129342961989234
-0.02494429286363809,3.636579066928501,8.007453287038082,-0.039954151255796294,-1.7973488133552418,-23.018570034881428
0.01142149780564692,3.618605578794949,8.007053745525525,-0.27013985160461057,-1.6913945156914867,-22.887356311509876
0.04760755359359641,3.6016916336380342,8.004352347009478,-0.49901341471970934,-1.5092989303716677,-22.74798850225993
0.08362446992997676,3.5865986443343174,7.999362212862281,-0.7264932997423086,-1.2529770654351782,-22.613115829575523
0.11949045637331993,3.5740688736799657,7.992097279864858,-0.9526244580380638,-0.9240345359230362,-22.495638500583002
0.1552311451101196,3.5648285283207355,7.982571035284477,-1.1775808430438939,-0.5235934951813017,-22.40863388578236
0.19087943039332694,3.5595925933689223,7.970795226854038,-1.4016671819017175,-0.052141640269888476,-22.36531625756612
0.22647535632701615,3.5590711769662233,7.9567785550350205,-1.6253203444773787,0.49058556901267913,-22.379018255853122
0.2620660680966784,3.56397703265635,7.940525351590247,-1.84911052703591,1.105674018428689,-22.46317128403976
0.2977058384232419,3.5750337728406367,7.922034246319888,-2.0737422398763075,1.795025743022488,-22.631245356719752
0.33345617615164824,3.5929840302708618,7.901296823921125,-2.300054693443505,2.5612356901725177,-22.896582330313667
0.36938601645435687,3.618596387172587,7.87829627698669,-2.529020516746642,3.407275680543551,-23.27201297870012
0.40557198032608277,3.6526691439780223,7.853006071819224,-2.761740646533643,4.335858826983546,-23.769076729135367
0.442098671765863,3.696027732247858,7.825388665353888,-2.999431413824997,5.348272174330974,-24.39654535006982
0.47905894908834157,3.7495104539911677,7.795394351215638,-3.243396867325695,6.442327830693209,-25.15776242505853
0.5165540536282532,3.8139337322981,7.7629603825423805,-3.49497449157628,7.608869690839998,-26.046015510271733
0.5546933909512343,3.8900224292064998,7.7280106376266176,-3.7554346466789976,8.825964119242911,-27.036728735861736
0.5935936152432992,3.978282070398929,7.690456291159828,-4.025801934037615,10.04951686621337,-28.07472380387116
0.6333764359472885,4.078777239061063,7.650198271819452,-4.306549172076326,11.19875183163906,-29.054362354048532
0.6741642083378991,4.190764757377454,7.607132780098689,-4.5970927956168115,12.135303814045951,-29.79080634978937
0.7160718559116737,4.3121177955179135,7.56116185214252,-4.895000859114705,12.637045062708543,-29.98390301768947
0.7591930338668528,4.438488246144999,7.512211843551373,-5.1948398892916,12.375115024780886,-29.186406279355072
0.8035779163283028,4.562239396392808,7.460263444658457,-5.486703952085151,10.918783403031386,-26.810741593157076
0.8492003102922309,4.671427230423122,7.405396405137606,-5.754811368016721,7.816051157888918,-22.240945803213116
0.8959145825964621,4.749587742002011,7.347848291457439,-5.977220826048852,2.802428130712164,-15.122636454300128
0.9434104600164822,4.777612023309133,7.28807608319695,-6.128447190591854,-3.888800838869924,-5.7931995244725725
0.9911865802495735,4.738724014920433,7.2267916112910315,-6.1863791858365795,-11.334434857937246,4.454781379449689
1.0385738203987778,4.625379666341061,7.164927819432665,-6.141831372042082,-18.166804180798096,13.721268911866243
1.0848276170621884,4.44371162453308,7.103509505712244,-6.00461868292342,-23.233515211114277,20.42046035746015
1.1292647333075192,4.211376472421937,7.04346331888301,-5.800414079348818,-26.124055719790174,24.009068117917575
1.1713784980317385,3.9501359152240347,6.985459178089521,-5.5603233981696425,-27.13434645265622,24.926941068677305
1.210879857183979,3.6787924506974727,6.929855944107825,-5.311053987482869,-26.87003773637265,24.03769391989494
1.2476677816909536,3.4100920733337463,6.876745404232996,-5.07067704828392,-25.904842064028227,22.15207522097381
1.281768702424291,3.151043652693464,6.826038633750157,-4.849156296074182,-24.64563423617948,19.842643154105236
1.3132791389512257,2.9045873103316695,6.777547070789415,-4.65072986453313,-23.335491584134825,17.450794142253358
1.3423250120545425,2.671232394490321,6.731039772144084,-4.476221923110596,-22.10138169875203,15.155042811697566
1.3690373359994457,2.4502185775028007,6.686277552912978,-4.32467149499362,-20.999822613849805,13.035597490698947
1.3935395217744737,2.240220351364303,6.643030837963042,-4.19431552008663,-20.04852055648335,11.118868887840692
1.4159417252881168,2.0397351457994692,6.601087682762175,-4.083126831208223,-19.245446470365373,9.404217480665022
1.4363390767461115,1.8472806810958156,6.560256414450093,-3.989084656401573,-18.579480280169882,7.878842296747542
1.4548118835570696,1.6614858782941166,6.520365567886077,-3.9102962334340976,-18.03603132001047,6.525630533882324
1.4714267423400107,1.481125565094012,6.481262605551736,-3.8450399280952743,-17.5998464265038,5.327078294657574
1.4862379979909508,1.305127100828974,6.4428122062707835,-3.7917691451486983,-17.256304473862983,4.2671017307389265
1.4992892689992405,1.1325640560903443,6.404894514819296,-3.749098127841309,-16.991922908694455,3.33175095917873
1.510614909560144,0.9626448270033997,6.367403533540883,-3.715780618249522,-16.794470205506425,2.5093737578146627
1.5202413578301779,0.7947001249483354,6.330245727358387,-3.6906868806713753,-16.65289391947306,1.7905181595309574
1.5281883590796612,0.6281711857536049,6.293338858551674,-3.6727816990760656,-16.557173890780547,1.1677232273861091
1.5344700709371972,0.4625994468457994,6.256611041560913,-3.6611044668022044,-16.498156506974944,0.635272535793734
1.5390960654056551,0.29761788177605,6.219999996892891,-3.654751741444267,-16.467397524155995,0.1889454435443514
1.5420722442234156,0.13294390653449,6.183452479478449,-3.6528622870088236,-16.45702611069671,-0.17421918290910687
1.5434016832887605,-0.03162635457247709,6.14692385660836,-3.6546044788379146,-16.45963516443604,-0.45614237688405457
1.5430854197430357,-0.1962227062168375,6.110377811819982,-3.6591659026067553,-16.468199135609517,-0.6579079903059338
1.5411231926808673,-0.36090469757293264,6.073786152793914,-3.6657449825098145,-16.47601871309995,-0.7799514136651577
1.537514145705138,-0.5256648847039321,6.037128702968816,-3.673544496646466,-16.476690807692627,-0.8222367738483535
1.5322574968580986,-0.6904317927808584,6.000393258002351,-3.6817668643849495,-16.464101766884053,-0.7844248903413132
1.52535317893029,-0.855072810449699,5.963575589358501,-3.6896111132883624,-16.432441413302037,-0.6660334963978918
1.5168024508257931,-1.0193972245827194,5.926679478225617,-3.6962714482523413,-16.37623519010068,-0.4665903127529488
1.5066084785799658,-1.1831595764837262,5.889716763743094,-3.7009373513798707,-16.290391382864332,-0.18577864184164353
1.4947768828151287,-1.3460634903123694,5.852707390229295,-3.702795137798287,-16.170260078839316,0.17642566973672144
1.481316247912005,-1.5077660911007627,5.815679438851312,-3.70103088110092,-16.011700258637045,0.6196276984386413
1.4662385870009973,-1.6678830936871332,5.778669130040303,-3.6948346041165334,-15.81115124308979,1.142899553501636
