th1 (rad),w1 (rad/s),th2 (rad),w2 (rad/s)
2.1902020286894,-0.14039003496102306,6.0018764949121906,-0.8841079576063622
2.1887981283397897,-0.24360330562570043,5.993035415336127,-0.9376750076161897
2.1863620952835325,-0.34717051718032593,5.9836586652599655,-0.9909216115959316
2.182890390111729,-0.4510579965261191,5.973749449144006,-1.0436132587115658
2.1783798101464678,-0.555228791674898,5.96331331655689,-1.09551499221621
2.172827522229719,-0.6596422188434414,5.9523581666347285,-1.1463908791826982
2.1662311000412844,-0.7642533985627221,5.940894257842902,-1.1960034513568238
2.158588566055657,-0.8690127833657484,5.928934223329334,-1.2441131204800167
2.1498984382219994,-0.9738656798675689,5.916493092124534,-1.2904775722314195
2.140159781423324,-1.0787517686797798,5.903588316402219,-1.3348511442433586
2.129372263736526,-1.1836046266643658,5.890239804959785,-1.3769841955187265
2.1175362174698824,-1.2883512575799356,5.876469963004598,-1.416622477080395
2.104652704894083,-1.3929116392531442,5.862303738233794,-1.4535065168510557
2.0907235885015516,-1.4971982980540925,5.847768673065283,-1.4873710356117302
2.0757516055210106,-1.601115924684477,5.832894962709165,-1.5179444153991548
2.0597404462741657,-1.704561049094331,5.817715518555174,-1.5449482468108064
2.0426948357832226,-1.8074217966867423,5.802266036087065,-1.5680969872661552
2.024620617816355,-1.909577752764937,5.786585066214403,-1.5870977681230214
2.0055248402887056,-2.0108999672811922,5.770714088533174,-1.6016503943757179
1.9854158406158937,-2.1112511371517435,5.754697584589416,-1.6114475860651007
1.9643033292443763,-2.210486008414228,5.738583108728765,-1.616175514984151
1.942198469160234,-2.308452044940439,5.722421353578923,-1.6155146931071316
1.9191139487108297,-2.404990413795489,5.706266206647852,-1.6091412696120282
1.8950640445728748,-2.4999373390769413,5.690174793951732,-1.5967287904896978
1.8700646711821054,-2.593125875513576,5.674207506046835,-1.5779504675355513
1.8441334124269697,-2.6843881495405073,5.658428001371479,-1.552481990969042
1.8172895309315646,-2.773558108282316,5.642903181461788,-1.5200049010554801
1.7895539498487414,-2.860474805233078,5.627703132451233,-1.4802105081397954
1.7609492017964106,-2.9449862349680798,5.612901027369835,-1.4328043170265619
1.7314993394467297,-3.026953707815483,5.59857298419957,-1.3775108707881543
1.7012298023685748,-3.106256729374925,5.584797875491688,-1.3140788817370455
1.6701672350748256,-3.1827983200178656,5.571657086674318,-1.2422864652735683
1.638339251874647,-3.2565106776935444,5.559234222021582,-1.1619462384791748
1.6057741450977114,-3.327361055940411,5.54761475963679,-1.0729099935795954
1.5725005345383074,-3.395357701175944,5.536885659700994,-0.9750726115487371
1.538546957526548,-3.460555672926658,5.527134933585507,-0.868374848466651
1.5039414007972813,-3.523062361789275,5.51845118510084,-0.7528046119913321
1.4687107771793886,-3.5830425265696992,5.510923138980927,-0.6283963517622717
1.4328803519136917,-3.640722697532043,5.504639175463304,-0.49522821820915636
1.3964731249383713,-3.6963948390610275,5.499686893281213,-0.3534166988533159
1.359509176547761,-3.7504192326329813,5.49615272629268,-0.20310851609687244
1.3220049842214312,-3.8032266281661538,5.494121641131711,-0.044469658284061936
1.2839727179397697,-3.8553198150512404,5.493676944548871,0.12232849445571967
1.2454195197892572,-3.9072748785027573,5.494900229493428,0.2971259101055581
1.2063467710042297,-3.9597425268126516,5.497871488594484,0.47979341985364055
1.1667493457361031,-4.013449995672279,5.50266942279302,0.6702549086568932
1.1266148457793803,-4.069204153723129,5.509371971879589,0.8685121274650316
1.085922804242149,-4.127896548334707,5.51805709315424,1.0746721842979259
1.044643838758802,-4.190511244771596,5.528803814997219,1.2889779531461212
1.002738726311086,-4.25813643030178,5.54169359452868,1.5118418924860375
0.9601573620080682,-4.331980882413849,5.55681201345354,1.7438840818925119
0.9168375531839297,-4.413396536926139,5.574250854272465,1.985975646053404
0.8727035878146683,-4.50390852084125,5.594110610732999,2.2392890955336613
0.8276645026062558,-4.60525408058191,5.616503501688336,2.5053573737044275
0.7816119618004367,-4.719431696110208,5.64155707542538,2.7861433415061585
0.7344176448393346,-4.848760995233543,5.669418508840442,3.08412058037815
0.6859300348869991,-4.995952138288463,5.700259714644224,3.4023637159495332
0.6359705135041145,-5.164178540327266,5.734283351803719,3.7446397306740984
0.5843287281008418,-5.357135712074246,5.77172974911046,4.115476151202779
0.5307573709800993,-5.579044339862512,5.812884510622489,4.520147361937818
0.47496692758147424,-5.834502270935394,5.858085984241867,4.964445309150418
0.4166219048721203,-6.127977564488954,5.907730437333371,5.453943146829492
0.35534212922723074,-6.462509946428864,5.962269868801666,5.992145325655728
0.2907170297629421,-6.836788073713834,6.022191322058223,6.576357334589529
0.22234914902580377,-7.239263100094924,6.087954895404119,7.189398936707952
0.14995651802485455,-7.638149527445208,6.159848884771198,7.785557489902288
0.07357502275040247,-7.970082468695802,6.237704459670221,8.274693225526494
-0.0061258019365555555,-8.142718827985817,6.320451391925486,8.52601150827817
-0.08755299021641373,-8.077725369475393,6.4057115070082675,8.428666523273025
-0.1683302439111677,-7.780567165319683,6.489998172240997,7.989994088858773
-0.24613591556436454,-7.3469245135067744,6.569898113129585,7.344573702885503
-0.3196051606994323,-6.884434067964883,6.64334385015844,6.6442880197357015
-0.38844950137908113,-6.45605021105102,6.709786730355797,5.978655281859786
-0.4530100034895913,-6.083271142866913,6.769573283174395,5.379106514357447
-0.5138427149182604,-5.766779628120926,6.82336434831797,4.847766047831812
-0.5715105111994696,-5.500011271740048,6.871842008796288,4.376429946139827
-0.6265106239168701,-5.275056176726616,6.915606308257686,3.9548627554571993
-0.6792611856841362,-5.084684869210415,6.955154935812258,3.5736829884920684
-0.7301080343762403,-4.922833699956937,6.990891765697179,3.225089880527685
-0.7793363713758097,-4.784562406463286,7.023142664502456,2.902844114436074
-0.8271819954404426,-4.6658679413879565,7.052171105646816,2.602039780364179
-0.8738406748543222,-4.5634872044763615,7.078191503450458,2.318854016078673
-0.9194755468990857,-4.47472790972265,7.101380043611244,2.0503300284743746
-0.9642228259963123,-4.397334214437775,7.121883343895988,1.794203243002889
-1.00819616814069,-4.329383581623983,7.139825376326017,1.548765795127326
-1.0514900039569297,-4.269209131650498,7.15531303427729,1.3127612562127768
-1.0941820952734347,-4.215342088825121,7.168440646839418,1.0853018790987004
-1.136335516161686,-4.16646990837457,7.179293665630405,0.8658020501623331
-1.1780002152454316,-4.121406628859933,7.1879516861320285,0.653923125556844
-1.219214281534031,-4.079072754938057,7.194490917387597,0.44952614112069245
-1.2600050090834116,-4.038482522799078,7.198986178798804,0.2526299726514403
-1.3003898343114024,-3.998736775749461,7.201512478525318,0.06337340401219674
-1.340377202068897,-3.959019932198931,7.20214621256544,-0.11801973891013265
-1.3799674013908865,-3.9185997116442572,7.200966015176339,-0.29127269164875036
-1.419153398507329,-3.8768284364949963,7.198053288259851,-0.456085008253778
-1.457921682872279,-3.8331448782707622,7.193492438177314,-0.6121586464088177
-1.4962531316549865,-3.7870757834983877,7.187370851713226,-0.7592204494133643
-1.5341238894899705,-3.738236403559677,7.179778647219092,-0.8970406095647755
-1.5715062535255673,-3.6863295595639705,7.170808241123445,-1.0254468110757542
-1.6083695491212069,-3.631142986283661,7.160553773012687,-1.1443339317602474
-1.6446809789840435,-3.572544902565063,7.149110433695085,-1.2536693970334043
-1.6804064280096942,-3.5104779335001823,7.13657373972475,-1.353494493645551
-1.715511207344696,-3.4449516491930834,7.123038794788295,-1.443922135427314
-1.7499607238366268,-3.3760340786065157,7.108599573434022,-1.5251317089850283
-1.783721064622692,-3.3038426032017116,7.093348256344171,-1.5973617035220216
-1.816759490654709,-3.228534637899416,7.077374639308951,-1.6609008451542504
-1.8490448370337034,-3.1502984744164175,7.060765630857409,-1.716078419388261
-1.8805478217778675,-3.0693446046341455,7.043604846663526,-1.7632543880499862
-1.911241267824209,-2.9858977701051987,7.0259723027830265,-1.802809803305381
-1.941100245525261,-2.900189907811488,7.007944204749973,-1.835137905630352
-1.970102144603376,-2.8124540895775985,6.989592825693669,-1.86063617676214
-1.998226685499152,-2.722919488465419,6.970986463926048,-1.8796995118985715
-2.0254558803838063,-2.631807353065959,6.952189468807062,-1.8927145835691415
-2.051773953914466,-2.5393279309308725,6.933262322971371,-1.9000553955826753
-2.0771672332237747,-2.4456782550446916,6.9142617690155435,-1.9020799697718616
-2.1016240157742216,-2.3510406908622232,6.8952409693178245,-1.899128069714975
-2.125134422682844,-2.2555821341476046,6.876249688620675,-1.891519841988187
-2.1476902440243197,-2.1594537496197157,6.857334490200793,-1.8795552440686465
-2.169284781520517,-2.062791145289334,6.838538937760106,-1.8635141259751855
-2.1899126929734103,-1.9657148856580964,6.819903796500354,-1.843656837505268
-2.209569841829991,-1.8683312572328747,6.8014672281253015,-1.820225242262322
-2.22825315440232,-1.7707332110022218,6.783264975702679,-1.7934440317416311
-2.245960486512342,-1.6730014178274488,6.765330535385262,-1.7635222461464397
-2.2626905006906166,-1.5752053835740432,6.747695312923797,-1.7306549223074066
-2.278442554526357,-1.477404580905963,6.730388763700724,-1.6950248023666161
-2.2932166003354166,-1.3796495637963244,6.7134385156770575,-1.6568040493069274
-2.30701309597338,-1.2819830388946998,6.696870475183988,-1.616155926698673
-2.3198329263623267,-1.184440874930542,6.680708915917001,-1.5732364100802172
-2.331677335111632,-1.087053037368277,6.664976551816199,-1.5281957061650604
-2.342547865485315,-0.9898444406328646,6.649694594754549,-1.4811796636164059
-2.352446309891644,-0.8928357144771903,6.634882798118385,-1.4323310655264914
-2.361374667036416,-0.7960438845486155,6.62055948746312,-1.3817907990759368
-2.3693351058819023,-0.6994829700116143,6.60674157947236,-1.3296989022262058
-2.3763299355820187,-0.6031645032702353,6.5934445904500985,-1.2761954908118245
-2.382361580614721,-0.5070979784740226,6.58068263554198,-1.2214215721374493
-2.3874325603994615,-0.4112912366425956,6.568468419820606,-1.165519753229369
-2.3915454727658876,-0.3157507959595198,6.556813222288312,-1.1086348533146542
-2.3947029807254827,-0.22048213611253695,6.545726873755165,-1.0509144309699143
-2.396907802086608,-0.12548994553793558,6.535217729445466,-0.9925092367557539
-2.3981627015419873,-0.030778340102287707,6.525292637077909,-0.9335736020884082
-2.3984704849430103,0.06364893883669788,6.515956901057025,-0.8742657746494691
-2.3978339955546435,0.15778833987016325,6.50721424331053,-0.8147482098486193
-2.396256112155942,0.25163632437572525,6.499066761212044,-0.7551878267819145
-2.3937397489121848,0.3451891918280613,6.491514882944225,-0.6957562358171402
-2.390287856993904,0.4384429039664605,6.484557320586053,-0.6366299434349191
-2.3859034279542395,0.5313929056128395,6.478191021151704,-0.5779905383052918
-2.380589498898111,0.6240339414170951,6.472411115768652,-0.5200248608293369
-2.37434915948394,0.7163598693395153,6.467210867160358,-0.4629251565681779
-2.3671855607905448,0.8083634732402758,6.462581615594677,-0.40688921216126916
-2.359101926058142,0.9000362785139134,6.458512723473064,-0.35212047054624224
-2.350101563273003,0.9913683762636776,6.454991518767602,-0.2988281205790678
-2.340187879510366,1.082348263039108,6.4520032375618115,-0.24722715456337424
-2.329364396879975,1.1729627046421125,6.4495309660161775,-0.19753838578257465
-2.3176347698335538,1.263196633922808,6.447555582158352,-0.14998841694415604
-2.3050028034943257,1.3530330938145334,6.4460556979889105,-0.10480954955464786
-2.2914724725561806,1.4424532380722237,6.445007602493364,-0.062239623716629645
-2.2770479401754584,1.5314364032498375,6.4443852062561975,-0.02252177775425797
-2.26173357614296,1.6199602663460981,6.444159988478655,0.01409588248162142
-2.2455339734794992,1.7080011032242246,6.444300947303471,0.04736071370871529
-2.228453962447257,1.7955341633279553,6.444774554440558,0.0770160719945418
-2.2104986208139774,1.8825341763290167,6.445544715160503,0.10280196088641275
-2.191673279050687,1.9689760061084014,6.446572734769368,0.12445579200004789
-2.1719835189896033,2.054835466860457,6.447817292689368,0.14171325460170886
-2.151435164320999,2.1400903150933015,6.449234425235385,0.15430928504585387
-2.130034261170066,2.224721429881328,6.450777518085844,0.16197912010972154
-2.1077870468712523,2.3087141919361613,6.452397309286941,0.16445941028355643
-2.084699904951891,2.3920600699734162,6.4540419033897765,0.16148935996037878
-2.0607793042521565,2.4747584205885156,6.4556567969893806,0.15281185130363392
-2.0360317200462714,2.556818505603672,6.457184915502417,0.13817449749059035
-2.010463534990235,2.638261728871453,6.458566660477323,0.11733055922139587
-1.9840809177015204,2.7191240931610765,6.459739966069537,0.09003964607595522
-1.9568896767699095,2.7994588774411406,6.460640362530297,0.05606811173940008
-1.9288950879954982,2.8793395361243093,6.461201043647691,0.015189039532110551
-1.900101692634255,2.9588628252589393,6.461352934043012,-0.032818297761503946
-1.8705130643816656,3.038152166924013,6.461024751065397,-0.0881696320285571
-1.8401315427124256,3.117361272965877,6.460143054745111,-0.1510776884203498
-1.808957929982767,3.1966780635364778,6.458632277860907,-0.22175512153357618
-1.7769911493474022,3.2763289355499357,6.456414726645572,-0.30041856615982654
-1.7442278599919028,3.3565834621395303,6.453410540983974,-0.3872939858849132
-1.7106620253705074,3.4377596375327175,6.449537601125125,-0.48262352332350605
-1.6762844289951802,3.5202298236390313,6.44471136589189,-0.5866740827608178
-1.64108213075879,3.604427606353783,6.438844625064282,-0.6997479122133943
-1.6050378546952522,3.690855832487312,6.431847145942148,-0.8221955005160694
-1.568129296370379,3.7800961736178302,6.423625190936987,-0.954431169025196
-1.5303283346342007,3.872820651784063,6.414080879246734,-1.0969518190170529
-1.49160012811636,3.9698056629462446,6.403111361056564,-1.2503593943193416
-1.4519020714868975,4.071949142853122,6.390607767113371,-1.415387727454942
-1.4111825800583664,4.180291623050374,6.376453889838822,-1.5929345367563312
-1.3693796638278626,4.296041990632641,6.360524544471258,-1.7840993845280149
-1.326419243921536,4.4206087244129595,6.342683550625978,-1.9902282902395063
-1.2822131566774064,4.555637085337301,6.322781267723583,-2.2129652044740022
-1.2366567858240334,4.7030518856108285,6.300651615678843,-2.4543092513629072
-1.1896262669679252,4.865103425885261,6.276108523165214,-2.716673650822269
-1.1409752327090725,5.044409707390177,6.248941786656991,-3.0029357422614447
-1.0905311356351708,5.243978546673803,6.218912429234377,-3.3164539474050825
-1.0380913501684328,5.467173682616918,6.185747889760327,-3.66099970230022
-0.9834196133422636,5.717549622957452,6.149137892737325,-4.040496665409324
-0.9262441171126891,5.9984033290127545,6.108732926083231,-4.4583513416031835
-0.8662600838225615,6.311750534427981,6.0641494126671995,-4.915961873100148
-0.8031425784782816,6.656211364971418,6.0149897939361985,-5.4096789440705
-0.7365804648285674,7.023060447723423,5.960893004495493,-5.9251740563473545
-0.6663498603513331,7.389934349474494,5.90164126393202,-6.42851642158246
-0.5924505168565882,7.713866486769098,5.837356099716195,-6.8563501563702385
-0.5153118519888973,7.9315405933222145,5.768792598152492,-7.116363383782525
-0.4359964460556751,7.980957685785434,5.697628964314667,-7.118142070767415
-0.3561868691978208,7.843872663329852,5.626447543606993,-6.8335179214150585
-0.27774814256452224,7.567099091363278,5.5581123643928425,-6.327172014183921
-0.20207715165088946,7.229018634904421,5.494840644251004,-5.709678186340026
-0.12978696530184525,6.892316410296546,5.437743862387603,-5.070576733947689
-0.06086380119887978,6.5890082890957675,5.387038095048126,-4.456671780991004
0.0050262816920778886,6.329170741925817,5.342471377238216,-3.883881774750589
0.06831798911133606,6.112156760702275,5.30363255949071,-3.352869956415164
0.12943955671835883,5.933330752945742,5.270103859926558,-2.8585374791930938
0.18877286424781625,5.787141616230523,5.241518485134627,-2.3944263285807468
0.24664428041012149,5.668293361301105,5.217574221848819,-1.954455636632403
0.30332721402313256,5.572086785424787,5.198029665482495,-1.5334832284665925
0.35904808187738046,5.494439026392493,5.182694833197829,-1.1274005674475098
0.4139924721413054,5.4317962892525085,5.171420827523353,-0.7330632360027012
0.4683104350338305,5.381025285401541,5.164090195163326,-0.34817718512011503
0.5221206878878459,5.3393146974976196,5.160608423312125,0.028815630734781328
0.5755138348628221,5.304096230020233,5.160896579619473,0.3988395796222551
0.6285547971630244,5.272986481127786,5.164884975415695,0.7622747678484274
0.6812846619743023,5.2437479234832,5.172507723094179,1.119036522703317
0.7337221412091343,5.214266379538848,5.183698088321212,1.4686485397569684
0.7858648050045227,5.182542180999752,5.198384573718782,1.8103126515848011
0.8376902268145202,5.146692209853863,5.21648770023463,2.142977110744413
0.8891571489130589,5.104960075247816,5.237917471342074,2.4654041696004207
0.9402067496655371,5.055731770466595,5.262571513038078,2.7762367714424347
0.9907640673702031,4.997554304233316,5.290333880752502,3.074063442949713
1.0407396104125362,4.929155035758305,5.321074515182,3.357480045082422
1.0900311607701192,4.849459767591065,5.354649315632824,3.625146899290993
1.1385257584460298,4.757608043169084,5.390900784625734,3.8758399177533365
1.1861018388777207,4.652964516620585,5.429659183803268,4.10849465675968
1.2326314840439265,4.5351256635787305,5.470744130370864,4.322242591615397
1.2779827406797137,4.403921443155124,5.513966556287018,4.516439293249442
1.322021955111265,4.259411780306478,5.5591309492195125,4.690684506275801
1.36461607291433,4.101877914822617,5.606037794282271,4.844834353385241
1.4056348520625561,3.93180877873652,5.654486137816123,4.979006023884839
1.4449529398499212,3.7498826510666152,5.704276198054972,5.093575374247581
1.4824517663605874,3.55694443143397,5.755211951797447,5.189167918464218
1.5180212106749271,3.353978996387568,5.807103630982089,5.266643756635397
1.5515610006388028,3.1420812610909605,5.8597700685484435,5.327077107549823
1.5829818132497124,2.922423751916949,5.913040839623942,5.371731278800574
1.612206050768882,2.6962226742380992,5.9667581524119475,5.402030107841646
1.639168277511263,2.4647035981836036,6.020778453490364,5.419527104704664
1.663815313493099,2.22906794918161,6.074973724537411,5.425873681385935
1.6861059929849151,1.9904614564279095,6.129232461351271,5.422787928820922
1.7060106075491943,1.7499455743659582,6.18346034063948,5.412025378532569
1.723510063292854,1.508472661142766,6.237580594424806,5.395353059679112
1.7385947899042815,1.2668654001002284,6.291534125021597,5.374527948698775
1.7512634439052839,1.0258006208989296,6.3452794045085845,5.351280636946324
1.761521450114273,0.7857973529339534,6.398792210878048,5.3273047469270685
1.7693794236436127,0.5472086580276376,6.452065258347319,5.30425234395952
1.774851510223889,0.31021656651639595,6.505107781786914,5.283735343400098
1.777953675889053,0.07482929638120042,6.5579451352209155,5.26733271714415
1.7787019688528651,-0.15912012188273644,6.610618462392357,5.256603153823416
1.7771107676340379,-0.39197465316855984,6.663184493930591,5.25310270202761
1.7731910211023523,-0.6242541861065185,6.715715520950867,5.258406776605799
1.766948479241287,-0.8566569688322603,6.768299588716925,5.274135649236962
1.7583819095529645,-1.0900614083593803,6.821040945209295,5.301982030536804
1.7474812954693706,-1.3255271722128836,6.874060765514663,5.343738333188567
1.7342260237472418,-1.5642929366874658,6.927498148846549,5.401319254132266
1.718583094380367,-1.807765336879523,6.981511341387872,5.476771684728505
