th1 (rad),w1 (rad/s),th2 (rad),w2 (rad/s),a1 (rad/s^2),a2 (rad/s^2)
0.08328679926666767,-2.4191917265934206,5.6602018963811025,0.7197620516281725,-6.478003537386425,14.444570239363786
0.05909488200073346,-2.4839717619672848,5.667399516897384,0.8642077540218104,-6.511761761224761,14.599858655562052
0.03425516438106062,-2.549089379579532,5.676041594437602,1.0102063405774309,-6.536849854983107,14.71662586553282
0.008764270585265296,-2.6144578781293633,5.686143657843377,1.157372599232759,-6.541996849271702,14.779590074151521
-0.017380308196028336,-2.6798778466220803,5.6977173838357045,1.3051684999742743,-6.512523682235077,14.768917242703449
-0.04417908666224914,-2.745003083444431,5.7107690688354475,1.4528576724013087,-6.429774268158818,14.659438488440687
-0.07162911749669344,-2.809300826126019,5.72529764555946,1.5994520572857156,-6.270720602912324,14.420120315624787
-0.09972212575795364,-2.872008032155142,5.741292166132317,1.7436532604419634,-6.007980524874068,14.014123861562593
-0.12844220607950507,-2.932087837403883,5.7587286987367365,1.8837944990575894,-5.610601119837446,13.399948690799178
-0.1577630844535439,-2.9881938486022572,5.7775666437273125,2.0177939859655813,-5.046057839834721,12.534290632219
-0.18764502293956647,-3.0386544270006044,5.797744583586969,2.1431368922877714,-4.283919442807699,11.377239306093259
-0.2180315672095725,-3.0814936214286814,5.8191759525098465,2.256909285348704,-3.3014034578376763,9.90011885307641
-0.24884650342385933,-3.114507656007058,5.841745045363334,2.3559104738794683,-2.0904593206175797,8.095443596671458
-0.27999157998392993,-3.135412249213234,5.865304150102129,2.4368649098461828,-0.6650446475459807,5.987090363027433
-0.31134570247606225,-3.142062695688694,5.889672799200591,2.496735813476457,0.9338118688388094,3.6372838687676374
-0.34276632943294916,-3.132724577000306,5.914640157335356,2.5331086521641333,2.6380482566873678,1.1463274268869899
-0.3740935752029522,-3.106344094433432,5.939971243856997,2.544571926433003,4.35965928258467,-1.3576501907336878
-0.40515701614728655,-3.0627475016075856,5.965416963121327,2.530995424525666,6.004229265523581,-3.7380324010687302
-0.43578449116336243,-3.00270520895235,5.990726917366584,2.4936151005149787,7.487199636811856,-5.872861748676235
-0.46581154325288593,-2.9278332125842312,6.015663068371734,2.434886483028216,8.74752341590748,-7.674218095324408
-0.49508987537872823,-2.8403579784251565,6.040011933202016,2.358144302074972,9.754483021391767,-9.097857409955376
-0.5234934551629797,-2.742813148211239,6.063593376222766,2.267165727975418,10.506642912405729,-10.141670543718321
-0.5509215866450922,-2.6377467190871813,6.08626503350252,2.1657490225382348,11.025046211709164,-10.835962997388858
-0.577299053835964,-2.52749625697009,6.107922523727902,2.057389392564346,11.344146558678968,-11.230511100393189
-0.6025740164056649,-2.4140547913833004,6.128496417653546,1.9450842815604141,11.50345973374813,-11.38263126054168
-0.6267145643194979,-2.299020194045819,6.14794726046915,1.8312579689549973,11.54150431059185,-11.348494065577269
-0.6497047662599561,-2.1836051509399006,6.166259840158699,1.7177730282992245,11.492290334488603,-11.178057773185856
-0.6715408177693551,-2.0686822475950146,6.183437570441692,1.605992450567366,11.383867127502468,-10.91293360133014
-0.6922276402453053,-1.9548435763199898,6.199497494947366,1.4968631145540645,11.238221548794014,-10.586180721680233
-0.7117760760085051,-1.8424613608320497,6.214466126092907,1.3910013073372622,11.071902355636961,-10.223145679768102
-0.7302006896168256,-1.7317423372756802,6.228376139166279,1.2887698505395813,10.89693394087338,-9.842725191491821
-0.7475181129895824,-1.6227729978669463,6.241263837671675,1.190342598624663,10.721761486860697,-9.458683925523145
-0.7637458429682519,-1.5155553829983393,6.253167263657922,1.0957557593694316,10.552099852824574,-9.080843531587055
-0.7789013967982352,-1.4100343844700935,6.264124821251616,1.0049473240535611,10.391639197239744,-8.71607391950167
-0.7930017406429362,-1.306117992497696,6.274174294492151,0.9177865848585445,10.242603871600458,-8.369080018580261
-0.8060629205679131,-1.2036919537816915,6.283352160340736,0.8340957846727418,10.106181020568746,-8.043005958389509
-0.81809984010573,-1.102630143576004,6.291693118187464,0.7536657250888468,9.982841890475315,-7.739888347938669
-0.82912614154149,-1.0028017246712508,6.299229775438352,0.67626684160946,9.872578742629106,-7.460990511512922
-0.8391541587882025,-0.9040759372449598,6.305992443854446,0.6016569364943308,9.775077342213145,-7.207045632484198
-0.8481949181606522,-0.8063251638228284,6.31200901321939,0.5295864801694888,9.689841270849461,-6.978431645369088
-0.8562581697988805,-0.7094267511143337,6.317304878021084,0.45980216371579796,9.61628074007822,-6.775295763836068
-0.8633524373100239,-0.6132639437135515,6.321902899658243,0.39204920607743726,9.553775532303527,-6.597642275988331
-0.8694850767471594,-0.5177261883905162,6.325823391719017,0.32607278331755396,9.501719245372321,-6.445393804194749
-0.8746623386310646,-0.422708995936793,6.329084119552192,0.26161884527560647,9.45955011979712,-6.318433557666249
-0.8788894285904325,-0.3281134947388218,6.331700308004948,0.198434509698944,9.426772291945506,-6.216634078561484
-0.8821705635378208,-0.23384577181936672,6.333684653101938,0.13626816891332916,9.402970244808332,-6.1398764631682
-0.8845090212560144,-0.1398160693712834,6.335047334791071,0.07486940428164715,9.38781843305784,-6.088062908266496
-0.8859071819497272,-0.04593788504070501,6.3357960288338875,0.013988775198982194,9.381087468940486,-6.061124589051753
-0.8863665608001342,0.04787298964869985,6.3359359165858775,-0.046622470691535335,9.382647812766775,-6.059026238987071
-0.8858878309036472,0.1416994677763676,6.335469691878962,-0.10721273308140605,9.392471571373795,-6.081768310662652
-0.8844708362258835,0.23562418349010555,6.334397564548148,-0.16803041618803258,9.410632734392642,-6.129387200167249
-0.8821145943909825,0.329730510834032,6.332717260386268,-0.22932428818970507,9.43730594247561,-6.201953674715243
-0.8788172892826421,0.4241035702587881,6.330424017504371,-0.2913438249368575,9.472763658793278,-6.299569318864012
-0.8745762535800543,0.5188312068467209,6.327510579255002,-0.35433951812549763,9.517371381600762,-6.4223604752583485
-0.869387941511587,0.6140049206627285,6.323967184073747,-0.4185631228780811,9.57158026723678,-6.570468767044056
-0.8632478923049598,0.7097207233350963,6.319781552844966,-0.4842678105485217,9.635916202235999,-6.744036812229112
-0.8561506850716089,0.8060798853574562,6.314938874739481,-0.5517081786708128,9.710963937496254,-6.943187129045174
-0.8480898862180343,0.9031895247324188,6.309421792952772,-0.6211400499612645,9.797344335772356,-7.167991428291789
-0.8390579909707101,1.0011629680901424,6.30321039245316,-0.6928199642441824,9.895682034588923,-7.4184264214334705
-0.8290463612898087,1.1001197884360316,6.296282192810718,-0.767004228458517,10.006559825419775,-7.694310851678476
-0.8180451634054484,1.2001853866902294,6.288612150526133,-0.8439473369753018,10.130454718238774,-7.995216570234463
-0.8060433095385461,1.3014899338726171,6.28017267715638,-0.9238995026776464,10.267648908655136,-8.320344007277894
-0.79302841019982,1.4041664229591686,6.270933682129604,-1.0071029427504254,10.418106602441828,-8.668349202971761
-0.7789867459702283,1.5083474889835868,6.2608626527021,-1.0937864347801431,10.58130481471839,-9.03710558221422
-0.7639032710803925,1.6141605371307708,6.249924788354298,-1.1841574906022854,10.756002866364513,-9.423378910740603
-0.7477616657090848,1.721720565794416,6.2380832134482755,-1.2783912797096915,10.939931561283903,-9.82238867088102
-0.7305444600511406,1.831119881407255,6.225299300651178,-1.3766151664185016,11.129379560191854,-10.227224325753339
-0.7122332612370681,1.9424136770091733,6.211533148986994,-1.478887409676035,11.318652648769458,-10.628082566779721
-0.6928091244669764,2.055600203496868,6.196744274890233,-1.585168235343832,11.499384159927285,-11.011295538143965
-0.6722531224320077,2.170594045096141,6.180892592536795,-1.6952811907252718,11.659686693934693,-11.358137207420846
-0.6505471819810463,2.287190912035488,6.163939780629542,-1.8088625627994803,11.783164703122736,-11.643437130724072
-0.6276752728606915,2.4050225590667154,6.145851155001548,-1.925296934106721,11.847866765591247,-11.834115219892137
-0.6036250472700243,2.5235012267226278,6.126598185660481,-2.0436380863056423,11.825361048567666,-11.8878997527463
-0.5783900350027981,2.6417548372083046,6.106161804797424,-2.162517083833105,11.680281070957161,-11.752722798631243
-0.551972486630715,2.7585576479178764,6.084536633959093,-2.2800443118194176,11.370907839748494,-11.36759726876723
-0.5243869101515362,2.8722667263153614,6.061736190840899,-2.39372028450709,10.851577843503415,-10.666095786841584
-0.49566424288838257,2.9807825047503957,6.037798987995829,-2.500381242375506,10.077792567945526,-9.583673021098692
-0.4658564178408786,3.081560430429851,6.012795175572074,-2.596217972586493,9.014593900785519,-8.069631850596366
-0.4350408135365801,3.171706369437706,5.986832995846209,-2.6769142910924564,7.647748157593992,-6.1030869978608075
-0.40332374984220304,3.2481838510136463,5.960063852935284,-2.7379451610710643,5.995451626400002,-3.709688129809308
-0.37084191133206656,3.308138367277646,5.932684401324574,-2.7750420423691575,4.116207090295759,-0.9729383364825092
-0.3377605276592901,3.3493004381806037,5.904933980900882,-2.7847714257339824,2.1077214805509477,1.9672007346607971
-0.3042675232774841,3.370377652986113,5.877086266643542,-2.7650994183873743,0.09384932311670331,4.932669074857726
-0.27056374674762296,3.3713161462172803,5.849435272459669,-2.715772727638797,-1.7981643576624808,7.739502269517306
-0.23685058528545017,3.3533345026406556,5.8222775451832804,-2.638377704943624,-3.462455359774811,10.233031200488474
-0.2033172402590436,3.3187099490429075,5.795893768133844,-2.5360473929387393,-4.8321264463356615,12.313073793778214
-0.17013014076861452,3.270388684579551,5.770533294204457,-2.412916655000957,-5.884308629331358,13.941504584428673
-0.137426253922819,3.2115455982862375,5.746404127654447,-2.2735016091566704,-6.633655400094287,15.133458713267915
-0.10531079793995664,3.1452090442852945,5.72366911156288,-2.122167022023991,-7.119556183462338,15.939559490215181
-0.07385870749710369,3.0740134824506713,5.70244744134264,-1.9627714271218393,-7.392809358375118,16.427246578577773
-0.04311857267259697,3.0000853888669203,5.682819727071422,-1.7984989613360616,-7.505330966006981,16.666270390515805
-0.013117718783927767,2.9250320792068507,5.664834737458062,-1.6318362574309035,-7.50392537531275,16.719841617189825
0.01613260200814074,2.849992825453723,5.648516374883752,-1.4646378412590053,-7.427520411983298,16.64063423604462
0.04463253026267797,2.77571762133389,5.633869996471162,-1.298231498898559,-7.306708937485834,16.47003865247093
0.07238970647601688,2.7026505319590317,5.620887681482177,-1.1335311123738498,-7.164529184941876,16.239175987108638
0.0994162117956072,2.631005240109613,5.609552370358439,-0.9711393525027634,-7.017737783335954,15.970627881239793
0.12572626419670332,2.5608278622762537,5.599840976833411,-0.8114330736903654,-6.878144125712331,15.680273706856042
0.15133454281946587,2.4920464210191304,5.591726646096507,-0.654630336621805,-6.7538003511292155,15.378942100203679
0.17625500702965718,2.4245084175078384,5.58518034273029,-0.5008409156197682,-6.649976311339287,15.073773174687629
0.20050009120473558,2.3580086543944456,5.580171933574092,-0.35010318387289185,-6.569918428479675,14.769285840730573
0.22408017774868003,2.292309470109649,5.576670901735363,-0.20241032546558613,-6.515420972449961,14.468186922493583
0.24700327244977652,2.227155260385149,5.574646798480707,-0.05772845624065029,-6.487246566900718,14.171971061258322
0.269274825053628,2.162282794716142,5.5740695139183005,0.08399125437193294,-6.485431042398317,13.88135860966306
0.2908976530007894,2.0974284842921587,5.57490942646202,0.22280484046856355,-6.509502299341934,13.596611543027965
0.311871937843711,2.032333461298739,5.5771374748667055,0.3587709558988432,-6.558636664392808,13.31775912737861
0.3321952724566984,1.9667470946548111,5.5807251844256935,0.4919485471726293,-6.631770621265017,13.04475753278238
0.3518627434032465,1.900429388442161,5.58564466989742,0.6223961225004531,-6.727681188451145,12.77760137367799
0.3708670372876681,1.8331525765576495,5.591868631122424,0.750172136237233,-6.845044620568862,12.516400336424647
0.38919856305324463,1.764702130351961,5.599370352484796,0.8753361396014795,-6.9824803893205605,12.261430437361597
0.4068455843567642,1.6948773264587553,5.608123713880811,0.9979504439750955,-7.1385853790304195,12.013166803062886
0.42379435762135176,1.623491472668451,5.618103218320562,1.1180821120057243,-7.311961745869107,11.77230295095068
0.4400292723480363,1.55037185520976,5.629284039440619,1.2358051415152311,-7.501240802347548,11.539760181921551
0.4555329909001339,1.4753594471862845,5.641642090855771,1.3512027433344467,-7.705104492149397,11.316689725738906
0.47028658537199675,1.3983084022647905,5.655154118289116,1.4643696405918358,-7.9223054332187335,11.10446958815415
0.48426966939464466,1.3190853479326032,5.669797814695034,1.5754143364733773,-8.15168606766735,10.90469754724042
0.4974605228739707,1.2375684872559298,5.685551958059768,1.6844613119457814,-8.392197118569939,10.719181366917548
0.5098362077465299,1.1536465160702305,5.702396571179226,1.7916531256149568,-8.64291527885905,10.549926983755595
0.5213726729072322,1.06721736328164,5.720313102435376,1.8971523954525127,-8.903059814577043,10.39912513280946
0.5320448465400486,0.9781867651358696,5.7392846263899004,2.001143646780607,-9.17200752358009,10.269136566520944
0.5418267141914073,0.8864666899000686,5.759296062857707,2.1038350124458165,-9.449305219180372,10.16247564267758
0.5506913810904079,0.7919736377082649,5.780334412982165,2.205459768872592,-9.73467856771607,10.081791560436708
0.5586111174674906,0.6946268520311042,5.802389010670891,2.3062776844769592,-10.028035650184316,10.029845840457327
0.5655573859878016,0.594346495529261,5.82545178751566,2.4065761428815327,-10.32946297425705,10.009483686033143
0.5715008509430942,0.49105186578669047,5.849517548944475,2.5066709797418643,-10.639210742538983,10.023595501992592
0.5764113696009612,0.3846597583613006,5.874584258741894,2.60690693476179,-10.957662858726374,10.075062912617327
0.5802579671845742,0.27508312977403687,5.900653328089512,2.707657563887963,-11.285285249913205,10.166680865829887
0.5830087984823146,0.16223027727490483,5.927729903728392,2.809324372546262,-11.622543361862007,10.301043504206353
0.5846311012550636,0.04600484365628475,5.955823147453854,2.9123348075883255,-11.969775828437552,10.480375976661112
0.5850911496916265,-0.07369291462809077,5.984946495529737,3.0171385673549365,-12.327005928068782,10.706286686787895
0.5843542205453456,-0.1969629739087786,6.015117881203286,3.1242014342228153,-12.693665061478663,10.979403956626216
0.5823845908062578,-0.32389962452356524,6.046359895545515,3.2339954737890775,-13.068192692715666,11.298847084472873
0.5791455945610222,-0.4545815514507219,6.078699850283406,3.346983944633806,-13.447464849375766,11.66146400795741
0.574599779046515,-0.5890561999444796,6.112169689729744,3.46359858471338,-13.825989088279215,12.06074710003313
0.5687092170470702,-0.7273160908272717,6.146805675576878,3.5842060557137114,-14.19479054205363,12.485318641814377
0.5614360561387975,-0.8692639962478079,6.182647736134014,3.7090592421318553,-14.539908312018504,12.91686776473515
0.5527434161763195,-1.014663079367993,6.219738328555333,3.838227919779207,-14.840439381111507,13.327442145057786
0.5425967853826396,-1.163067473179108,6.258120607753125,3.9715023412297845,-15.066138068254068,13.676091531767776
0.5309661106508485,-1.3137288538616487,6.297835631165423,4.108263256547462,-15.17475393640804,13.905097506656377
0.517828822112232,-1.465476393225729,6.338918263730898,4.247314231614026,-15.109644401837667,13.936509213063061
0.5031740581799747,-1.6165728372441057,6.3813914060470385,4.386679323744657,-14.798806427446184,13.670547086509556
0.48700832980753367,-1.7645609015185675,6.425258199284485,4.523384794609752,-14.157330647601494,12.988635698293018
0.469362720792348,-1.9061342079945824,6.470492047230583,4.653271151592683,-13.096114938584568,11.76500657368912
0.45030137871240217,-2.0370953573804282,6.51702475874651,4.770921217329573,-11.539649458787691,9.890821028949137
0.42993042513859786,-2.152491851968305,6.564733970919806,4.869829427619065,-9.45331737377542,7.311538233413032
0.40840550661891484,-2.2470250257060593,6.613432265195997,4.942944809953195,-6.874659036132998,4.069991067171145
0.3859352563618542,-2.3157716160673893,6.662861713295529,4.983644720624906,-3.934798953595689,0.33621120599778176
0.3627775402011803,-2.3551196056033463,6.712698160501778,4.987006832684884,-0.8522519257515142,-3.6005177274957485
0.33922634414514685,-2.3636421248608617,6.762568228828626,4.951001655409926,2.1096794791158544,-7.389529564704525
0.31558992289653826,-2.342545330069703,6.812078245382725,4.877106359762881,4.708978864146917,-10.70877084851436
0.29216446959584125,-2.295455541428234,6.860849308980354,4.770018651277738,6.783495832667533,-13.344355272739962
0.26920991418155893,-2.2276205831015585,6.908549495493132,4.636575098550338,8.275126881785301,-15.222880596653813
0.24693370835054335,-2.1448693142837056,6.9549152464786355,4.4843462925838,9.215921938783088,-16.39179097459211
0.22548501520770628,-2.052710094895875,6.999758709404474,4.320428382837879,9.693090606289838,-16.97133132489843
0.20495791425874754,-1.9557791888329765,7.042962993232853,4.1507150695888955,9.813444699771486,-17.10624387582897
0.18540012237041778,-1.8576447418352617,7.084470143928741,3.9796526308306057,9.678830501804976,-16.932811246634447
0.16682367495206515,-1.760856436817212,7.124266670237048,3.8103245183642613,9.37411298868609,-16.56312197294744
0.14921511058389303,-1.667115306930351,7.16236991542069,3.644693298634787,8.964186889834787,-16.081561973176104
0.13254395751458953,-1.5774734380320032,7.198816848407038,3.483877678903026,8.495787429650361,-15.54768940033239
0.11676922313426949,-1.4925155637354997,7.233655625196068,3.328400784899702,8.001070309692057,-15.001362137629394
0.10184406749691449,-1.412504860638579,7.266939633045065,3.178387163523408,7.501314918986516,-14.467910058298255
0.0877190188905287,-1.337491711448714,7.298723504680299,3.0337080629404256,7.010067322926597,-13.962461912238696
0.07434410177604156,-1.267391038219448,7.329060585309703,2.8940834438180385,6.535560059814929,-13.493238660826188
0.06167019139384708,-1.2020354376212987,7.358001419747883,2.7591510572097766,6.082472601202579,-13.063923885980698
0.04964983701763409,-1.141210711609273,7.385592930319981,2.6285118183499696,5.653166901744101,-12.67530919449448
0.03823772990154136,-1.0846790425918318,7.411878048503481,2.5017587264050247,5.248533508041673,-12.326407611050623
0.027390939475623044,-1.0321937075114151,7.436895635767531,2.3784946502945186,4.86856043105804,-12.015192160241462
0.01706900240050889,-0.9835081032008347,7.460680582270476,2.258342728692104,4.512709697590468,-11.739077208614303
0.007233921368500542,-0.93838100622493,7.483264009557398,2.140951956605961,4.18016274033625,-11.495226402999009
-0.002149888693748759,-0.8965793788215676,7.504673529123457,2.025999692575971,3.8699773986098447,-11.280745282971646
-0.011115682481964435,-0.8578796048354691,7.524933526049217,1.9131922397462544,3.5811859018017285,-11.092798066456664
-0.019694478530319127,-0.8220677458174518,7.54406544844668,1.8022642590816877,3.312853772980168,-10.9286751429922
-0.027915155988493645,-0.7889392080876501,7.562088091037497,1.6929775076517657,3.064113083252614,-10.785828943551161
-0.03580454806937015,-0.7582980772551239,7.579017866114015,1.5851192182162541,2.8341790564597003,-10.661889869855607
-0.04338752884192139,-0.7299562866905269,7.594869058296177,1.478500319517698,2.6223560295954544,-10.554669957654676
