th1 (rad),w1 (rad/s),th2 (rad),w2 (rad/s)
0.3742938735023645,-1.9837743585339036,2.7480304999315357,-2.260568740072482
0.35445612991702546,-2.0396721006534957,2.725424812530811,-2.365697562851834
0.3340594089104905,-2.092364361385633,2.7017678369022926,-2.472100005882055
0.31313576529663417,-2.1415947361277,2.677046836843472,-2.57963474151708
0.2917198179353572,-2.1870958090823835,2.651250489428301,-2.6881415430378452
0.26984885984453333,-2.2285899372422313,2.6243690739979226,-2.797441597520382
0.24756296047211102,-2.265790267629286,2.5963946580227186,-2.907338075452244
0.22490505779581815,-2.2984020124410054,2.567321277268196,-3.0176169973710314
0.2019210376714081,-2.3261240061498243,2.537145107294486,-3.1280484411003426
0.17865979760990985,-2.3486505665860933,2.5058646228834824,-3.2383881355631012
0.1551732919440489,-2.365673678142992,2.4734807415278515,-3.3483794881296185
0.13151655516261898,-2.376885508989545,2.439996946646555,-3.457756091398707
0.10774770007272352,-2.381981265089223,2.4054193857325683,-3.5662447515631004
0.0839278874218313,-2.380662371491711,2.3697569382169372,-3.6735690734391877
0.06012126370691419,-2.3726399555309365,2.333021247482545,-3.7794536263047185
0.036394864151604825,-2.3576385871850905,2.295226711219498,-3.883628699540955
0.01281847827975392,-2.335400209207029,2.2563904242240884,-3.9858356376811024
-0.010535523812316372,-2.305688164378631,2.2165320678472775,-4.08583272121357
-0.03359240545610268,-2.2682912004857343,2.175673740635142,-4.183401533293537
-0.056275317460960025,-2.223027306911083,2.1338397253022063,-4.27835372489236
-0.07850559053007086,-2.1697472120662833,2.0910561880532827,-4.3705380639814875
-0.1002030626507337,-2.1083373504767673,2.047350807413468,-4.459847630766962
-0.12128643615550137,-2.0387220945212015,2.0027523311057984,-4.546227003808444
-0.1416736571007134,-1.9608650407363717,1.957290061067714,-4.629679274258406
-0.1612823075080771,-1.8747691458365348,1.9109932683251298,-4.710272730448937
-0.18002999896644245,-1.780475523914457,1.8638905410206406,-4.788147075107758
-0.19783475420558702,-1.6780607432977954,1.816009070269563,-4.863519074202812
-0.21461536163856498,-1.567632497504322,1.7673738795275349,-4.936687590268953
-0.23029168661360822,-1.4493235665772128,1.7180070036248454,-5.008038023287229
-0.24478492227938034,-1.3232840284674587,1.6679266233919732,-5.078046266811951
-0.25801776256405495,-1.1896717198577884,1.6171461607238538,-5.147282383192764
-0.26991447976263283,-1.0486409763058737,1.565673336891926,-5.216414306026551
-0.2804008895256916,-0.9003296975000334,1.5135091938316605,-5.286211986975827
-0.28940418650069194,-0.7448447804447916,1.4606470739619022,-5.357552514758081
-0.29685263430513986,-0.5822459390541501,1.4070715488143213,-5.431426843866338
-0.30267509369568135,-0.4125278833866946,1.3527572803756578,-5.508948876774387
-0.3068003725295483,-0.2356007706365791,1.297667791607914,-5.591367741553699
-0.3091563802359141,-0.05126877548960235,1.241754114192377,-5.680084186832482
-0.3096690679908101,0.1407934149344705,1.1849532723240521,-5.776672054154496
-0.3082611338414654,0.3410663472009896,1.1271865517825073,-5.88290573141501
-0.3048504703694555,0.5502137590037786,1.0683574944683571,-6.00079422876078
-0.29934833277941775,0.7691121744566949,1.0083495521807493,-6.132621821882278
-0.2916572110348508,0.9988803200467893,0.9470233339619265,-6.280993618486074
-0.2816684078343829,1.2409039194905334,0.8842133977770658,-6.448881011836202
-0.2692593686394776,1.4968461027988968,0.8197245876587037,-6.6396550006007615
-0.2542909076114886,1.7686231127661478,0.7533280376526961,-6.857081296944113
-0.2366046764838271,2.0583044447990106,0.684757224683255,-7.1052233951608965
-0.216021632035837,2.367857438816011,0.613704990731646,-7.388146301462469
-0.1923430576476769,2.6985847951884145,0.5398235277170212,-7.70921473121562
-0.16535720969579276,3.0499831024494104,0.46273138040486506,-8.069611228079246
-0.13485737867129866,3.4175855711181478,0.3820352681240726,-8.46546496203762
-0.10068152296011718,3.7892609082476927,0.2973806185036964,-8.882839425868175
-0.06278891387764024,4.139910804229593,0.20855222424501466,-9.29044725967655
-0.021389805835344312,4.426745279215308,0.11564775164824914,-9.633013625068495
0.022877646956808773,4.592334688397118,0.019317615397564186,-9.835128883400914
0.06880099384077995,4.585549752716656,-0.07903367343644496,-9.829486206665347
0.1146564913679465,4.395592905709737,-0.17732853550309843,-9.602891621090084
0.15861242042504387,4.065275144274722,-0.2733574517139993,-9.213650591508367
0.19926517186779108,3.6626252087637203,-0.36549395762908293,-8.752340532351312
0.23589142395542828,3.243623751715469,-0.45301736295259604,-8.291578612481711
0.26832766147258297,2.8393893623538204,-0.5359331490774132,-7.869759067249351
0.2967215550961212,2.462084336995089,-0.6146307397499067,-7.4999276804072865
0.3213423984660721,2.1137961893953237,-0.6896300165539795,-7.182118104941881
0.3424803603600253,1.7923711840119947,-0.7614511976033983,-6.911216184338077
0.36040407220014525,1.4943326681629832,-0.8305633594467791,-6.680767125855988
0.3753473988817751,1.2161360196723905,-0.897371030705339,-6.484529200862838
0.387508759078499,0.9546330868973383,-0.9622163227139673,-6.316986831971361
0.3970550899474724,0.7071958398229242,-1.025386191033681,-6.173433448619502
0.4041270483457016,0.4717055535636616,-1.087120525519876,-6.04989733440998
0.40884410388133824,0.24649647899349264,-1.1476194988639756,-5.943024527439753
0.41130906867127315,0.030290226231088957,-1.2070497441383732,-5.849962949129528
0.41161197093358404,-0.1778657334055231,-1.2655493736296686,-5.768262564595517
0.4098333135995288,-0.378651581676507,-1.3232319992756238,-5.695794602720394
0.4060467977827637,-0.5725205804839749,-1.3801899453028277,-5.63068852651827
0.40032159197792394,-0.7597375990721789,-1.4364968305680104,-5.571284149684896
0.39272421598720214,-0.9404121922809625,-1.4922096720648592,-5.516096172097937
0.3833200940643925,-1.1145275422383443,-1.5473706337858386,-5.463788675438268
0.3721748186420091,-1.2819663024913015,-1.6020085205402212,-5.413157469268403
0.3593551556170961,-1.442534087299319,-1.6561400952329053,-5.363118497150091
0.3449298147441029,-1.5959810753938655,-1.7097712802044063,-5.312700774510397
0.32897000399016424,-1.7420219652813753,-1.7628982879495103,-5.261042540589265
0.3115497843373505,-1.8803543355107788,-1.8155087133554029,-5.207389482215016
0.29274624098224267,-2.010675331030905,-1.867582608177553,-5.151094044550481
0.27263948767193363,-2.1326965160035365,-1.9190935486230578,-5.09161499707347
0.2513125225118983,-2.246156701965011,-1.9700096985937925,-5.028516580374772
0.22885095549224818,-2.3508325730929434,-2.02029486439754,-4.961466723645196
0.20534262976131876,-2.4465469797928696,-2.069909531633992,-4.89023399154201
0.18087715996339007,-2.5331748477118543,-2.118811871549412,-4.814683086019833
0.15554541148627152,-2.610646739905713,-2.1669587024096106,-4.734768884879448
0.12943894408721437,-2.678950203212717,-2.214306391258405,-4.650529134951473
0.1026494420550872,-2.738129114934311,-2.2608116826079194,-4.56207602599759
0.0752681509057441,-2.7882813139409226,-2.3064324428678953,-4.4695869462417335
0.04738533776633487,-2.829554845611845,-2.351128312330313,-4.373294760028021
0.01908978931021642,-2.8621431702580344,-2.394861259930593,-4.273477954073044
-0.009531642392363922,-2.886279680715373,-2.4375960394713236,-4.170450975825527
-0.038394439199517655,-2.902231850041623,-2.479300549229579,-4.064555042402285
-0.06741675769993388,-2.910295289798064,-2.519946099653602,-3.956149639314221
-0.09651971059791452,-2.910787949088037,-2.559507596046744,-3.845604862571076
-0.1256275900887949,-2.9040446300979625,-2.5979636446724546,-3.7332946926824198
-0.15466803638977453,-2.890411942330715,-2.6352965915992788,-3.619591229978117
-0.18357215581308167,-2.870243768879633,-2.67149250389906,-3.504859871214128
-0.212274593501878,-2.843897276510057,-2.7065411026112014,-3.3894553695243093
-0.24071356626697857,-2.8117294682924867,-2.7404356563064445,-3.2737186938220035
-0.26883086094990344,-2.7740942533038035,-2.7731728432446645,-3.157974588968278
-0.2965718034829415,-2.731339991912982,-2.804752589134347,-3.0425297328390646
-0.32388520340207133,-2.6838074662976155,-2.8351778864627377,-2.927671388847923
-0.3507232780650475,-2.631828222720519,-2.864454600351217,-2.813666460400478
-0.37704156029225266,-2.575723233280252,-2.8925912649552217,-2.7007608651631534
-0.4027987926250552,-2.515801828959728,-2.919598873606853,-2.5891791601706404
-0.4279568109146525,-2.4523608616291863,-2.9454906652085597,-2.479124362257355
-0.45248041953094437,-2.3856840592320094,-2.9702819088311334,-2.3707779210217454
-0.47633726012326444,-2.316041544949512,-2.993989688041351,-2.264299812808215
-0.49949767557275954,-2.2436894971856045,-3.0166326861694333,-2.1598287336141713
-0.5219345705446156,-2.1688699324159475,-3.038230973505575,-2.057482376245825
-0.5436232698687751,-2.0918105971559124,-3.058805797268033,-1.9573577824958721
-0.5645413758403341,-2.0127249584926576,-3.0783793750929918,-1.8595317647766163
-0.5846686254252608,-1.931812284866294,-3.096974692740758,-1.764061393777325
-0.6039867482739237,-1.8492578102007389,-3.114615306678531,-1.6709845496323574
-0.6224793263759312,-1.7652329752362788,-3.131325152174855,-1.5803205341037236
-0.6401316561282939,-1.679895740173695,-3.147128357515892,-1.4920707406988882
-0.6569306135300309,-1.5933909626690588,-3.162049064922881,-1.4062193787285027
-0.6728645231567215,-1.5058508349670534,-3.176111258710166,-1.3227342462816356
-0.687923031506392,-1.417395373653131,-3.1893386011729823,-1.2415675461312135
-0.7020969852429233,-1.328132955238034,-3.2017542766342943,-1.162656737804058
-0.7153783147953037,-1.2381608906316754,-3.213380844012335,-1.085925418536928
-0.7277599237016205,-1.1475660315607137,-3.224240098197704,-1.011284225631464
-0.7392355840172276,-1.0564254021562307,-3.234352940454019,-0.9386317528234307
-0.7497998380387899,-0.9648068492867168,-3.2437392579822535,-0.8678554736766394
-0.7594479065316571,-0.8727697057244255,-3.25241781271902,-0.7988326656631025
-0.7681756035889014,-0.7803654608868751,-3.260406139375651,-0.7314313294509208
-0.7759792581977701,-0.6876384346598066,-3.26772045267016,-0.6655110989371624
-0.7828556425443682,-0.594626450649636,-3.274375563659532,-0.6009241386805702
-0.7888019070508646,-0.5013615060976628,-3.280384805046338,-0.5375160265565511
-0.7938155221118413,-0.40787043658119887,-3.2857599653119034,-0.4751266206272027
-0.7978942264776533,-0.3141755744967417,-3.2905112315181753,-0.41359091035036444
-0.8010359822226207,-0.22029540113864537,-3.294647140621679,-0.35273985330807134
-0.8032389362340072,-0.1262451929281063,-3.29817453915476,-0.2924011995863219
-0.8045013881632883,-0.0320376629896567,-3.301098551150623,-0.23240030675980544
-0.8048217647931849,0.06231640020313975,-3.303422554218221,-0.1725609491063663
-0.8041986007911535,0.15680749500051855,-3.3051481637092848,-0.11270612517884744
-0.8026305258411482,0.2514267672125391,-3.306275224961073,-0.05265886818102925
-0.8001162581690229,0.3461653667688237,-3.3068018136428834,0.007756936284522953
-0.7966546045013346,0.44101379804667606,-3.306724244280038,0.06871572061914817
-0.7922444665208679,0.535961261772041,-3.3060370870738467,0.13038938961817967
-0.7868848539031474,0.6309949868383213,-3.3047331931776647,0.1929464552358618
-0.7805749040347643,0.7260995510117803,-3.3028037286253062,0.2565511489097688
-0.7733139085246464,0.8212561902980763,-3.3002382171362084,0.3213625096812768
-0.7651013466216656,0.9164420977269738,-3.2970245920393957,0.387533447658886
-0.7559369256443959,1.0116297134604004,-3.2931492575628067,0.4552097839372943
-0.7458206285097918,1.1067860094248365,-3.288597159723434,0.5245292698958697
-0.7347527684155435,1.201871773086214,-3.283351867024475,0.5956205908329681
-0.7227340506846813,1.2968408964880658,-3.277395661116145,0.6686023611105915
-0.7097656417198007,1.391639678214741,-3.2707096375050395,0.7435821203335514
-0.6958492449376533,1.4862061474625932,-3.263273816301704,0.8206553424958591
-0.6809871834630274,1.5804694208329144,-3.255067262876745,0.8999044724012227
-0.6651824892546983,1.6743491037197515,-3.246068218152733,0.9813980058901751
-0.6484389982175007,1.7677547491630001,-3.236254238093831,1.0651896323497454
-0.6307614507258708,1.8605853876755412,-3.2256023417703337,1.1513174594926352
-0.6121555968491154,1.9527291417339765,-3.2140891671754073,1.2398033413105418
-0.5926283054317756,2.0440629382510265,-3.201691133762302,1.3306523302664928
-0.5721876760492653,2.1344523313401313,-3.188384610459637,1.4238522740369146
-0.550843152735864,2.223751445974519,-3.174146087719268,1.51937357530821
-0.5286056382761188,2.3118030506966774,-3.158952351966186,1.6171691301706885
-0.505487607769152,2.398438764348387,-3.1427806606644793,1.7171744564782556
-0.48150322012566815,2.4834793979079577,-3.1256089160996967,1.819308018160209
-0.4566684261465886,2.566735428030714,-3.107415835918095,1.9234717449599776
-0.43100107186628145,2.6480075939335865,-3.088181118468495,2.029551739594624
-0.40452099592694557,2.7270876040392094,-3.067885601072549,2.137419156123992
-0.3772501198865535,2.8037589335414217,-3.046511409511309,2.246931224718966
-0.34921253055113927,2.877797689055367,-3.0240420972641195,2.357932389429839
-0.3204345536605856,2.948973512084073,-3.0004627733698213,2.470255517445827
-0.29094481853974485,3.0170504894985917,-2.975760218195363,2.5837231312159497
-0.26077431364475895,3.0817880369214277,-2.9499229868832035,2.698148609200851
-0.22995643327554466,3.142941720140697,-2.922941500791195,2.8133372974716133
-0.1985270160741377,3.200263980755659,-2.894808127816479,2.9290874733638965
-0.16652437626658112,3.2535047354136504,-2.86551725308284,3.045191104382294
-0.1339893289124446,3.3024118234449036,-2.8350653420390173,3.16143435091058
-0.10096521067799558,3.3467312855774174,-2.8034509985299114,3.2775977703151593
-0.0674978978222214,3.3862074667938704,-2.7706750208267596,3.3934561929332703
-0.0336358231542827,3.4205829492733435,-2.736740458897427,3.508778257309624
0.0005700063384507376,3.4495983366451055,-2.7016526763243305,3.623325612859346
0.035065989704901795,3.472991928254228,-2.665419420195737,3.736851822721606
0.06979590898744407,3.4904993414292482,-2.6280509019685208,3.8491010275773476
0.10470090240173656,3.501853160276726,-2.589559891692747,3.9598064620529705
0.13971943400450382,3.5067827104665663,-2.5499618270722175,4.0686889481298065
0.17478726110916948,3.505014079638405,-2.5092749375909196,4.175455523439235
0.20983740190555353,3.4962705208680176,-2.4675203823565273,4.279798394658827
0.2448001071142337,3.480273390035583,-2.424722398409939,4.381394435055399
0.27960284101458954,3.4567437744090914,-2.380908454059385,4.479905467509097
0.3141702787586805,3.4254049663488275,-2.336109399384294,4.574979586411641
0.34842432842216875,3.3859859195461617,-2.290359603520178,4.666253769447923
0.3822841876176304,3.338225792470265,-2.2436970658256987,4.753358008990937
0.41566644554233306,3.281879632062957,-2.1961634857357892,4.835921148470942
0.4484852418629626,3.2167251786971525,-2.14780427425108,4.913578538405706
0.4806524936499341,3.1425706814066547,-2.098668488867023,4.985981528485162
0.5120782004640007,3.059263503497698,-2.048808673582171,5.052808687803048
0.5426708354989777,2.966699179281379,-1.9982805867041407,5.11377850051608
0.5723378272917914,2.864830462837557,-1.9471428016989798,5.1686631289038125
0.6009861319201669,2.753675802735206,-1.8954561704099417,5.217302684555166
0.628522889947519,2.6333265979715805,-1.8432831435643902,5.2596193194470375
0.6548561559272349,2.5039525557571434,-1.7906869503699199,5.295630361993354
0.6798956814848063,2.3658044944315173,-1.7377306467499862,5.325459697597349
0.7035537264291215,2.219214022605269,-1.6844760497740128,5.349346643102637
0.7257458666551742,2.064589678374648,-1.6309825833429863,5.367651696051769
0.7463917634389207,1.9024093202625414,-1.5773060663824685,5.3808587485168085
0.7654158566415461,1.733208804889373,-1.5234974788973004,5.3895736257934885
0.7827479446904398,1.5575672381849133,-1.4696017426393655,5.394519116823352
0.7983236170722889,1.3760893163898915,-1.415656551471132,5.3965269738762425
0.8120845102361879,1.189385450529453,-1.3616912817323694,5.39652764075218
0.8239783647414824,0.9980504699637325,-1.3077260053248476,5.395538693176603
0.8339588694411197,0.8026417134565592,-1.2537706183930817,5.3946531234355914
0.8419852865756854,0.6036572380761698,-1.1998240871587258,5.395028667624612
0.8480218589564471,0.4015147163878543,-1.1458738004824798,5.397879365488128
0.8520370061203256,0.19653136849569852,-1.0918950068275985,5.404470478508832
0.8540023198052826,-0.011094990280919231,-1.0378503020425103,5.416117798253297
0.8538913699024734,-0.22130399038805493,-0.9836891240599773,5.43419228372123
0.8516783299985928,-0.4341903265848824,-0.929347201222765,5.46013090160927
0.847336426732744,-0.650021711379992,-0.8747458922066723,5.495454528577804
0.8408362096189441,-0.8692581594151143,-0.8197913469208943,5.541793819632097
0.832143628024793,-1.0925737905633293,-0.7643734087245733,5.600924041611697
0.8212178901191597,-1.3208824494950813,-0.7083641683084563,5.674809970185432
0.8080090656242088,-1.5553683887300171,-0.6516160686066019,5.7656619393221265
0.7924553817369087,-1.7975228735303954,-0.5939594492133806,5.876003763218481
0.7744801530016047,-2.0491864557097985,-0.5351994115811958,6.008751987596938
0.7539882884445067,-2.3125940131941407,-0.4751118917052264,6.167302644820189
0.7308623483125654,-2.5904137537447474,-0.4134388652570245,6.355614029896911
0.7049582107751179,-2.8857586919988027,-0.3498827249580554,6.578257082824804
0.6761006238551298,-3.2021223939548946,-0.2841001541298074,6.840368700594393
0.6440793999155808,-3.543135722517807,-0.21569646712386345,7.147367691388792
0.6086480426904027,-3.911931567207988,-0.14422279020997553,7.504141041433969
0.5695287270183229,-4.309700166600393,-0.06918137979563584,7.913122827974733
0.526431725352319,-4.732694402065729,0.009949848484111498,8.370232567054904
0.4791047813316617,-5.166657816808707,0.09365217415466054,8.857224196374466
0.4274382031635746,-5.578288570256936,0.1822244161184052,9.329853470047956
0.3716553174610053,-5.907506552339386,0.2755229508188848,9.707005241921392
0.3125802519376114,-6.074394956037873,0.3725930032380987,9.879959408771356
0.2518363023772327,-6.018621624026609,0.47139259732581223,9.766480990634365
0.1916500861369666,-5.751932109508139,0.5690574072321559,9.382794871431376
0.1341307650418852,-5.3561563438112545,0.6628853559464697,8.840145386043456
0.08056920160377265,-4.921677599026659,0.7512868098069042,8.259971116235787
0.031352425613506055,-4.504289057000471,0.8338865209692621,7.715549113552418
-0.013690464956498657,-4.126102228255494,0.9110420121047863,7.2342789878311295
-0.0549514872390536,-3.7908341276615234,0.9833848019830976,6.819061895963798
-0.09285982851566883,-3.494871980177455,1.0515754209427357,6.46343244020935
-0.12780854831744337,-3.232585825865696,1.1162097453448292,6.1586702759654
-0.16013440657610034,-2.9984046619073523,1.1777964481044831,5.8964859961829985
-0.19011845319517387,-2.787472504899643,1.2367613080663131,5.669803280433946
-0.2179931782441703,-2.595756090102324,1.2934593408706525,5.472827243244915
-0.24395073914519355,-2.419967141627532,1.3481876133031017,5.300885271874553
-0.2681504105614689,-2.257439063427435,1.4011964660218472,5.150222780454238
-0.29072480119574323,-2.106007519632637,1.4526986938263895,5.01781532060836
-0.3117848763920696,-1.9639094104051147,1.5028768470324732,4.901212816651066
-0.3314239704961207,-1.8297019697630266,1.5518889751989837,4.798415680554643
-0.34972099019375097,-1.702199575256717,1.59987313200453,4.707777850844295
-0.36674298594631816,-1.5804249636628915,1.646950910512973,4.627931179660257
-0.38254723558294706,-1.4635717672371489,1.6932302223095754,4.55772628734931
-0.39718295325531855,-1.3509758065499322,1.7388074851830686,4.49618598417427
