th1 (rad),w1 (rad/s),th2 (rad),w2 (rad/s)
5.84177587874108,0.9789966675343905,4.048872142204548,-0.8576140623806695
5.851565845416424,1.0279989938826533,4.040296001580741,-0.7602631894918901
5.8618458353552505,1.0779608518633383,4.0326933696858225,-0.6614134291893158
5.872625443873884,1.1287563560114475,4.026079235393929,-0.5609803817980296
5.883913007433998,1.180254654482092,4.0204694315759495,-0.4588876450345595
5.895715553978819,1.2323192392650468,4.015880555125604,-0.355067657470654
5.90803874637147,1.2848072576202616,4.012329878550898,-0.24946259644117091
5.920886818947673,1.337568833203473,4.009835252586487,-0.1420253190269541
5.9342625072797075,1.3904464066316669,4.0084149993962175,-0.032720333132898086
5.948166971346025,1.4432741064789751,4.008087796064888,0.07847521600809908
5.962599712410814,1.495877162861434,4.00887254822497,0.19157056029665992
5.977558484039428,1.5480713768282537,4.010788253827936,0.3065603422878661
5.993039197807711,1.5996626596912613,4.013853857250815,0.42342368749299164
6.009035824404624,1.6504466571572411,4.018088094125745,0.5421233366793595
6.025540290976196,1.7002084736470346,4.023509327492539,0.6626048606963689
6.042542375712666,1.7487225124620736,4.030135376099502,0.7847959814336884
6.060029600837287,1.795752447471078,4.0379833359138395,0.9086060233248678
6.0779871253119975,1.8410513417212393,4.047069396147088,1.0339255203206634
6.09639763872921,1.884361927819884,4.057408651350294,1.160626003459611
6.1152412580074085,1.925417064079455,4.06901491138489,1.2885599940609644
6.134495428648203,1.963940379266932,4.0819005113255,1.4175612271703824
6.154134832440873,1.9996471173410475,4.096076123597204,1.5474451292211289
6.174131303614283,2.032245191779339,4.1115505748894146,1.6780095729507964
6.194453755532076,2.0614364569576638,4.128330670618922,1.809035931441814
6.215068120101653,2.0869182014887886,4.14642102993334,1.9402904517164505
6.2359373021165405,2.1083848653663053,4.165823934450505,2.071525966562843
6.257021150770203,2.1255299790758944,4.186539194116134,2.202483961103904
6.278276450560963,2.138048318379263,4.208564033727173,2.332897007904541
6.299656933744755,2.145638263077905,4.231893003806219,2.462491580958548
6.321113316375534,2.14800434155164,4.2565179196158045,2.5909912544866884
6.34259335979105,2.144859935089453,4.282427832160671,2.7181202868853456
6.364041959141945,2.135930106890455,4.309609035029525,2.8436075831915533
6.385401260210849,2.1209545101061216,4.33804511086144,2.967191020950714
6.40661080531191,2.0996903175493715,4.3677170210709475,3.088622114392624
6.427607708487404,2.0719151030083895,4.3986032422148735,3.2076709805312826
6.448326859517488,2.0374295909644786,4.430679952020187,3.3241315586350817
6.468701155427133,1.9960601786154117,4.463921267606538,3.437827022173472
6.488661757213287,1.9476611223208682,4.498299537828273,3.5486153108305603
6.508138368436496,1.8921162709146646,4.533785690936578,3.656394700749801
6.5270595311456425,1.8293402218101729,4.5703496379440764,3.7611093253091985
6.545352933363744,1.7592787734227646,4.607960731197169,3.862754558001809
6.562945721097972,1.6819085498883233,4.646588276777187,3.9613821749612
6.579764806596855,1.5972356817430804,4.686202098526799,4.057105228689385
6.595737163414285,1.5052934390171109,4.726773150813693,4.150102587635386
6.610790097804457,1.4061387303516746,4.7682741766900465,4.24062312897742
6.624851485107974,1.2998474019143365,4.810680407979821,4.32898961425557
6.637849959127117,1.1865082911022338,4.8539703041223765,4.415602328768195
6.64971504203814,1.0662160098927675,4.898126327410059,4.50094262471766
6.6603772021370675,0.9390624486185475,4.943135753657235,4.585576573341679
6.669767826623253,0.8051270004548903,4.988991519390652,4.670159000693348
6.677819096627801,0.6644655081886499,5.035693109397585,4.755438252951617
6.684463751709687,0.5170979273546437,5.083247491927102,4.842262107130311
6.689634730983234,0.36299468531644763,5.131670112998405,4.931585307380132
6.693264677836399,0.20206169989624626,5.180985966072206,5.024479258202777
6.695285294835361,0.03412401579936755,5.231230758654234,5.122144429740298
6.695626534993354,-0.14109195425702753,5.282452202951637,5.225925999709898
6.694215615450784,-0.3239774905102314,5.334711462948736,5.337333119052308
6.690975840545682,-0.5150615718785431,5.3880847941392584,5.458061843398653
6.685825224826896,-0.7150308998521461,5.442665412573245,5.590021029122681
6.678674915828375,-0.924747868847953,5.498565622864471,5.735358991358982
6.669427437139896,-1.145262192831191,5.555919212778061,5.896485789088578
6.657974815211584,-1.377807695596038,5.614884070668947,6.07608039172418
6.644196738255624,-1.6237679404734597,5.6756448745861885,6.277061414729336
6.627959058850889,-1.8845800254768026,5.738415488733482,6.502480551036276
6.609113258596121,-2.161520234674691,5.8034402942438446,6.755262537184203
6.587498056249374,-2.455271515750974,5.870992919615687,7.037654716645615
6.562945341091864,-2.7651049966291876,5.9413694667821435,7.350153979496033
6.535294291125572,-3.0874250760494366,6.014871006577104,7.689560167221292
6.504420040365078,-3.4134008845859407,6.0917666082493165,8.045758658531577
6.470286031519219,-3.725679945138322,6.172224194834632,8.397196234729332
6.4330292320678355,-3.9952989865887383,6.256196157181925,8.706542131661843
6.393076242201948,-4.182364067492828,6.343261578498543,8.92141463386454
6.35125260152702,-4.246155732441157,6.432475724837189,8.98795329376812
6.308791044202608,-4.165367629756348,6.52235525777487,8.87822705571539
6.267137367905044,-3.954185420814219,6.611137528332024,8.611853733226898
6.227595513696902,-3.6555281190517537,6.697256065664293,8.246395658720008
6.191040232506384,-3.3170989081921274,6.779720022251493,7.8447034040893575
6.157869243424463,-2.973619628134823,6.858167056292387,7.451258609036327
6.128133047143114,-2.6439203542975287,6.93267964238275,7.088875121151238
6.101693843600139,-2.335609340204065,7.0035683935942625,6.765445382084919
6.078337750198099,-2.0501873648740974,7.071222847415112,6.481001211754458
6.057835876549357,-1.7863860253573978,7.136032859532657,6.232207056991037
6.039972016295783,-1.541938502933768,7.1983549301025676,6.014676468331439
6.024552631266445,-1.3144114601117505,7.258501694785882,5.824015162504028
6.011408516665328,-1.1015539251378317,7.316741846410922,5.656224916788621
6.0003929774139495,-0.9014172483055469,7.373304095578808,5.507814476309784
5.9913788049308945,-0.7123735028795752,7.4283822403419055,5.375787406618566
5.984255069902098,-0.5330927584929863,7.482140114408091,5.257585448122642
5.978924142317169,-0.36250672734699285,7.5347159688893175,5.151021825708971
5.975299075043699,-0.1997706570207529,7.586226187146408,5.0542184969609805
5.973301368473491,-0.04422811349099401,7.636768372116017,4.965552122450321
5.972859087338581,0.10461994527100385,7.68642389334052,4.883609583507015
5.973905286791291,0.2471417803500785,7.73525998917559,4.807152304694664
5.976376704594792,0.3835976570739311,7.783331512222537,4.735088130571413
5.980212681165532,0.5141594217472156,7.830682393528251,4.666449446675255
5.985354275383004,0.6389274517695857,7.877346887995004,4.600376345576716
5.9917435499007,0.7579454653091212,7.923350651450771,4.536103798731007
5.999323004553791,0.8712135679210302,7.968711689438081,4.472951954114894
6.008035140233001,0.9786998120763013,8.013441208979229,4.41031882120268
6.017822138353764,1.080350459659416,8.057544397191256,4.347674725781534
6.028625642950358,1.1760990696309213,8.10102114444907,4.2845580199744155
6.040386633646667,1.2658744831791868,8.143866724648815,4.22057162168301
6.053045378478459,1.3496077455415285,8.186072440865646,4.155380036280313
6.066541455933875,1.4272379853525992,8.22762624122845,4.088706584610464
6.0808138357874,1.4987172665714417,8.268513307074555,4.020330626892435
6.0958010084531145,1.5640144321679024,8.30871661334348,3.9500846326259818
6.111441152774794,1.62311797007334,8.348217459669739,3.877851001892049
6.127672332475528,1.6760379476518599,8.386995969688659,3.8035585928220805
6.144432711952046,1.7228070784873164,8.42503155561688,3.7271789525479817
6.161660782736919,1.7634810022568854,8.46230334514236,3.6487222837508484
6.179295592759488,1.7981378729518103,8.498790567979867,3.5682332053851025
6.197276971489006,1.826877361316824,8.534472900033718,3.4857863840641636
6.215545745102174,1.8498191832938737,8.56933076387436,3.4014821222325726
6.234043936935113,1.8671012672180083,8.603345585096687,3.3154419913604443
6.252714949607293,1.8788776687658582,8.63650000501029,3.227804594107716
6.271503726294952,1.8853163348340782,8.668778050951367,3.138721530109823
6.290356889643293,1.886596806524554,8.700165266252466,3.04835362724755
6.309222857708539,1.8829079382651148,8.730648802524941,2.956867485480463
6.32805193709119,1.874445695840442,8.760217477379745,2.8644323649110666
6.346796394049594,1.8614110817034102,8.788861801028856,2.7712174348522742
6.365410504866628,1.844008222183647,8.816573975377379,2.6773893871722367
6.383850587088465,1.8224426387169719,8.8433478692491,2.583110405682995
6.402075013475635,1.796919714393084,8.86917897330593,2.488536474148471
6.420044210619565,1.76764335817431,8.894064338047414,2.393815998704454
6.437720644201308,1.7348148621248245,8.91800249803446,2.2990887160130358
6.455068792822556,1.6986319418260307,8.94099338519459,2.2044848560861543
6.472055112240816,1.6592879466646933,8.963038233755452,2.1101245280927166
6.488647991707463,1.616971224632698,8.98413947903638,2.0161172982561286
6.50481770395379,1.571864625410592,9.00430065201894,1.9225619307945279
6.520536350207896,1.5241451255583793,9.023526271326887,1.8295462654172552
6.53577780146348,1.4739835603591647,9.04182173398106,1.7371472078705326
6.550517637067071,1.4215444480344501,9.059193206059765,1.6454308131746713
6.564733081547415,1.3669858934886445,9.075647514191512,1.5544524443189986
6.5784029404823015,1.3104595602954467,9.091192038634702,1.464256992134928
6.591507536085256,1.2521107011965054,9.105834608556052,1.3748791447548876
6.604028643097221,1.1920782388618043,9.1195834000036,1.2863436974280669
6.615949425485839,1.130494890008352,9.13244683697788,1.1986658954789267
6.627254374385923,1.067487327158883,9.14443349593267,1.1118518048623804
6.637929247657512,1.0031763733336145,9.155552013981294,1.0258987061101643
6.647961011390848,0.9376772258074166,9.165811001042396,0.9407955085081277
6.657337783648922,0.8710997057432729,9.175218956127477,0.8565231821330094
6.666048780706355,0.8035485310478682,9.183784187948808,0.7730552059515711
6.674084266016833,0.735123610206822,9.191514740008323,0.6903580305862749
6.681435502118902,0.6659203551667499,9.198418320314186,0.6083915546188824
6.6880947056705695,0.5960300115594933,9.204502235860375,0.5271096134711084
6.694055005786164,0.525540004729252,9.209773331995086,0.4464604799994559
6.699310405833456,0.4545343001421973,9.214237936795081,0.3663873759938711
6.7038557488348784,0.38309377684389273,9.21790181055502,0.2868289937958606
6.707686686603317,0.311296612693022,9.22077010049298,0.20772002726520705
6.710799652730247,0.2392186801483287,9.22284730076563,0.12899171133498438
6.7131918395317305,0.166933951424598,9.224137217878981,0.050572369407977394
6.714861179045976,0.09451491186610278,9.22464294157306,-0.027612032133440836
6.715806328164637,0.022032980413543193,9.224366821251726,-0.10563732300718334
6.716026657968773,-0.050441063936923575,9.223310448021655,-0.18358056237527287
6.715522247329404,-0.12283665076756173,9.221474642397903,-0.2615194670952992
6.714293880821728,-0.19508298304247712,9.218859447726949,-0.3395318354947119
6.712343050991303,-0.267108599159265,9.215464129372002,-0.4176949672606453
6.7096719649997105,-0.3388409333427358,9.211287179699395,-0.49608508002555096
6.706283555666283,-0.41020587550571835,9.20632632889914,-0.5747767232306671
6.7021814969112254,-0.4811273317520802,9.200578561666832,-0.6538421898693576
6.697370223593705,-0.5515267867693517,9.19404013976814,-0.7333509267546539
6.691854955726011,-0.6213228694560005,9.186706630500593,-0.8133689440241391
6.685641727031451,-0.6904309232550483,9.178572941060352,-0.8939582246951898
6.678737417798901,-0.7587625828253387,9.1696333588134,-0.9751761352197112
6.671149791970648,-0.8262253588788985,9.159881597461203,-1.0570748381660524
6.662887538381859,-0.8927222332527418,9.149310849079543,-1.1397007083842239
6.653960316049331,-0.9581512665722192,9.137913841995701,-1.2230937542980416
6.644378803383609,-1.022405221207576,9.12568290445272,-1.3072870463255026
6.6341547511715335,-1.085371202633548,9.112610033989466,-1.3923061548699576
6.623301039145198,-1.146930322782012,9.098686972440767,-1.4781686008651056
6.611831735917378,-1.2069573895386128,9.083905286432115,-1.5648833225143732
6.599762162021992,-1.2653206271841377,9.06825645320697,-1.6524501626594084
6.587108955750151,-1.3218814333270903,9.051731951580376,-1.7408593821637721
6.5738901414168796,-1.3764941787194847,9.034323357758739,-1.8300912058266412
6.5601251996296845,-1.429006057292904,9.016022445700472,-1.9201154086654382
6.545835139056756,-1.4792569947890057,8.996821291613816,-2.0108909519391105
6.531042569108866,-1.527079625471091,8.976712382094425,-2.102365680030705
6.515771772854155,-1.5722993475615112,8.955688725294117,-2.194476091262583
6.50004877937854,-1.6147344692078793,8.93374396438149,-2.2871471978574185
6.483901434686461,-1.65419645787392,8.910872492402916,-2.380292492539054
6.467359470107723,-1.690490306989987,8.887069567477525,-2.4738140416189855
6.450454567037823,-1.7234150343698433,8.862331427061335,-2.5676027267350254
6.433220416694124,-1.7527643271632647,8.836655399793985,-2.6615386595618067
6.415692773422491,-1.7783273478010608,8.810040013198368,-2.755491795624273
6.397909499944481,-1.799889714309749,8.782485095242125,-2.8493227746047287
6.379910602801384,-1.8172346663209478,8.753991867496078,-2.942884014999272
6.361738256138175,-1.8301444248644592,8.724563027346084,-3.0360210903864444
6.34343681188953,-1.838401749414616,8.69420281644222,-3.128574412649755
6.3250527943953845,-1.8417916894906727,8.662917072315722,-3.220381243993247
6.3066348775004775,-1.8401035202869618,8.630713259875789,-3.3112780542990055
6.288233842297608,-1.8331328423090933,8.5976004793328,-3.401103233173257
6.269902513874516,-1.8206838139191306,8.563589447001066,-3.4897001569112978
6.251695675735325,-1.802571473291989,8.528692445431952,-3.5769205997409856
6.233669961002406,-1.778624092969474,8.492923239434543,-3.662628466438229
6.215883720072711,-1.7486854965522205,8.45629695477016,-3.7467038103279395
6.198396865107188,-1.7126172538392443,8.41882991666688,-3.8290470876053297
6.181270692568796,-1.6703006587824236,8.380539445790827,-3.9095835868691253
6.1645676859809715,-1.621638384908168,8.341443609922136,-3.988267962961695
6.14835130213189,-1.5665557062913473,8.301560930292519,-4.065088797980328
6.132685745068977,-1.5050011695434227,8.260910042312716,-4.14007311098945
6.117635733373542,-1.4369466041522088,8.219509311202822,-4.213290742753587
6.10326626733202,-1.3623863650823003,8.177376403775286,-4.284858553732529
6.089642403681197,-1.2813357125555993,8.134527818237961,-4.3549443933124445
6.076829046555641,-1.193828248605267,8.090978374304838,-4.423770826065536
6.064890764069588,-1.0999123470259213,8.046740666044181,-4.491618636580026
6.053891640599329,-0.999646530931614,8.001824479678382,-4.558830177525865
6.043895175290013,-0.8930937681010118,7.956236177903123,-4.625812675255858
6.034964237609002,-0.7803146662349932,7.909978051150564,-4.693041662359186
6.027161090946652,-0.6613595557648271,7.863047634526972,-4.761064766159455
6.020547495389004,-0.5362594447660282,7.815436986865378,-4.8305061453040405
6.015184900941344,-0.4050158172500952,7.767131925412338,-4.902071932641955
6.011134742768843,-0.2675892219898365,7.7181112060859185,-4.976557110884675
6.008458850548945,-0.12388656503782486,7.668345634977071,-5.054854316918307
6.007219984898567,0.02625302118523362,7.617797091807888,-5.137965138123678
6.00748251511042,0.183073897766589,7.566417440426651,-5.227014522331177
6.009313254088085,0.34692141385590913,7.5141472952033395,-5.323268955399489
6.012782468226645,0.5182613320745176,7.460914605649345,-5.428159031306959
6.0179650815473895,0.6977012018992896,7.406633015336275,-5.543306876588174
6.024942093566382,0.886013336331529,7.351199946570393,-5.670558450082218
6.033802226929698,1.084158248154714,7.294494362069571,-5.812019739368662
6.044643809411245,1.2933057595763071,7.236374164675884,-5.970093773662976
6.0575768670070085,1.5148477442050448,7.176673226939254,-6.147511126213943
6.072725344449059,1.7503901465728195,7.1151981156771145,-6.347338202701029
6.090229245914787,2.001699869979777,7.051724733650104,-6.572931391228616
6.110246244614585,2.2705595191843413,6.985995419737818,-6.827774361793393
6.132951839806428,2.558441820760579,6.917717676119884,-7.1150791310494474
6.158536258014034,2.865844732773118,6.8465668848093895,-7.436932992255213
6.187194705341765,3.1910208000840012,6.772197554886837,-7.792621982619856
6.219104913342606,3.527720556967489,6.694271335060638,-8.175596586544295
6.254382118912281,3.861622674850118,6.6125153691951954,-8.56860252157987
6.292998345660782,4.165881070079374,6.526829343979397,-8.937521643485024
6.334657156361575,4.398660860251824,6.437454127544547,-9.227819677146625
6.378643764964093,4.509518281407441,6.345175930773081,-9.373004706508894
6.423738947778167,4.4607612728211326,6.2514458837079925,-9.323541526242755
6.468346560506379,4.253685078723525,6.1582104684455645,-9.082307131261103
6.510883411293614,3.9316330653138323,6.067387397132953,-8.708183621829871
6.550199741946752,3.55286634404733,5.980305560914655,-8.278746337906671
6.585728405387226,3.162923184314025,5.897518097535588,-7.853094327999756
6.6173576372303655,2.7869437362663088,5.81898715425559,-7.462286915429047
6.645227074593029,2.4349479703608283,5.7443642851013,-7.117133591136826
6.669576554296637,2.1087935069154318,5.673192949189931,-6.817852027457969
6.690664489365791,1.806771254831739,5.605014428915352,-6.560277136169708
6.708732201914109,1.5259778558058432,5.5394116575536545,-6.338973042553131
6.723991980472167,1.2633814542450348,5.476021927128123,-6.1485690141895954
6.736625795014618,1.016241239056034,5.414536236986227,-5.984239259661187
6.746788207405178,0.7822354050858079,5.354693844389615,-5.841810053133878
6.754610561456036,0.5594673842248881,5.296275743858277,-5.717720749023414
6.760205235298285,0.3464269570898133,5.239098536368043,-5.60893813091052
6.763669504869183,0.14193912619374788,5.1830091550589374,-5.512865101468793
6.765088896131121,-0.05488612865662407,5.127880504044249,-5.427258951155422
6.764540034844555,-0.24469875753885978,5.073607914532695,-5.350163509767369
6.7620930472691665,-0.4279473926170826,5.020106279435021,-5.279855114624865
6.757813573342996,-0.6049125209777979,4.967307728288772,-5.214800789865921
6.751764448133218,-0.7757350654114799,4.915159720390113,-5.153626664175829
6.744007097479104,-0.9404413600534571,4.863623453748355,-5.09509473330998
6.7346026838785695,-1.0989653498464211,4.812672506415255,-5.038086290473453
6.723613030380105,-1.2511686396129678,4.76229164351052,-4.981590579156108
6.711101343983975,-1.396858818793803,4.712475737718958,-4.924697428059471
6.697132755796037,-1.5358063122434906,4.663228763438363,-4.866592799505857
6.681774692673602,-1.667759864382654,4.614562835443305,-4.806556327673623
6.665097094029775,-1.7924606566622932,4.566497272166568,-4.743960051211586
6.647172487463153,-1.9096549871879296,4.519057671654452,-4.678267665458952
6.628075937591274,-2.0191054050755426,4.472274994999863,-4.609033739057286
6.607884883540518,-2.1206001875100857,4.42618465760929,-4.535902461164038
6.586678881665417,-2.2139610696759164,4.38082563299765,-4.458605608387384
6.564539270968658,-2.299049180342711,4.336239576913775,-4.376959541834912
6.541548779165231,-2.37576919148778,4.292469981495426,-4.2908611593683395
6.517791087250353,-2.4440717511104886,4.249561369901743,-4.200282830643016
6.493350369739248,-2.5039543269469724,4.207558541595313,-4.1052664275372175
