th1 (rad),w1 (rad/s),th2 (rad),w2 (rad/s),a1 (rad/s^2),a2 (rad/s^2)
4.46533798798661,1.9235622509684678,5.169165837757173,-1.0432303964943646,10.452146926530652,-1.5675978212142294
4.4845736104962945,2.0280837202337745,5.15873353379223,-1.0589063747065068,10.71715926465202,-2.1002607057030556
4.504854447698632,2.135255312880295,5.148144470045165,-1.0799089817635374,11.000653526476208,-2.652531199696117
4.526207000827434,2.245261848145057,5.137345380227529,-1.1064342937604985,11.300008633716857,-3.218940535649181
4.548659619308885,2.3582619344822255,5.126281037289925,-1.1386236991169902,11.611109921646472,-3.79156181242125
4.572242238653707,2.4743730336986904,5.114894800298755,-1.1765393172412026,11.927824193990986,-4.359216325530436
4.596985968990694,2.5936512756386003,5.103129407126342,-1.220131480496507,12.241353961885894,-4.906509311782517
4.62292248174708,2.716064815257459,5.090928092321377,-1.2691965736143322,12.539484130698114,-5.412717984082012
4.650083129899655,2.84145965656444,5.078236126585233,-1.3233237534551523,12.805774338487954,-5.850613751701947
4.6784977264653,2.9695173999493196,5.065002889050682,-1.3818298909721718,13.018818460367626,-6.1854005893164485
4.708192900464793,3.099705584552996,5.05118459014096,-1.4436838968653363,13.15179638815661,-6.374102391225765
4.739189956310323,3.231223548434562,5.036747751172307,-1.5074249207775938,13.172678273970373,-6.365928038562146
4.771502191794669,3.362950331174266,5.021673501964531,-1.5710842011632153,13.045577500883901,-6.1043395522097414
4.805131695106412,3.4934061061831048,5.005962659952899,-1.6321275966853128,12.73380740950986,-5.531633079870375
4.840065756168243,3.620744180278203,4.989641383986045,-1.6874439274840165,12.205040557126063,-4.596616186702364
4.876273197971025,3.742794585849464,4.972766944711205,-1.7334100893510402,11.438434095717083,-3.265191699275585
4.9137011438295195,3.8571789268066348,4.955432843817695,-1.7660620063437962,10.432603681120785,-1.5322401082762502
4.952272933097586,3.9615049636178425,4.937772223754257,-1.7813844074265586,9.212139350276823,0.5685319817965124
4.991887982733764,4.053626357120611,4.919958379679991,-1.7756990876085934,7.829642397311436,2.961163924739867
5.03242424630497,4.131922781093725,4.902201388803905,-1.7460874483611948,6.360912427473901,5.53392267956241
5.073743474115907,4.1955319053684645,4.884740514320294,-1.6907482215655707,4.89327409479538,8.155820523979116
5.115698793169591,4.244464646316418,4.867833032104638,-1.6091900163257795,3.5101598897117094,10.698793974251323
5.158143439632756,4.279566245213535,4.85174113194138,-1.5022020765832662,2.2770078792414883,13.05831229503527
5.200939102084892,4.30233632400595,4.836719111175547,-1.3716189536329135,1.2328670852399128,15.166037501301918
5.243962465324951,4.314664994858349,4.823002921639218,-1.2199585786198943,0.3892870280434765,16.9921182008196
5.287109115273534,4.318557865138784,4.810803335853019,-1.0500373966116983,-0.26496171896962106,18.539034941036668
5.330294693924921,4.315908247949087,4.800302961886902,-0.8646470472013316,-0.7563468801606831,19.831206552787926
5.373453776404412,4.308344779147481,4.791656491414889,-0.6663349816734523,-1.1190252623996286,20.90436534965798
5.416537224195888,4.297154526523484,4.784993141598155,-0.45729132817687246,-1.3889417243623934,21.79712003655404
5.459508769461123,4.28326510927986,4.780420228316386,-0.23932012781133205,-1.6000483166442026,22.545456595779772
5.502341420553922,4.267264626113418,4.778027027038273,-0.013865561853534325,-1.7823715660246935,23.179859503904492
5.545014066815056,4.249440910453171,4.7778883714197375,0.2179330331855106,-1.9613772108653313,23.724318833701616
5.587508475919588,4.229827138344518,4.780067701751593,0.4551762215225268,-2.158096447548124,24.19648956474093
5.629806747303033,4.208246173869037,4.784619463966818,0.6971411171699361,-2.389611737183899,24.608444695537322
5.671889209041724,4.184350056497198,4.7915908751385174,0.9432255641253093,-2.669647058315404,24.967662569995273
5.713732709606695,4.157653585914044,4.801023130779771,1.192902189825262,-3.0091233116430294,25.278047353563398
5.755309245465836,4.1275623527976135,4.812952152678023,1.4456826633608961,-3.4166167801821605,25.540887291948433
5.796584868993812,4.093396184995792,4.827408979311632,1.7010915362803805,-3.8987042537005343,25.755717108639967
5.83751883084377,4.054409142458787,4.844419894674436,1.9586487073667802,-4.4602027615133935,25.92108230229187
5.878062922268358,4.009807114843653,4.864006381748104,2.217859530389699,-5.104323278352351,26.035215946887938
5.9181609934167945,3.9587638820601296,4.886184977052001,2.4782116898585786,-5.832762043093318,26.096641155827303
5.957748632237395,3.9004362616291965,4.910967093950587,2.7391781014168517,-6.645753718241525,26.104709873522374
5.996752994853687,3.8339787244467813,4.938358874964756,3.0002252001520753,-7.54210935871392,26.060084178132186
6.035092782098155,3.758557630859642,4.968361126966276,3.260826041933397,-8.51925987714995,25.965161523882777
6.072678358406751,3.6733650320881424,5.00096938738561,3.5204776571722247,-9.573322629087501,25.824441202408412
6.109412008727633,3.5776318057972674,5.036174163957332,3.778722069196309,-10.699204816633976,25.64482612715275
6.145188326785606,3.4706397576309276,5.073961384649295,4.035170330467836,-11.890752376617776,25.43585183643088
6.179894724361915,3.35173223386475,5.114313087953974,4.289528848832145,-13.140946520586064,25.209833002823043
6.2134120467005625,3.2203227686588893,5.157208376442296,4.5416271788603755,-14.44214163826822,24.981915916485573
6.245615274387151,3.0759013522762073,5.202624648230899,4.7914463380252315,-15.786327127076317,24.770021930396265
6.276374287909913,2.9180380810054443,5.250539111611151,5.039146557329194,-17.165380654725436,24.59465931296035
6.305554668719968,2.74638427445819,5.3009305771844435,5.285093150458797,-18.57125930477882,24.478565465081303
6.33301851146455,2.5606716814104016,5.353781508689032,5.52987880510961,-19.99604436250295,24.44611182467823
6.358625228278654,2.360711237785372,5.409080296740128,5.774339923356393,-21.431709002440563,24.522350176746105
6.382232340656508,2.1463941477609665,5.466823695973692,6.019563425123853,-22.869405749967967,24.731486155340374
6.403696282134117,1.9177000902612868,5.52701933022493,6.266878286677257,-24.297956716758105,25.094410228269783
6.42287328303673,1.674720523093706,5.589688113091703,6.517822388959955,-25.701052441506143,25.624665741176067
6.439620488267667,1.4177099986786446,5.654866336981303,6.774069046371715,-27.052400381801437,26.32184951776815
6.453797588254453,1.1471859948606302,5.72260702744502,7.0372875415493965,-28.307703354238114,27.16090268287014
6.465269448203059,0.8641089613182491,5.792979902860513,7.308896568378098,-29.391958853752467,28.075134011035377
6.473910537816241,0.5701893727807243,5.8660688685442945,7.589647908488452,-30.180455301699055,28.930514680724215
6.479612431544049,0.2683848197637338,5.941965347629179,7.878953055295694,-30.47290267478998,29.48999465962679
6.4822962797416865,-0.036344206984166016,6.020754878182136,8.173853001891962,-29.96450414790344,29.37221996536287
6.481932837671845,-0.33598924846320044,6.102493408201056,8.467575201545591,-28.22925314180739,28.02434903099501
6.478572945187214,-0.6182817798812743,6.187169160216512,8.74781869185554,-24.75253244182841,24.758342053037076
6.472390127388401,-0.8658071042995584,6.274647347135067,8.99540211238591,-19.073356624105813,18.932604159094247
6.463732056345405,-1.0565406705406166,6.364601368258926,9.184728153976852,-11.076777499418592,10.335876950449258
6.453166649639999,-1.1673084455348026,6.456448649798695,9.288086923481345,-1.3385054562393328,-0.355471711798867
6.441493565184651,-1.1806935000971959,6.549329519033508,9.284532206363355,8.797644913290966,-11.474109486242957
6.42968663018368,-1.0927170509642863,6.642174841097141,9.169791111500926,17.69643795630515,-20.993261218836178
6.418759459674037,-0.9157526714012347,6.73387275221215,8.959858499312563,24.21137471931776,-27.547868290529458
6.409601932960025,-0.6736389242080572,6.823471337205276,8.684379816407269,28.097063308858633,-30.94830310443749
6.402865543717945,-0.3926682911194708,6.910315135369348,8.374896785362894,29.798646141097485,-31.869415730013834
6.39893886080675,-0.09468182970849598,6.994064103222978,8.056202628062756,29.9939940234473,-31.23690071494313
6.397992042509665,0.20525811052597703,7.0746261295036055,7.743833620913325,29.27999037602034,-29.82693701209114
6.400044623614924,0.49805801428618046,7.152064465712739,7.445564250792414,28.072989246078016,-28.15479164464265
6.405025203757786,0.7787879067469606,7.226520108220663,7.1640163343459875,26.627049170538246,-26.513780152740598
6.412813082825256,1.0450583984523432,7.298160271564123,6.898878532818582,25.08367746000537,-25.048737798094805
6.423263666809779,1.2958951730523969,7.367149056892309,6.6483911548376335,23.515733469630753,-23.816842045226736
6.436222618540303,1.5310525077487045,7.433632968440685,6.410222734385366,21.95744508268709,-22.82756794030391
6.45153314361779,1.7506269585755754,7.497735195784539,6.181947054982327,20.422737062868016,-22.066229816850033
6.469039413203546,1.9548543292042555,7.559554666334362,5.961284756813827,18.915750810329882,-21.50702298449304
6.488587956495588,2.1440118373075543,7.6191675139025,5.746214526968896,17.43662568179917,-21.119957030830694
6.510028074868664,2.318378094125546,7.676629659172189,5.535014956660589,15.984533658041125,-20.874420128697324
6.5332118558099195,2.4782234307059574,7.731979808738795,5.326270755373616,14.559157633080755,-20.74095181276512
6.557994090116979,2.623815007036765,7.785242516292531,5.118861237245965,13.161299041727913,-20.692092628827584
6.5842322401873465,2.755427997454044,7.836431128664991,4.911940310957689,11.793004766678358,-20.702773235261496
6.611786520161887,2.8733580451208276,7.885550531774568,4.704912578605074,10.45743559766765,-20.750480986821252
6.640520100613095,2.977932401097504,7.932599657560618,4.497407768736862,9.15860476051176,-20.815320580998232
6.67029942462407,3.0695184487026217,7.9775737352479865,4.289254562926879,7.901062564863451,-20.880021243623176
6.700994609111096,3.148529074351256,8.020466280877255,4.080454350490648,6.689573363706672,-20.929910425694306
6.732479899854609,3.215424807988323,8.061270824382161,3.8711552462337044,5.528813390222199,-20.95285878930907
6.764634147934492,3.270712941890545,8.099982376844498,3.6616266583406136,4.42310698935696,-20.939195437270985
6.797341277353397,3.3149440117841147,8.136598643427904,3.4522347039679038,3.3762112952489933,-20.881591425523034
6.830490717471238,3.3487061247366046,8.171120990467584,3.2434187897126736,2.3911539868167937,-20.77491104041154
6.8639777787186045,3.3726176646047725,8.203555178364711,3.0356696793085582,1.4701246350738844,-20.6160326490405
6.897703955364652,3.3873189109555115,8.233911875157796,2.829509352818153,0.6144169959022904,-20.40364329175724
6.931577144474208,3.3934630809145343,8.262206968685977,2.625472919900581,-0.17558274804102375,-20.138013114516916
6.965511775283353,3.391707253434124,8.288461697884982,2.4240927887554116,-0.9003684070765416,-19.820757013513802
6.999428847817694,3.382703569363359,8.312702625772536,2.2258852186202738,-1.5612544148716263,-19.454591424280807
7.033255883511328,3.3670910252146427,8.334961477958739,2.031339304377466,-2.160292551241992,-19.04309407754953
7.066926793763474,3.345488099702223,8.355274871002514,1.8409083636019705,-2.7001724567188874,-18.59047387537253
7.100381674760496,3.318486375135034,8.373683954638533,1.6550036248482451,-3.184113046210932,-18.101356959086882
7.133566538511847,3.286645244672925,8.390233990887015,1.4739900552573764,-3.615751041312025,-17.580593702304927
7.166432990958576,3.2504877342598046,8.404973891439589,1.298184118234327,-3.999031769800599,-17.033089916639806
7.198937868301174,3.2104974165617985,8.417955732621932,1.127853219067929,-4.3381062297548665,-16.463664134644674
7.231042842466792,3.16711635426425,8.429234264812612,0.9632165777214822,-4.6372372719986235,-15.876931534992199
7.262714006009435,3.1207439815442637,8.438866430589826,0.8044472623715602,-4.900716686602428,-15.277213969688418
7.293921445824878,3.0717368146782396,8.446910903213542,0.651675122674676,-5.132794034851245,-14.668474681913796
7.32463881397166,3.020408874329727,8.453427654440288,0.5049903758555381,-5.337617276047848,-14.054275678308732
7.3548429027149576,2.9670327015692486,8.458477558198844,0.3644476190724507,-5.519184610567516,-13.437755331128695
7.38451322973065,2.9118408554635735,8.462122034389568,0.23007006576116376,-5.681306495300915,-12.82162360695842
7.413631638285286,2.8550277905105643,8.46442273504718,0.10185382969157955,-5.8275764743304554,-12.208172311908406
7.442181916190391,2.7967520257672596,8.465441273344096,-0.020227893427504515,-5.961349290264355,-11.599297864859363
7.470149436448064,2.737138532864616,8.465238994409821,-0.13622087207609815,-6.085724681951706,-10.996534315061403
7.4975208217767095,2.6762812860450986,8.463876785689061,-0.2461862152267122,-6.203535314806389,-10.401094564246861
7.52428363463716,2.6142459328970347,8.461414923536795,-0.3501971608691808,-6.317337415621834,-9.813917995846149
7.550426093966131,2.5510725587408163,8.457912951928103,-0.4483363408276423,-6.429402882844721,-9.23572291931979
7.575936819553539,2.4867785299123693,8.453429588519827,-0.5406935700208402,-6.541711907340546,-8.667062376599839
7.600804604852663,2.421361410838964,8.448022652819619,-0.6273641937868386,-6.655945461494343,-8.1083819082096
7.625018218961053,2.3548019562240206,8.44174901088175,-0.7084480128689346,-6.773477390066752,-7.560077826093442
7.648566238523293,2.287067182323353,8.43466453075306,-0.784048791129869,-6.895366256057154,-7.022554387502577
7.671436910346527,2.2181135197627815,8.426824042841762,-0.8542743350048948,-7.022347544513417,-6.4962780230677035
7.693618045544155,2.147890044317647,8.418281299491714,-0.9192371152355718,-7.154827283024073,-5.981826473817677
7.715096945987331,2.0763417714874066,8.409088928339358,-0.9790553799737486,-7.292878563623355,-5.479930387784979
7.735860363702205,2.003412985851173,8.39929837453962,-1.0338546838515983,-7.436242797844439,-4.991504688513907
7.755894493560716,1.9290505578727286,8.388959827701104,-1.0837697307367373,-7.584337744045639,-4.5176669431351115
7.7751849991394435,1.8532071804322723,8.378122130393736,-1.1289464001680884,-7.736274347816313,-4.0597401216294555
7.793717070943766,1.775844436954109,8.366832666392055,-1.169543801384383,-7.890884171419318,-3.6192376378945297
7.811475515313307,1.6969355952399159,8.355137228378211,-1.2057361777633284,-8.04675861627678,-3.1978294540160492
7.828444871265707,1.6164680090771482,8.343079866600577,-1.237714472303489,-8.20230026018806,-2.79728931529082
7.844609551356478,1.5344450064752675,8.330702721877543,-1.2656873654563972,-8.355785487366594,-2.4194247950584518
7.85995400142123,1.4508871516016015,8.31804584822298,-1.2898816134069817,-8.50543629361044,-2.0659936120734326
7.874462872937246,1.365832788665497,8.30514703208891,-1.310541549527716,-8.649497865138617,-1.7386114108010748
7.8881212008239014,1.2793378100141108,8.292041616593632,-1.3279276636357267,-8.78631745629755,-1.4386575936257664
7.900914578924042,1.1914746354511354,8.278762339957275,-1.3423142395719843,-8.914419425974454,-1.16718659568785
7.912829325278554,1.1023304411913908,8.265339197561556,-1.3539861055288627,-9.03257118852513,-0.924851995590215
7.923852629690468,1.0120047293061394,8.251799336506267,-1.363234625484765,-9.139835361596761,-0.7118499766440582
7.9339726769835295,0.9206063756901718,8.238166990251418,-1.3703531252512056,-9.235604511155005,-0.5278869644385786
7.943178740740431,0.8282503305786217,8.224463458998907,-1.3756319948955913,-9.319616455944413,-0.37217398780617134
7.951461244046217,0.7350541660191776,8.210707139049951,-1.379353734773653,-9.391949871289226,-0.24344777136182957
7.958811785706409,0.6411346673062853,8.196913601702216,-1.3817882124872714,-9.453001663995044,-0.14001613926292297
7.965223132379472,0.5466046506663349,8.183095719577343,-1.3831883738799007,-9.503449035760916,-0.05982332607093147
7.970689178886135,0.45157016030872577,8.169263835838544,-1.38378660714061,-9.544200139188973,-0.0005294855139697574
7.975204880489223,0.356128158916836,8.155425969767139,-1.3837919019957496,-9.576337679590132,0.04040184051705407
7.978766162078391,0.2603647821209347,8.141588050747181,-1.383387883590579,-9.601059745041109,0.06561432097452036
7.981369809899601,0.16435418467052365,8.127754171911276,-1.382731740380834,-9.619621651460063,0.07777272982737338
7.9830133517463056,0.06815796815592301,8.113926854507467,-1.3819540130825603,-9.633281809206299,0.0794841773217585
7.9836949314278645,-0.028174849936139973,8.100107314376642,-1.3811591713093427,-9.643253704579672,0.07322937060690048
7.983413182928503,-0.1246073869819367,8.086295722663548,-1.3804268776032738,-9.65066517857388,0.06130527447437957
7.982167109058683,-0.2211140387676755,8.072491453887515,-1.3798138248585299,-9.656525377156438,0.045779390828821036
7.979955968671007,-0.3176792925392399,8.05869331563893,-1.3793560309502417,-9.66169910279373,0.028454975162194376
7.976779175745614,-0.4142962835671772,8.044899755329428,-1.3790714811986198,-9.666887839190297,0.010845888366541984
7.972636212909943,-0.5109651619590801,8.031109040517443,-1.3789630223149543,-9.672616444662562,-0.005840569687452956
7.967526561290351,-0.6076913264057058,8.017319410294293,-1.3790214280118287,-9.679224390117193,-0.02071462033621744
7.961449648026294,-0.7044835703068777,8.003529196014174,-1.3792285742151909,-9.686860422398288,-0.033210477263734564
7.954404812323225,-0.8013521745308606,7.989736910272022,-1.3795606789878283,-9.695479628793208,-0.043089857503215735
7.946391290577917,-0.8983069708187927,7.975941303482144,-1.3799915775628604,-9.704842033559503,-0.050443787023021436
7.937408220869728,-0.9953553911543878,7.962141387706516,-1.3804960154330905,-9.714512048655767,-0.05569362981242951
7.927454666958185,-1.0925005116409454,7.948336427552185,-1.381052951731215,-9.7238583116785,-0.0595919157313478
7.916529661841775,-1.1897390947577304,7.934525898034873,-1.3816488708885284,-9.732053664004853,-0.06322317530300677
7.904632270894197,-1.287059631397779,7.920709409325988,-1.3822811026415585,-9.738075246028219,-0.0680046163765767
7.891761674580219,-1.384440383858061,7.906886598299572,-1.3829611488053242,-9.740704912096582,-0.07568610108327846
7.877917270741638,-1.4818474329790268,7.893056986811518,-1.383718009816157,-9.738530394525958,-0.08834850336448934
7.8630987964118475,-1.5792327369242862,7.8792198067133565,-1.384601494849802,-9.729947872268474,-0.10839915102368967
7.847306469042604,-1.6765322156469709,7.865373791764858,-1.385685486360039,-9.713166820998685,-0.13856269023602627
7.830541146886135,-1.7736638838569576,7.851516936901258,-1.3870711132623992,-9.686218228160694,-0.1818653713781045
7.812804508047565,-1.8705260661385645,7.837646225768634,-1.3888897669761802,-9.646967432727322,-0.2416104705449498
7.794099247386179,-1.9669957404658378,7.823757328098872,-1.3913058716816296,-9.593132970687211,-0.32134237195851184
7.774429289981521,-2.06292707017271,7.809844269382056,-1.3945192954012147,-9.522312840484183,-0.4247967972678356
7.753800019279794,-2.1581501985775517,7.795899076428044,-1.398767263373893,-9.432019506957912,-0.5558348453152732
7.732218517294018,-2.252470393647131,7.781911403794305,-1.4043256118270457,-9.31972469261572,-0.718358973996674
7.709693813357546,-2.3456676405732884,7.767868147676034,-1.4115092015670125,-9.182914518330861,-0.9162098847971599
7.686237136951814,-2.437496785756597,7.753753055660364,-1.4206713004149842,-9.019154821188387,-1.153044511813188
7.661862169094248,-2.527688333968481,7.739546342656214,-1.4322017455331162,-8.826165490417553,-1.4321969819260256
7.636585285754563,-2.6159499888726563,7.725224325200883,-1.4465237153523764,-8.601901459569746,-1.7565264487021353
7.610425785865837,-2.7019690034683537,7.710759088047359,-1.464088979839398,-8.34463666579894,-2.1282579711256204
