th1 (rad),w1 (rad/s),th2 (rad),w2 (rad/s)
3.056438432390468,0.6397575037910014,3.9675218688918417,0.8443166096789527
3.062836007428378,0.6069987427354208,3.975965034988631,0.93320749332444
3.068905994855732,0.5755617044557159,3.9852971099218757,1.0221138800938387
3.074661611900289,0.5455454423067879,3.995518248722814,1.1109729000727753
3.080117066323357,0.517050301762401,4.006627977723542,1.1997258045225199
3.085287569340981,0.4901779730863482,4.018625235768767,1.2883181695174455
3.090189349071845,0.46503152361368333,4.031508417463942,1.3767001259827105
3.094839664307982,0.441715405768046,4.04527541872377,1.4648266191903931
3.0992568183656624,0.4203354398519802,4.059923684915674,1.5526576967155052
3.103460172764182,0.4009987734872703,4.075450261882829,1.6401588198443797
3.1074701604990547,0.38381382216072146,4.091851850081273,1.7273011897154025
3.1113082987206617,0.3688901974765712,4.109124861978427,1.8140620762733481
3.1149972006954276,0.3563386312893574,4.12726548274116,1.900425135605658
3.118560587008321,0.34627090478888434,4.146269734097217,1.986380699517103
3.1220232960562098,0.33879979177466596,4.166133541092388,2.0719260203396477
3.1254112939739565,0.334039024780254,4.186852801295784,2.1570654539518417
3.128751684221759,0.3321032914226181,4.208423455835303,2.24181056471825
3.1320727171359852,0.3331082664324328,4.230841561482485,2.326180137420742
3.1354037998003097,0.3371706823731597,4.254103362856693,2.410200083063972
3.1387755066240413,0.34440843920594577,4.2782053636873325,2.4939032274948802
3.142219591016101,0.35494074973766815,4.303144395962281,2.5773289738694802
3.1457689985134776,0.3688883147315435,4.328917685700976,2.660522831927206
3.149457881660793,0.3863735181803659,4.355522914020248,2.7435358086154573
3.153321616842597,0.40752063003684713,4.382958272106402,2.8264236557030284
3.1573968231429657,0.43245600063275147,4.411222508663432,2.9092459705343896
3.161721383149293,0.46130822814049594,4.440314968368775,2.9920651459602934
3.166334465430698,0.49420827775492104,4.470235619828379,3.074945164737325
3.171276548208247,0.5312895287972876,4.5009850714757516,3.157950232371336
3.17658944349622,0.5726877236554619,4.532564573799465,3.2411432405829794
3.1823163207327747,0.6185407903597836,4.564976006205295,3.3245840514331855
3.1885017286363726,0.6689885086490922,4.5982218467196265,3.408327589833026
3.1951916137228635,0.7241719876227649,4.632305122617956,3.4924217298789
3.202433333599091,0.7842329215518029,4.667229339916745,3.576904958433794
3.210275662814609,0.8493125892276481,4.702998389501083,3.6618037978826288
3.218768788706886,0.9195505615071706,4.739616427479909,3.747129969320513
3.2279642943219575,0.9950830816730122,4.7770877271731145,3.8328772779162708
3.2379151251386875,1.076041084144055,4.815416499952277,3.9190182041930774
3.2486755359801283,1.162547819284368,4.854606681994207,4.005500188877536
3.260301014172972,1.2547160559801813,4.894661683882982,4.0922416052058175
3.272848174732774,1.3526448397494264,4.93558409993504,4.179127421566404
3.286374623130268,1.4564157929202386,4.9773753741507045,4.26600456951191
3.3009387810594704,1.5660889553716244,5.020035419845824,4.352677047839239
3.3165996706131864,1.6816981799371353,5.063562190324216,4.438900812860145
3.333416652412558,1.8032461161905198,5.107951198452818,4.524378528225524
3.3514491135744633,1.9306988401327216,5.153194983735073,4.60875427452658
3.3707561019757906,2.0639802151696665,5.199282526480339,4.691608348819559
3.3913959041274873,2.202966101208003,5.246198609968534,4.77245231620739
3.4134255651395673,2.347478562708743,5.293923133130608,4.8507245081403605
3.436900350766655,2.4972802615643315,5.342430378212012,4.925786193090874
3.461873153382298,2.6520692545396076,5.391688240142921,4.996918672107817
3.4883938459276944,2.811474445021763,5.4416574268639994,5.0633215714484825
3.516508590377912,2.9750519618344016,5.492290642578484,5.124112613832709
3.5462591099962557,3.142282750637177,5.543531768716812,5.1783291458665905
3.5776819375026276,3.312571662995073,5.595315060175477,5.224931679506825
3.610807654132578,3.485248312410889,5.6475643769705455,5.262809668944367
3.6456601372566872,3.659569934698898,5.700192473659989,5.290789691539725
3.682255836603676,3.8347264431443056,5.753100370575386,5.307646135036197
3.720603101035119,4.00984781022019,5.8061768319257485,5.312114417836515
3.760701579137321,4.184013842588792,5.859297976104114,5.3029066908160685
3.8025417175632086,4.356266351561767,5.912327043012274,5.278729894578311
3.8461043810788262,4.525623664328695,5.965114341958057,5.238305980638954
3.891360617722113,4.691097377935375,6.017497401764447,5.180394050893377
3.9382715915014668,4.851711230772191,6.069301342273381,5.103814123700287
3.9867887038091885,5.00652195272526,6.120339483510383,5.007472187063069
4.036853923336441,5.154641946542231,6.170414205381014,4.890386132857657
4.088400342801863,5.295263634939338,6.21931806670959,4.7517120589270485
4.141352979151256,5.427685262420993,6.26683518729886,4.590770255444746
4.195629831775467,5.551337850153102,6.312742889853308,4.4070699414629715
4.2511432102769975,5.665812855601493,6.356813589267937,4.200331484468348
4.307801338833013,5.7708898886788935,6.398816904112621,3.9705044400496528
4.365510237719802,5.866563605323488,6.4385219485131175,3.717779338571556
4.424175873773036,5.953068683364158,6.475699741898833,3.442590797130054
4.483706560606677,6.030901650940091,6.510125649870133,3.1456093430885463
4.544015577116078,6.100838363523775,6.541581743301019,2.8277193949328248
4.605023960751316,6.163946186912541,6.569858937250347,2.4899812235893655
4.6666634226204415,6.221590491734047,6.59475874948624,2.1335754199962302
4.728879327537782,6.275435908705497,6.616094503686202,1.7597293458207408
4.791633686624837,6.327443888650806,6.63369179714441,1.3696260753338068
4.854908125511345,6.379869363720448,6.647388057897748,0.9642972052441959
4.91870681914855,6.435260594326159,6.65703102995019,0.5445013441954794
4.983059425091811,6.496467489720285,6.662476043392145,0.11058985864268689
5.048024099989014,6.566664715767824,6.663581941978571,-0.33763957868370315
5.113690747146692,6.649396680089914,6.660205546191734,-0.8011028490718517
5.180184713947591,6.748651886332194,6.652194517701015,-1.281605965715046
5.247671232810913,6.868973767825387,6.639378458043865,-1.7820431374478347
5.316360970489167,7.015612700014058,6.621558026669386,-2.3066196463818875
5.386517097489308,7.194716038555524,6.5984918302055675,-2.8610932138263045
5.458464257874863,7.413530961203678,6.5698808980673045,-3.452996876668027
5.5325995674868995,7.68053674460402,6.535350929300624,-4.091723676909826
5.60940493493294,8.00527570292841,6.494433692531526,-4.788143767572744
5.6894576919622235,8.397291438735492,6.446552254855799,-5.552913950197304
5.773430606349579,8.86275183863333,6.391023115353826,-6.3914679768587135
5.8620581247359125,9.39567547553389,6.327108435585239,-7.291348140658419
5.956014879491251,9.958688085260036,6.254194954178654,-8.194772929312771
6.055601760343851,10.452158690353162,6.172247224885527,-8.954986127117552
6.160123347247382,10.701831100202865,6.0826973636143515,-9.31925588907816
6.267141658249411,10.551832290076648,5.98950480472357,-9.0616032228056
6.372659981150178,10.047073417303887,5.898888772495514,-8.242636864550736
6.473130715323217,9.409733355685315,5.816462403850006,-7.1782054906440464
6.56722804888007,8.816287724643045,5.744680348943566,-6.123543044256577
6.6553909261265005,8.327386253547486,5.683444918501,-5.171009942035972
6.738664788661976,7.943260480060688,5.63173481908064,-4.326385131033878
6.818097393462582,7.647306097457345,5.588470967770301,-3.5702704788284034
6.894570454437156,7.421983054603068,5.552768262982017,-2.881036864513877
6.968790284983187,7.252638625698284,5.523957894336879,-2.2407340508258295
7.041316671240169,7.127681947225838,5.50155055382862,-1.63573607926415
7.1125934907124275,7.037937457181478,5.485193193035979,-1.0561226218671464
7.182972865284242,6.975965605526181,5.474631966817308,-0.4949326051759868
7.252732521339504,6.93552544622125,5.469682640765548,0.05244986236893179
7.322087775801717,6.911188744218767,5.470207139389237,0.5887599010958843
7.3911996632439045,6.898079719270833,5.476094738400196,1.1152047679083106
7.460180460436613,6.8917128248099395,5.487246786079279,1.6317467300534125
7.529097588684712,6.887905657516339,5.503564253379813,2.137347771340947
7.597976645259875,6.88274818079172,5.524937731093223,2.630196442463108
7.666804127067792,6.872611880616507,5.551239695517854,3.1079266160532586
7.7355302458739565,6.8541838846962575,5.582318961678387,3.567829330935958
7.804072084720919,6.824512391833586,5.617997254987746,4.007052884351748
7.872317208639255,6.78105168648992,5.658067783831264,4.422783234083882
7.940127725504154,6.721697826991243,5.702295616172103,4.81239661192955
8.007344703774066,6.644809599030184,5.750419582291398,5.173578523318794
8.073792799764368,6.54921297735789,5.802155367524586,5.504407055112439
8.139284929537947,6.434190478770838,5.85719943807571,5.803402460494842
8.203626834325656,6.299458884825836,5.915233462680659,6.069548273487901
8.266621423173914,6.145139620636946,5.9759289454155375,6.302291042491613
8.328072819380283,5.971725687810426,6.038951855840454,6.501525974132166
8.387790076258387,5.7800478193466684,6.103967115581775,6.667574602111367
8.445590554451854,5.571240936214656,6.1706428616028886,6.801158579739687
8.501302963814,5.346710514084537,6.238654447400285,6.903371465415014
8.554770068954845,5.10809747470217,6.307688162054435,6.975648475165001
8.605851043701866,4.8572398888668396,6.377444646806086,7.019732980717338
8.654423442590534,4.5961301247583695,6.447641976613259,7.037638178171725
8.700384743838118,4.326866948936647,6.518018358394976,7.031602774262181
8.743653413327484,4.051603236509292,6.588334386137597,7.004040507944992
8.784169445692577,3.77249108285453,6.658374791217047,6.957484531360089
8.821894356521122,3.4916269728013414,6.7279496365306475,6.894528795914059
8.856810626249136,3.2110000797882305,6.796894924489788,6.8177693701249815
8.888920627047018,2.9324466772251703,6.8650726181910375,6.7297489110121695
8.91824509381927,2.657613100772646,6.93237010730116,6.632907301325714
8.944821224826995,2.38792884267548,6.998699180314417,6.5295408406019275
8.96870051325375,2.1245903676251534,7.063994588720436,6.421771497247214
8.989946416930001,1.8685552883846863,7.128212303692909,6.311526770181584
9.008631969813848,1.620545762319974,7.191327571394725,6.200529828724793
9.024837427437047,1.3810594423704101,7.253332869681973,6.090298906613194
9.038648021860752,1.1503860548509985,7.314235858748105,5.982154471470563
9.050151882409262,0.9286276531735078,7.37405740346281,5.877232475076251
9.059438158940997,0.7157207552913523,7.432829728213573,5.77650197673287
9.06659536649391,0.5114588484732878,7.490594747980902,5.680785567333462
9.071709954978644,0.3155140776657445,7.547402603654237,5.590781246444963
9.074865095755301,0.12745727597038803,7.603310416118687,5.507084665525252
9.076139668515005,-0.05322418335917131,7.658381262773939,5.43021090435979
9.075607426681414,-0.2271109495363433,7.712683371817537,5.360615163073448
9.07333631718605,-0.3948386606949291,7.766289523448272,5.2987119055313086
9.0693879305791,-0.5570870836943986,7.819276642503585,5.2448920631895986
9.063817059742156,-0.714570984302775,7.871725563135481,5.199537882815086
9.056671349899128,-0.8680320503776817,7.923720941963632,5.163034852464518
9.047991029395352,-1.0182308952799386,7.975351290488277,5.1357798315171985
9.037808720442552,-1.1659377615139057,8.026709088803448,5.118183988685599
9.026149342827413,-1.3119199612175758,8.077890928690305,5.1106683412863
9.013030143215238,-1.4569232549554159,8.128997612103168,5.113648493786602
8.998460910665683,-1.6016432096565705,8.180134097041034,5.127503495231668
8.982444478569118,-1.7466810604332035,8.23140913199335,5.15252152937688
8.964977667964785,-1.8924768454929861,8.282934347287119,5.188812570387971
8.946052899509855,-2.0392110707338413,8.334822472990998,5.236175836296869
8.925660788802517,-2.186666151892168,8.387184231353967,5.293909588969773
8.903794127283595,-2.3340430530599994,8.440123327243665,5.3605562790707175
8.880453696752994,-2.4797416045531784,8.493728890034372,5.433593806096431
8.855656280707462,-2.6211412597112176,8.548064828095336,5.509122660626693
8.82944486811035,-2.7544663770962075,8.603156054701603,5.581664512569905
8.801900204339388,-2.8748764243729497,8.658972699827302,5.644266736668416
8.773151440095658,-2.97694528863195,8.715415367193986,5.689141954852798
8.743381987209338,-3.055609557235811,8.772306786742513,5.7089566690223785
8.71282589163698,-3.1074212567697415,8.829396353432736,5.698545558388364
8.681751679069283,-3.131632083527318,8.886381809016621,5.656400603769544
8.65043535823401,-3.130544839537724,8.942945815054316,5.585157034342019
8.619129909838632,-3.108902648443568,8.998797385397737,5.490760717555123
8.588040883354196,-3.072639610955959,9.053704992573287,5.380764444332006
8.557314487244637,-3.0276081385192053,9.107512637016608,5.262599294160223
8.527038405859445,-2.978736163463917,9.16013862995821,5.142439641443838
8.497251044224805,-2.929707966344883,9.211563026372648,5.024784190874636
8.467953964561357,-2.883019078663745,9.261810868281394,4.912543293464966
8.43912377377472,-2.8402065385251487,9.310936301216044,4.807358897640766
8.410721708389469,-2.8021132253612273,9.359009890192452,4.709964869132481
8.382700576135857,-2.7691172425297608,9.406109538883776,4.6204953274127485
8.35500940371056,-2.74130608242071,9.452314492157903,4.538715225817327
8.327596342886352,-2.7185989122996728,9.497701644416077,4.464179099633578
8.300410353763356,-2.7008281552352384,9.542343435412413,4.39633403303588
8.273402072211004,-2.6877919581536927,9.586306775742772,4.334583034531703
8.246524152629467,-2.6792869749937984,9.629652606088088,4.2783217847559465
8.219731282879529,-2.6751283480703294,9.672435823935647,4.226958098490216
8.192979999398826,-2.6751616251850248,9.714705404920549,4.17992044830839
8.166228383146976,-2.6792697570044215,9.756504609403633,4.136659709687564
8.139435685576931,-2.687377207507468,9.797871206500508,4.096646793263459
8.112561913501857,-2.6994524564999662,9.838837674433142,4.059367855928121
8.085567388936857,-2.715509663243852,9.879431352992423,4.024318177601258
8.05841229230442,-2.7356099043771107,9.919674534768436,3.9909954453262184
8.031056193260648,-2.7598621301772477,9.9595844892217,3.958893030804434
8.003457571958876,-2.788423749722628,9.999173419529743,3.9274938433484987
7.975573334461649,-2.8215005166479052,10.038448357963228,3.8962654736232394
7.94735832929517,-2.8593451079677616,10.07741101269946,3.864657618415334
7.918764878215493,-2.9022534386445122,10.116057588883614,3.832103207785813
7.889742343829048,-2.9505573121451345,10.154378620961472,3.798025258256996
7.860236770707597,-3.004611468951491,10.192358873544041,3.761852245225183
7.830190656018082,-3.0647724986159925,10.229977395996293,3.723045667432502
7.7995429310319215,-3.131366543622459,10.267207852670618,3.6811442984931957
7.768229265595697,-3.2046424980992185,10.30401929565555,3.6358300231899316
7.736182840614705,-3.2847079456756956,10.34037759588745,3.5870194850588537
7.703335761157948,-3.3714470806507286,10.376247790738038,3.5349830200915493
7.669621290351441,-3.464424165614417,10.411597620938954,3.4804862651435147
7.634977048695297,-3.562783364243676,10.44640248359039,3.424939388816376
7.59934921505286,-3.6651657856391595,10.480651877478554,3.370524389811858
7.5626975571964685,-3.76967498585404,10.514357121376673,3.320255565963672
7.525000807337928,-3.873927796761091,10.54755967703631,3.2779195422839487
7.486261529370317,-3.9752208273872935,10.58033887245915,3.247849928603416
7.446509321096444,-4.070818520156481,10.612817371745184,3.234526501079518
7.40580113589488,-4.158328295983088,10.645162636755979,3.2420473364293954
7.364217852935049,-4.236086360998825,10.677583110120272,3.273584265074285
7.3218569893250605,-4.30345667102393,10.710318952771015,3.3309644869368995
7.278822422614821,-4.360962284357146,10.743628597640384,3.4144986933246457
7.23521279977125,-4.410219946694755,10.77777358457363,3.5231017293031095
7.191110600304302,-4.453711402762348,10.81300460186666,3.6546600402004152
7.1465734862766785,-4.494469155109671,10.849551202268666,3.806534505324525
7.101628794725582,-4.535764003899864,10.887616547321912,3.9760725927699694
7.056271154686583,-4.580860877325162,10.927377273249611,4.161034782621848
7.010462545913332,-4.6328751712282195,10.96898762107583,4.3598921261811645
6.964133794201049,-4.6947310467205785,11.01258654233764,4.5719993702832
6.917186483733843,-4.769204927778522,11.058306536040472,4.7976777368170636
6.869494434456058,-4.859032430596221,11.106283313408642,5.038252375083917
6.820904110150096,-4.967061141190837,11.156665837159482,5.2960880153877445
6.771233498738187,-5.096440306052991,11.209626717313359,5.5746599791842355
6.720269095677657,-5.250848202574212,11.265373317105201,5.878691874040977
6.6677606136519145,-5.434766800516767,11.32416023584561,6.214388430588952
6.613412945646747,-5.653819770290227,11.3863041201515,6.589791227560642
6.556874747943844,-5.915190232894548,11.452202032427106,7.015280843589516
6.4977228456148985,-6.228117116992111,11.522354840863,7.504223949838614
6.435441674444977,-6.604398012218313,11.597397080361386,8.073667862718453
6.369397694322794,-7.058598458554656,11.67813375898857,8.744673848620508
6.298811709737247,-7.606990478533455,11.765580497474776,9.540946616573132
6.222741804951913,-8.262346496442298,11.860989963640508,10.48178308466713
6.14011833998749,-9.016988537216355,11.96580779448718,11.558763660026093
6.049948454615326,-9.7985754174697,12.08139543108744,12.674485013422629
5.951962700440629,-10.392432567551245,12.208140281221667,13.534465031356715
5.848038374765117,-10.441627674636612,12.343484931535233,13.647168223967704
5.743622098018751,-9.792109385938033,12.47995661377491,12.804200003752761
5.6457010041593705,-8.794959794315755,12.607998613812438,11.496362507431893
5.557751406216213,-7.842641926004622,12.722962238886756,10.265410894918682
5.479324986956167,-7.0562423787363,12.825616347835943,9.275449471905045
5.408762563168803,-6.42306812457202,12.918370842554994,8.507398327371735
5.344531881923083,-5.906561724856717,13.003444825828712,7.91089854970446
5.285466264674516,-5.47522800852198,13.082553811325758,7.443550890197445
5.230713984589296,-5.105818888116301,13.156989320227732,7.074879575621671
5.179655795708133,-4.7815908980258355,13.227738115983948,6.783712133432248
5.1318398867278745,-4.490346559942202,13.295575237318271,6.555354615958308
5.086936421128453,-4.223004142512786,13.361128783477854,6.3795157219831635
5.0447063797033245,-3.97265660107535,13.424923940697685,6.248880883020117
5.004979813692571,-3.733985731941662,13.487412749527886,6.158117432651598
4.967639956373154,-3.5029276245912717,13.548993923854402,6.103136488388231
4.932610680127241,-3.2765228842475427,13.610025288738285,6.080492093106376
4.899845451284766,-3.052908805232076,13.670830209669349,6.086842328806868
4.869316363232445,-2.8314179673307907,13.731698632957418,6.1184362470216795
4.841002183559137,-2.612738035158984,13.792882995427634,6.170633765420746
4.814874803207547,-2.399061802794069,13.854589333081842,6.237518429928208
4.790884185179607,-2.1941221033828424,13.916964517381125,6.3117193481677925
4.768942964145778,-2.002983541329178,13.980081710862803,6.384593841656787
4.748913128732487,-1.8314865687691824,14.043927649279372,6.446892565410823
4.730598263044795,-1.6853407732954875,14.10839657493348,6.489894815340978
4.71374485531184,-1.569033618645058,14.173295523086889,6.506780293028633
4.69805451912539,-1.4848761615474468,14.238363326017176,6.493806712739281
4.683205757509915,-1.4325264274372054,14.303301393144569,6.450850463462436
4.668880493235544,-1.4091586831172949,14.367809897779193,6.381105959717344
4.654788906404371,-1.4101739054982592,14.431620957376365,6.290099693620234
4.640687167349388,-1.430149207328538,14.494521954312567,6.184424586364474
