th1 (rad),w1 (rad/s),th2 (rad),w2 (rad/s),a1 (rad/s^2),a2 (rad/s^2)
5.5061668005821955,1.1147505046526096,6.266011590830986,1.9616066708803264,11.456184089480237,-8.99274680111279
5.517314305628721,1.229312345547412,6.285627657539789,1.8716792028691984,11.324191789428943,-9.217152048566524
5.529607429084195,1.3425542634417014,6.304344449568481,1.7795076823835332,11.196703245953795,-9.46943039362288
5.543032971718612,1.4545212959012392,6.322139526392316,1.6848133784473043,11.074493632881198,-9.748153903378194
5.557578184677625,1.5652662322300512,6.338987660176789,1.5873318394135223,10.958405638261704,-10.05171681974454
5.573230846999925,1.6748502886126682,6.354860978570924,1.4868146712160768,10.849358254026775,-10.378361404338946
5.589979349886051,1.783343871152936,6.369729125283085,1.3830310571726874,10.748340783111793,-10.726187824517295
5.607812788597581,1.890827278984054,6.383559435854812,1.2757691789275145,10.65639172781175,-11.093147263863418
5.626721061387421,1.9973911962621713,6.396317127644087,1.1648377062888804,10.574561096267797,-11.477015685506993
5.646694973350043,2.1031368072248493,6.407965504706976,1.0500675494338105,10.503853402299333,-11.875343749359766
5.667726341422292,2.2081753412478426,6.418466180201314,0.9313141119402129,10.4451471499634,-12.285376173295555
5.6898080948347705,2.3126268127474767,6.427779321320716,0.8084603502072573,10.39908480283559,-12.703931228083503
5.712934362962245,2.4166176607758327,6.4358639248227885,0.6814210379264223,10.365925071443357,-13.127227990052374
5.737100539570003,2.5202769114902663,6.442678135202053,0.5501487580258986,10.345346794057736,-13.55064544441561
5.762303308684905,2.6237303794308438,6.448179622782312,0.4146423035817425,10.336190836233195,-13.96839370685844
5.788540612479213,2.727092287793176,6.452326045818129,0.2749583665131581,10.336123630455976,-14.373074024957823
5.815811535357145,2.8304535240977358,6.455075629483261,0.13122762626357984,10.34120400449287,-14.755101989600822
5.8441160705981225,2.9338655641426645,6.456387905745896,-0.01632339363242838,10.345335385480388,-15.101969816135561
5.873454726239549,3.0373189179974682,6.456224671809572,-0.16734309179378398,10.339591216782381,-15.397332801843797
5.903827915419524,3.140714830165292,6.454551240891634,-0.3213164198122219,10.311417410908694,-15.619929138643585
5.935235063721176,3.243829004274379,6.451338076693512,-0.47751571119865777,10.243749556476535,-15.742392009318683
5.96767335376392,3.3462664998391443,6.446562919581525,-0.6349396312918446,10.114145004581143,-15.730103218117279
6.0011360187623115,3.4474079498849557,6.440213523268606,-0.7922406634730174,9.894132690180468,-15.540384897683797
6.035610098261161,3.5463492767867604,6.432291116633876,-0.9476445124498554,9.549133288667111,-15.122538888033448
6.0710735910290285,3.6418406096734315,6.422814671509378,-1.09886990133019,9.039485742006288,-14.419502133848281
6.107491997125763,3.7322354670934943,6.411825972496076,-1.2430649226686727,8.323273568468794,-13.372104494006287
6.144814351796698,3.8154682027781823,6.399395323269389,-1.3767859676087357,7.361637582346547,-11.926894931381124
6.182969033824479,3.889084578601648,6.385627463593302,-1.496054916922547,6.126866781814788,-10.047924319597406
6.221859879610496,3.950353246419796,6.370666914424077,-1.596534160118521,4.61254972572515,-7.731417802153686
6.261363412074694,3.9964787436770473,6.354701572822892,-1.673848338140058,2.8434601179892467,-5.019963813177433
6.301328199511464,4.02491334485694,6.337963089441491,-1.7240479762718324,0.881249163935089,-2.0105615159381633
6.341577332960034,4.033725836496291,6.320722609678772,-1.744153591431214,-1.1782864725434952,1.1495525126677573
6.381914591324997,4.021942971770857,6.3032810737644605,-1.7326580663045366,-3.218340034453894,4.282137384582167
6.422134021042706,3.9897595714263177,6.285954493101415,-1.689836692458715,-5.122047119854457,7.208525250609293
6.46203161675697,3.938539100227773,6.269056126176828,-1.617751439952622,-6.794328518027844,9.781581809051827
6.5014170077592475,3.8705958150474946,6.252878611777302,-1.5199356218621038,-8.17683623010471,11.907811790508477
6.540122965909722,3.7888274527464474,6.237679255558681,-1.400857503957019,-9.251731260911468,13.553370338486014
6.578011240437187,3.696310140137333,6.223670680519111,-1.2653238005721588,-10.035359486099802,14.735393799928378
6.61497434183856,3.595956545276335,6.2110174425133895,-1.117969862572875,-10.566484787754874,15.505269093278011
6.650933907291323,3.4902916973987863,6.19983774388766,-0.9629171716400948,-10.894089426420944,15.9310422687395
6.685836824265311,3.381350803134577,6.19020857217126,-0.8036067489526998,-11.067900507760887,16.083570930111012
6.719650332296657,3.270671798056968,6.182172504681733,-0.6427710396515897,-11.13259339959342,16.0278756070777
6.752357050277227,3.159345864061034,6.175744794285217,-0.48249228358081264,-11.125178035076077,15.819055972288933
6.783950508917837,3.0480940837102732,6.170919871449409,-0.32430172385792333,-11.074543529101225,15.501346545854473
6.81443144975494,2.937348648419261,6.16767685421083,-0.1692882583993786,-11.00218938292735,15.108934723364824
6.843804936239133,2.8273267545899876,6.1659839716268365,-0.018198911165730358,-10.923447405752798,14.667541515397993
6.8720782037850325,2.7180922805324594,6.1658019825151795,0.12847650398824959,-10.848781592660652,14.196162676811666
6.899259126590358,2.609604464605853,6.167086747555062,0.27043813075636625,-10.784962573867631,13.708665853571553
6.925355171236416,2.5017548388671766,6.1697911288626255,0.4075247892920818,-10.736042153579866,13.215125336895678
6.950372719625087,2.394394417331378,6.173866376755546,0.5396760426610385,-10.704121798573093,12.72287645899924
6.974316663798401,2.287353199345647,6.179263137182157,0.666904807251031,-10.689939274794753,12.237317781767112
6.997190195791857,2.1804538065976997,6.185932185254667,0.7892779850687021,-10.693307042680473,11.762504993137302
7.018994733857834,2.073520736170895,6.193824965105354,0.9069030350000751,-10.713435315395259,11.301581179413773
7.0397299412195435,1.9663863830169426,6.202893995455355,1.0199188467942129,-10.74916793323384,10.857082612857464
7.059393805049713,1.8588947036846042,6.213093183923297,1.1284896729227876,-10.79915348663426,10.431151871414182
7.077982752086559,1.7509031688182617,6.224378080652524,1.2328011916369295,-10.861968798983392,10.025683044894897
7.095491783774741,1.6422834808284277,6.236706092568894,1.3330580220858785,-10.936207440272272,9.64241774960908
7.111914618583025,1.532921406425705,6.2500366727897525,1.4294821995819693,-11.020542444750143,9.283005822676826
7.127243832647283,1.4227159819782036,6.264331494785572,1.5223122578087376,-11.113769737302094,8.949040785212764
7.141470992467065,1.3115782846051827,6.279554617363659,1.6118026656608653,-11.214836768547404,8.642077249416408
7.154586775313117,1.1994299169197087,6.295672644020268,1.6982234381550294,-11.322859352067903,8.363635188822547
7.166581074482314,1.0862013233990298,6.312654878401818,1.781859790043255,-11.437128542796936,8.115194205683824
7.177443087716305,0.9718300379710604,6.3304734763022505,1.8630117321000932,-11.557108470636361,7.898179455198283
7.1871613880960155,0.8562589532646968,6.349103593623251,1.941993526652076,-11.682425244976326,7.713939588568642
7.195723977628663,0.7394347008149336,6.368523528889773,2.0191329225377626,-11.812846285670595,7.563715839139417
7.203118324636812,0.6213062379582276,6.38871485811515,2.0947700809291567,-11.948248634937316,7.4486000920297455
7.209331387016394,0.5018237516088544,6.409662558924442,2.169256081849454,-12.088573888110917,7.3694783460901965
7.214349624532482,0.38093801272774525,6.431355119742936,2.2429508653103563,-12.233766277328616,7.326954297361898
7.21815900465976,0.2586003499544591,6.45378462839604,2.316220408283975,-12.383689083912166,7.321245749143191
7.220745008159304,0.1347634591153374,6.4769468324788795,2.389432865775407,-12.538012889148842,7.352044105533817
7.222092642750457,0.00938333022384899,6.500841161136633,2.4629533068307454,-12.696067182420029,7.418324300763668
7.222186476052696,-0.1175773416003513,6.525470694204941,2.537136549838382,-12.856644594822754,7.518089234276534
7.2210107026366925,-0.24614378754857885,6.550842059703325,2.6123174421811477,-13.017744746141815,7.648029428621485
7.218549264761207,-0.37632123500999703,6.576965234125137,2.6887977364673628,-13.176242926856332,7.803075946104815
7.214786052411107,-0.5080836642785603,6.6038532114898105,2.766828495928411,-13.327468682749904,7.9758241084871635
7.209705215768321,-0.6413583511060594,6.6315214964490945,2.8465867370132827,-13.46468284617435,8.15581007275964
7.20329163225726,-0.7760051795678029,6.659987363819227,2.928144837740879,-13.578452097647986,8.328636631775256
7.195531580461582,-0.9117897005442828,6.689268812196636,3.0114312040586317,-13.655943113946439,8.474976287256744
7.186413683456139,-1.0483491316837472,6.719383124237223,3.096180966931199,-13.680201275929162,8.569539313006647
7.175930192139301,-1.185151144443039,6.7503449339065345,3.1818763600612656,-13.629550451820943,8.580194580327671
7.164078680694871,-1.3214466489612484,6.782163697507147,3.267678305864542,-13.47735654541286,8.467580193871283
7.150864214205258,-1.456220214415377,6.814840480565793,3.3523541078032553,-13.192532354341852,8.185731818178793
7.136302012061105,-1.5881455379587957,6.8483640216438255,3.434211425985043,-12.741290009024913,7.684441066788117
7.120420556681517,-1.7155584380490447,6.882706135903676,3.5110558366529245,-12.090684240870972,6.914115349424087
7.103264972301027,-1.8364652804577544,6.917816694270205,3.5801969901471655,-11.214287899769499,5.833638226006358
7.084900319496449,-1.9486081594554494,6.953618664171676,3.6385333724072293,-10.099731477607191,4.420887170938647
7.065414237901894,-2.0496054742315213,6.990003997895749,3.6827422441166155,-8.756768297771714,2.68407557075311
7.044918183159579,-2.1371731572092383,7.026831420336915,3.7095829998241467,-7.223288533944351,0.6703495923374877
7.023546451587487,-2.209406042548682,7.063927250335157,3.7162864957475215,-5.566072751998445,-1.5328344648757437
7.001452391162,-2.265066770068666,7.101090115292632,3.700958151098764,-3.874007344551617,-3.8067608171905927
6.978801723461314,-2.3038068435141823,7.138099696803619,3.662890542926858,-2.2442533845604915,-6.020312637846388
6.955763655026172,-2.326249377359787,7.1747286022328876,3.6026874165483944,-0.7652629792760963,-8.053291739969817
6.932501161252574,-2.333902007152548,7.210755476398371,3.522154499148696,0.49765525274323735,-9.816325633405343
6.909162141181048,-2.3289254546251157,7.245977021389858,3.4239912428146426,1.5097277014384787,-11.261138741812907
6.885872886634798,-2.313828177610731,7.2802169338180045,3.3113798553965137,2.26597982306702,-12.379669571756436
6.86273460485869,-2.291168379380061,7.31333073237197,3.1875831596789492,2.784571286056042,-13.195048714183663
6.839822921064889,-2.2633226665195005,7.345206563968759,3.055632672537113,3.0977902338694876,-13.749367777432518
6.817189694399694,-2.2323447641808056,7.37576289069413,2.9181389947627876,3.243729178862692,-14.092385964643324
6.794866246757886,-2.1999074723921788,7.404944280641758,2.7772151351163545,3.2602085829466145,-14.273313523192428
6.772867172033965,-2.1673053865627128,7.4327164319929215,2.6344819998844304,3.1812012571574066,-14.336007736076887
6.751194118168337,-2.135493373991139,7.459061251991766,2.4911219225236616,3.0352773828055537,-14.316915181198759
6.7298391844284255,-2.1051406001630832,7.483972471217003,2.347952770711674,2.845380688699134,-14.244813021076604
6.708787778426795,-2.076686793276092,7.50745199892412,2.2055046405009078,2.629331063367919,-14.141523096540206
6.688020910494034,-2.050393482642413,7.529507045329129,2.0640894095355056,2.400630542320659,-14.023024123573409
6.66751697566761,-2.026387177219206,7.550147939424484,1.9238591682997714,2.1693211191898034,-13.900622888366664
6.647253103895418,-2.004693966027308,7.569386531107481,1.7848529394161048,1.9427674897728358,-13.782015538403146
6.627206164235145,-1.9852662911295795,7.5872350605016425,1.6470327840320733,1.7263152634227932,-13.672175077609351
6.607353501323849,-1.9680031384953516,7.603705388341964,1.5103110332559797,1.5238173819874934,-13.574057903733403
6.5876734699388955,-1.9527649646754766,7.6188084986745235,1.3745704542186457,1.3380412663262655,-13.489148410237908
6.56814582029214,-1.939384552012214,7.63255420321671,1.2396789701162665,1.170976260091331,-13.417869649642636
6.548751974772018,-1.9276747894113007,7.644950992917873,1.10550027361984,1.0240615235004094,-13.35988838017612
6.529475226877905,-1.9174341741762966,7.656005995654072,0.9719013898180788,0.8983522861337493,-13.314339432174256
6.510300885136141,-1.908450651314959,7.6657250095522524,0.8387579954963362,0.7946392293116437,-13.279989832916796
6.491216378622991,-1.9005042590218426,7.6741125895072155,0.7059580971671683,0.7135326609789604,-13.2553587460207
6.472211336032773,-1.893368932412053,7.681172170478887,0.5734045097069613,0.655520446659093,-13.238805500802444
6.453277646708653,-1.8868137279454622,7.686906215575957,0.4410164546989369,0.6210064702165596,-13.228594925750656
6.434409509429198,-1.8806036632432965,7.691316380122946,0.3087305054414303,0.6103346936540616,-13.222946811285867
6.415603472796765,-1.874500316306756,7.6944036851773605,0.17650103732857164,0.6238025944397015,-13.220074503744591
6.396858469633698,-1.868262290362359,7.6961686955506465,0.044300292291125726,0.6616668007752758,-13.21821625908237
6.378175846730074,-1.861645622354606,7.696611698473558,-0.08788187029969796,0.724143045250056,-13.215661956980998
6.359559390506528,-1.8544041919021055,7.695732879770561,-0.22003848986950794,0.8114020530555215,-13.210777008224662
6.341015348587507,-1.8462901713715503,7.6935324948718655,-0.3521462599517545,0.9235626225866654,-13.202024713463425
6.322552446873791,-1.8370545451456837,7.690011032272348,-0.48416650708638875,1.0606829052174858,-13.187987899248311
6.304181901422335,-1.8264477160935089,7.685169367201484,-0.6160463860788719,1.2227507178272388,-13.167390330231141
6.2859174242614,-1.8142202089152364,7.679008903340695,-0.7477202893811833,1.4096736039113755,-13.139118147768444
6.267775222172247,-1.8001234728761226,7.6715317004468835,-0.8791114708588678,1.6212692799040427,-13.102241395821993
6.249773987443486,-1.7839107800770821,7.662740585738295,-1.0101338848170878,1.8572570498033127,-13.056035551852291
6.231934879642716,-1.765338209579049,7.652639246890124,-1.1406942403356106,2.117250733493495,-13.000002874517774
6.214281497546925,-1.7441657022441142,7.641232304486768,-1.2706942690807883,2.4007536247309047,-12.9338933057137
6.196839840524484,-1.720158165996805,7.62852536179596,-1.4000332021379254,2.7071559677357446,-12.85772461832807
6.179638258864516,-1.6930866063194476,7.614525029774581,-1.528610448321206,3.0357354121617512,-12.77180148110469
6.162707392801321,-1.66272925219783,7.599238925291369,-1.6563284631322528,3.3856608713891077,-12.676733117218472
6.1460801002793435,-1.628872643483939,7.582675640660046,-1.7830957943044374,3.7560001659660345,-12.57344926314768
6.129791373844504,-1.5913126418242785,7.564844682717002,-1.9088302869359142,4.145731780721264,-12.463214188860853
6.113878247426261,-1.5498553240170658,7.545756379847643,-2.0334624288245227,4.553760999362324,-12.347638618639715
6.09837969418609,-1.5043177140234425,7.525421755559398,-2.15693881501092,4.9789406036154915,-12.22868949274973
6.083336517045856,-1.4545283079872875,7.503852367409289,-2.279225709938417,5.420096234933245,-12.108697631167392
6.0687912339659835,-1.400327345637955,7.481060110309905,-2.400312686250091,5.876056415435477,-11.99036349738288
6.0547879605096036,-1.3415667814836003,7.457056983447404,-2.52021632122392,6.34568711068271,-11.876761406006969
6.041372292694768,-1.2781099103767732,7.431854820235165,-2.6389839352839894,6.827930588585304,-11.771342661883493
6.028591193591001,-1.2098306044909202,7.405464980882325,-2.7566973619028246,7.321848182228221,-11.677938244682139
6.016492887546091,-1.1366121226686379,7.377898007263297,-2.873476744349646,7.826666391016286,-11.60076173782699
6.005126766319405,-1.058345458758475,7.3491632398198,-2.989484361727916,8.34182553775963,-11.54441320892945
5.99454331173182,-0.9749272033808788,7.319268396202522,-3.104928493817211,8.86702990950048,-11.513884628031837
5.984794039698011,-0.886256904285874,7.2882191112643495,-3.220067340097529,9.402297896452335,-11.51456708032
5.975931470655152,-0.7922339253213506,7.256018437863374,-3.335213010900729,9.948010022654218,-11.552259369494987
5.968009131401939,-0.6927538250948084,7.222666307754367,-3.450735604595679,10.504951798019295,-11.63317642737776
5.961081593150991,-0.5877043071146155,7.18815895170841,-3.567067368869457,11.074346796915178,-11.763953948005236
5.955204550079844,-0.4769608391454637,7.152488278019716,-3.684706908349509,11.657872937929554,-11.951642382910803
5.950434941688389,-0.3603821097661682,7.11564120893622,-3.8042233321786174,12.257651057825068,-12.203678129010276
5.946831120590727,-0.2378055991879175,7.077598975614435,-3.9262601134687203,12.876188683575865,-12.527811242661969
5.944453064598848,-0.10904371235215884,7.038336374479748,-4.05153822589534,13.51625207452856,-12.931955484493075
5.943362627475326,0.026118808393126774,6.997820992220794,-4.18085778074027,14.180624074418093,-13.423905078946705
5.943623815559258,0.1679250491373077,6.956012414413392,-4.315096831529737,14.871680974189369,-14.010828898092248
5.945303066050631,0.3166418588792014,6.912861446098095,-4.4552051205106595,15.590683924583345,-14.698400433760805
5.948469484639423,0.47254869812503486,6.8683093948929885,-4.602189124848268,16.33662333327475,-15.489342076278232
5.953194971620674,0.6359149314577823,6.822287503644506,-4.75708254561105,17.10437103444451,-16.381044333899695
5.959554120935252,0.8069586418022274,6.774716678188395,-4.9208929889500475,17.88177988223788,-17.361756548752986
5.967623707353274,0.9857764406246062,6.725507748298894,-5.094510554437577,18.645230738609907,-18.404642746435158
5.97748147175952,1.1722287480107054,6.674562642754519,-5.278556981901929,19.35300663381176,-19.458811862355898
5.9892037592396274,1.365758814348823,6.621777072935499,-5.473145100525488,19.935911401824946,-20.436452102863925
6.002861347383115,1.5651179283670724,6.567045621930244,-5.677509621554127,20.28508836674212,-21.195894456865368
6.018512526666786,1.7679688120344936,6.510270525714703,-5.889468566122781,20.238741391732294,-21.522779815974072
6.036192214787131,1.9703562259518166,6.451375840053475,-6.104696364282521,19.573543630453976,-21.117085031748278
6.055895777046649,2.166091662256356,6.39032887641065,-6.315867214600004,18.01382574617311,-19.60385385108345
6.077556693669212,2.346229919718087,6.32717020426465,-6.511905753110839,15.280059002053632,-16.597258475141604
6.101018992866393,2.4990305097386236,6.262051146733542,-6.677878337862255,11.196931271378284,-11.846299314901493
6.12600929796378,2.6109998224524062,6.19527236335492,-6.79634133101127,5.848992893939537,-5.446342129001333
6.152119296188304,2.6694897513918017,6.127308950044807,-6.850804752301284,-0.30025935073755616,1.998361416625667
6.178814193702222,2.666487157884426,6.058800902521794,-6.830821138135027,-6.461833893859419,9.447181398593012
6.205479065281066,2.6018688189458317,5.990492691140443,-6.7363493241490975,-11.795883235998975,15.796153689860024
6.231497753470524,2.483909986585842,5.923129197898953,-6.578387787250497,-15.745374986334443,20.328032631843275
6.256336853336383,2.3264562367224975,5.857345320026448,-6.375107460932064,-18.185894012922084,22.90835164070894
6.279601415703608,2.1445972965932767,5.793594245417127,-6.146023944524974,-19.330683865255317,23.849211574942164
6.301047388669541,1.9512904579407235,5.7321340059718775,-5.907531828775553,-19.532944066345035,23.638547087180193
6.320560293248948,1.7559610172772733,5.673058687684122,-5.67114635790375,-19.13290454480194,22.73528747397915
