th1 (rad),w1 (rad/s),th2 (rad),w2 (rad/s),a1 (rad/s^2),a2 (rad/s^2)
2.4156631207926096,1.4086480474548868,1.9777672565768152,-0.8715848296072628,-5.038794086818357,-3.5948045777977575
2.4297496012671584,1.3582601065867033,1.9690514082807427,-0.9075328753852404,-4.853576196238743,-3.8653087799300527
2.4433322023330253,1.3097243446243159,1.9599760795268903,-0.946185963184541,-4.682678648407271,-4.123702452570916
2.4564294457792686,1.262897558140243,1.950514219895045,-0.98742298771025,-4.526639005670218,-4.369439028101223
2.469058421360671,1.217631168083541,1.9406399900179425,-1.0311173779912624,-4.385886289594438,-4.6021936731953135
2.4812347330415068,1.1737723051875966,1.9303288162380299,-1.0771393147232156,-4.260762740892424,-4.82182453629677
2.4929724560933826,1.1311646777786724,1.9195574230907977,-1.1253575600861834,-4.151540833787085,-5.028341455999473
2.504284102871169,1.0896492694408015,1.9083038474899359,-1.175640974646178,-4.058436405138238,-5.221880827474473
2.5151805955655773,1.0490649053894192,1.8965474377434741,-1.2278597829209228,-3.9816186927082033,-5.402685407201409
2.5256712446194713,1.009248718462337,1.8842688399142649,-1.281886636992937,-3.921217988345111,-5.571087957510203
2.535763731804095,0.9700365385788859,1.8714499735443355,-1.337597516568039,-3.8773315135758755,-5.727497770997443
2.5454640971898836,0.9312632234431272,1.8580739983786552,-1.3948724942780133,-3.850028025008918,-5.872389257707089
2.554776729424315,0.892762943193038,1.844125273435875,-1.453596386855084,-3.8393515596541565,-6.006291917121699
2.5637043588562456,0.8543694275964964,1.8295893095673241,-1.513659306026301,-3.845324638380795,-6.129781147768095
2.5722480531322107,0.8159161812126884,1.8144527165070612,-1.574957117503982,-3.8679511607143535,-6.243469466791495
2.5804072149443376,0.7772366696055448,1.7987031453320215,-1.6373918121718969,-3.9072191468697897,-6.347997818502443
2.588179581640393,0.7381644781368469,1.7823292272103024,-1.7008717903569213,-3.9631034138502628,-6.444026743618006
2.5955612264217613,0.6985334439983443,1.7653205093067332,-1.7653120577931014,-4.035568211943708,-6.5322272591057615
2.602546560861745,0.6581777618789072,1.7476673887288021,-1.830634330384159,-4.124569796199371,-6.613271361960725
2.609128338480534,0.6169320639169135,1.7293610454249606,-1.8967670440037663,-4.230058864471498,-6.687822119028867
2.6152976591197032,0.5746314752721985,1.710393374984923,-1.963645265194055,-4.351982759185659,-6.7565233396566
2.621043973872425,0.5311116476803419,1.6907569223329824,-2.031210498590621,-4.490287303701797,-6.8199888494285945
2.6263550903492288,0.48620877464332396,1.670444817347076,-2.099410387084907,-4.644918125385262,-6.878791392904911
2.631217178095662,0.43975959338947135,1.649450713476227,-2.1681983010139563,-4.815821305431218,-6.933451192809521
2.635614774029557,0.3916013803351592,1.6277687304660875,-2.2375328129420513,-5.002943189165725,-6.984424184596628
2.6395307878329084,0.3415719484435019,1.605393402336667,-2.3073770547880175,-5.206229188961177,-7.032089931000291
2.6429465073173435,0.28950965655389016,1.5823196317887869,-2.3776979540980205,-5.425621414088018,-7.076739203462976
2.6458416038828823,0.23525344241301,1.5585426522478067,-2.44846534613265,-5.66105496694681,-7.1185611986949695
2.6481941383070122,0.1786428927435419,1.5340579987864802,-2.5196509581196,-5.9124527525837,-7.15763034146439
2.6499805672344476,0.1195183652177049,1.5088614892052843,-2.591227261534244,-6.17971865789818,-7.193892611403165
2.6511757508866247,0.0577211786387231,1.4829492165899418,-2.6631661876482755,-6.462728968593451,-7.227151324374417
2.651752962673012,-0.006906111047211408,1.456317554713459,-2.7354377008920197,-6.761321906213779,-7.257052299904523
2.65168390156254,-0.0745193301093492,1.4289631777045388,-2.808008223891065,-7.075285185531829,-7.283068357360791
2.6509387082614464,-0.1452721819646675,1.4008830954656282,-2.880838907464673,-7.404341515528877,-7.3044831068950264
2.6494859864417997,-0.2193155971199563,1.3720747063909815,-2.9538837385336234,-7.748131997135994,-7.32037403855145
2.6472928304706,-0.2967969170913162,1.3425358690056453,-3.027087478919138,-8.106197410066546,-7.329594966167237
2.644324861299687,-0.3778588911919817,1.312264994216454,-3.1003834285808103,-8.477957432095604,-7.330757953487809
2.640546272387767,-0.46263846551293775,1.2812611599306458,-3.1736910081156884,-8.862687899879633,-7.322214939808831
2.6359198877326375,-0.551265344511734,1.249524249849489,-3.246913157513777,-9.259496303772115,-7.302039392646587
2.63040723428752,-0.6438603075494552,1.2170551182743512,-3.3199335514402426,-9.66729581283092,-7.268008446086937
2.6239686312120254,-0.7405332656777645,1.1838557827599487,-3.392613635901112,-10.084778252631535,-7.217586135376468
2.616563298555248,-0.8413810482040798,1.1499296464009376,-3.464789497254877,-10.510386609066822,-7.147908509564131
2.6081494880732072,-0.946484914294748,1.1152817514283888,-3.536268582350518,-10.942287806207625,-7.055771591432344
2.59868463893026,-1.0559077923568243,1.0799190656048836,-3.6068262982648416,-11.37834670386573,-6.937623352193642
2.5881255610066916,-1.1696912593954816,1.0438508026222353,-3.676202531786778,-11.816102476662918,-6.789561069317477
2.5764286484127368,-1.2878522841621107,1.0070887773043675,-3.744098142479953,-12.252748764064174,-6.607335627972822
2.5635501255711155,-1.4103797718027524,0.969647795879568,-3.810171498759681,-12.685119209320252,-6.3863644948956075
2.549446327853088,-1.537230963895955,0.9315460808919711,-3.874035143708637,-13.10968022001112,-6.121755219283681
2.5340740182141284,-1.668327766096066,0.8928057294548848,-3.935252695901474,-13.52253296534862,-5.808341376452253
2.517390740553168,-1.8035530957495522,0.8534532024958701,-3.9933361096659965,-13.919426753479804,-5.440732841734416
2.4993552095956724,-1.9427473632843504,0.8135198413992101,-4.047743438083341,-14.295785981063979,-5.013382138630379
2.479927735962829,-2.0857052230949904,0.7730424070183767,-4.097877259469644,-14.646752791841719,-4.520668321601737
2.459070683731879,-2.2321727510134077,0.7320636344236803,-4.143083942685662,-14.967247396786007,-3.956999408909469
2.436748956221745,-2.3818452249812676,0.6906327949968236,-4.182653936774757,-15.252047676290179,-3.3169337598756794
2.4129305039719324,-2.534365701744169,0.648806255629076,-4.215823274373514,-15.495889193119906,-2.5953199888189666
2.3875868469544907,-2.6893245936753685,0.6066480228853409,-4.2417764742617035,-15.6935860928858,-1.7874540313538974
2.3606936010177373,-2.8462604546042263,0.5642302581427239,-4.259651014575242,-15.840172569074305,-0.889250847089435
2.332230996471695,-3.0046621802949693,0.5216337479969715,-4.268543523046136,-15.931063648474524,0.10257301305122231
2.3021843746687454,-3.1639728167797148,0.4789483127665101,-4.2675177929156245,-15.962233048669313,1.1903110873183478
2.270544646500948,-3.323595147266408,0.43627313483735386,-4.255614682042441,-15.930404819029928,2.3750794266977637
2.237308695028284,-3.4828991954567075,0.39371698801692945,-4.2318638877754635,-15.833254450030358,3.656637641494463
2.202479703073717,-3.641231739957011,0.3513983491391748,-4.195297511360519,-15.66961416906887,5.033227803503027
2.166067385674147,-3.7979278816477,0.3094453740255696,-4.144965233325489,-15.439676273287649,6.501441729261749
2.12808810685767,-3.9523246443805764,0.2679957216923147,-4.079950816032871,-15.145187613043593,8.056128374681379
2.088564860413864,-4.103776520511012,0.22719621353198602,-3.999389532286057,-14.789627766089263,9.690354143246644
2.047527095208754,-4.251672798171905,0.18720231820912545,-3.9024859908535903,-14.378363080490965,11.39542976549923
2.005010367227035,-4.395456428976814,0.14817745830058954,-3.788531693198598,-13.918768699762325,13.16101790037375
1.961055802937267,-4.534644115974437,0.11029214136860355,-3.6569215141948606,-13.420311062545409,14.975335514813688
1.9157093617775225,-4.668847226599891,0.07372292622665494,-3.507168159046724,-12.89458441130929,16.82546412141639
1.8690208895115237,-4.797793070712984,0.0386512446361877,-3.3389135178325597,-12.355296838093963,18.697778771148258
1.821042958804394,-4.921346039093924,0.005262109457862103,-3.1519357301210773,-11.818204661370974,20.578503045878747
1.7718294984134546,-5.039528085707634,-0.026257247843348673,-2.9461506996622897,-11.300998751770722,22.45439209858988
1.7214342175563782,-5.152538073225341,-0.055718754839971574,-2.721606778676391,-10.823152959552997,24.31353930759031
1.6699088368241248,-5.260769602820871,-0.08293482262673549,-2.478471385600488,-10.405752963781069,26.146295060255362
1.6173011407959161,-5.364827132458682,-0.10771953648274037,-2.2170084349979344,-10.071333270911717,27.94627976660057
1.5636528694713294,-5.465540465167799,-0.1298896208327197,-1.9375456373319286,-9.843760009676453,29.711469000763486
1.5089974648196514,-5.563978065264564,-0.149265077206039,-1.6404309473242937,-9.748206566174499,31.4453283056
1.4533576841670057,-5.661460130926309,-0.16566938667928194,-1.3259776642682937,-9.811276691329203,33.15797977437824
1.3967430828577427,-5.759572897839601,-0.17892916332196487,-0.9943978665245112,-10.061333890207841,34.867391737999775
1.3391473538793468,-5.860186236741679,-0.18887314198720997,-0.6457239491445135,-10.529094298578919,36.600593646990454
1.28054549151193,-5.965477179727468,-0.1953303814786551,-0.27971801267460894,-11.24852834188404,38.394922280316685
1.2208907197146555,-6.077962463146309,-0.1981275616054012,0.1042312101285579,-12.25808418183612,40.299284544994634
1.1601110950831923,-6.20054330496467,-0.19708524950411563,0.5072240555785043,-13.602169998423992,42.37533796306102
1.0981056620335456,-6.33656500494891,-0.1920130089483306,0.9309774352091145,-15.33265915905214,44.69826103933533
1.0347400119840566,-6.489891596539431,-0.18270323459623944,1.3779600456024679,-17.509791875886055,47.356236625017026
0.9698410960186623,-6.664989515298291,-0.16892363414021477,1.851522411852638,-20.20097104763827,50.446520552776036
0.9031912008656794,-6.866999225774674,-0.1504084100216884,2.3559876173803986,-23.47400189806341,54.06318856842227
0.8345212086079327,-7.101739244755309,-0.12684853384788441,2.8966195030646213,-27.37706204510608,58.26560549469659
0.7635038161603795,-7.37550986520637,-0.09788233881723821,3.4792755580115875,-31.8886838850784,63.003956600354755
0.6897487175083159,-7.694396704057154,-0.06308958323712233,4.109315124015135,-36.80354324242536,67.95365192657417
0.6128047504677443,-8.062432136481409,-0.021996431996970982,4.788851643280877,-41.49297082234523,72.17305799360275
0.5321804291029302,-8.47736184470486,0.025892084435837785,5.510582223216904,-44.46981102012239,73.48752303364148
0.44740681065588156,-8.922059954906086,0.08099790666800682,6.2454574535533185,-42.84079435729429,67.72313381501206
0.3581862111068207,-9.350467898479028,0.14345248120354,6.922688791703439,-32.44381936130021,48.92815734490502
0.2646815321220304,-9.67490609209203,0.2126793691205744,7.411970365152489,-10.746978048293458,13.529276511932725
0.1679324712011101,-9.782375872574965,0.28679907277209926,7.5472631302718165,17.256917227911707,-31.255562416181586
0.07010871247536045,-9.609806700295849,0.36227170407481746,7.23470750611,39.2441928633387,-67.6528328924212
-0.02598935452759804,-9.217364771662462,0.43461877913591745,6.558179177185789,47.72280824137408,-84.63972060789679
-0.11816300224422266,-8.740136689248722,0.5002005709077754,5.711781971106821,45.75880175324075,-86.26912681163867
-0.2055643691367099,-8.282548671716315,0.5573183906188436,4.849090702990434,39.43248367902588,-81.0905726034521
-0.28838985585387306,-7.888223834926056,0.6058092976487479,4.038184976955913,32.4398907662429,-74.40901700752069
-0.3672720942031336,-7.563824927263627,0.6461911474183071,3.2940948068807057,26.18773200698087,-68.30597453339767
-0.4429103434757699,-7.301947607193818,0.6791320954871142,2.611035061546729,21.00395279742628,-63.30727243099832
-0.5159298195477081,-7.0919080792195555,0.7052424461025815,1.9779623372367456,16.84170771893813,-59.37395878387971
-0.5868489003399037,-6.9234910020301745,0.725022069474949,1.3842227493979484,13.561357530388197,-56.308021269980124
-0.6560838103602054,-6.7878774267262925,0.7388642969689284,0.8211425366981472,11.024242142143907,-53.893146089558684
-0.7239625846274683,-6.677635005304853,0.7470757223359099,0.28221107580256033,9.116967485058248,-51.93616238088984
-0.7907389346805168,-6.586465330454271,0.7498978330939355,-0.23715054800633806,7.752684086220252,-50.27490645716242
-0.8566035879850595,-6.508938489592068,0.7475263276138722,-0.7398996125779623,6.865878930229615,-48.77622508772764
-0.9216929728809802,-6.440279700289771,0.7401273314880925,-1.2276618634552388,6.406187385944085,-47.3321255608338
-0.9860957698838779,-6.376217826430331,0.7278507128535401,-1.7009831190635767,6.332892101381333,-45.856452588694765
-1.0498579481481811,-6.312888905416518,0.7108408816629043,-2.1595476449505244,6.610503730938668,-44.28252111082193
-1.1129868372023464,-6.246783868107131,0.689245405213399,-2.602372856058744,7.205432655638229,-42.56150755278615
-1.1754546758834177,-6.174729541550748,0.6632216766528116,-3.027987931586605,8.08366172715326,-40.66125488127368
-1.237201971298925,-6.093892924279216,0.6329417973369456,-3.434600480399342,9.20930909454497,-38.56517518004573
-1.2981409005417173,-6.0017998333337665,0.5985957925329521,-3.8202522321997994,10.543961411412097,-36.27102437614252
-1.358158898875055,-5.896360219219646,0.5603932702109542,-4.182962475961225,12.046647202047069,-33.78942935789686
-1.4171225010672515,-5.7758937471991745,0.5185636454513419,-4.5208567695401936,13.67431127157798,-31.14214294591085
-1.4748814385392433,-5.639150634483395,0.47335507775594,-4.832278198999302,15.382650059138596,-28.360072469526344
-1.5312729448840772,-5.485324133892009,0.425032295765947,-5.115878923694566,17.127177796183556,-25.481167051892726
-1.5861261862229972,-5.3140523559301736,0.3738735065290013,-5.370690594213493,18.864412406009922,-22.548259296200758
-1.6392667097822988,-5.125408231870074,0.32016660058686636,-5.596173187175501,20.553092804219673,-19.606947484879548
-1.6905207921009995,-4.919877303827878,0.26420486871511134,-5.792242662024297,22.1553593257669,-16.703586109927574
-1.7397195651392783,-4.698323710570209,0.20628244209486837,-5.959278523123572,23.637842099585274,-13.883435752006564
-1.7867028022449805,-4.4619452895743565,0.14668965686363264,-6.0981128806436375,24.972607699532162,-11.189013839677134
-1.831322255140724,-4.2122192125790345,0.08570852805719625,-6.210003019040409,26.137915387230677,-8.658685988963816
-1.8734444472665144,-3.950840058706728,0.023608497866792165,-6.296589878930047,27.118735937919247,-6.325539384132011
-1.9129528478535816,-3.6796526993275354,-0.0393574009225083,-6.359845272771367,27.90699345114387,-4.216579083863814
-1.9497493748468568,-3.4005827648160967,-0.10295585365022197,-6.402011063610005,28.50150648166514,-2.3522802722345952
-1.9837552024950178,-3.1155676999994455,-0.16697596428632203,-6.425533866332351,28.907628715087284,-0.7465124035287426
-2.0149108794950124,-2.8264914128485725,-0.23123130294964556,-6.432998990367639,29.136617563848095,0.593173346345017
-2.043175793623498,-2.5351252372100914,-0.29556129285332194,-6.427067256904189,29.204785990171047,1.6649293360516453
-2.0685270459955993,-2.243077377308381,-0.35983196542236384,-6.410417963543672,29.13251313925836,2.471730091127776
-2.090957819768683,-1.9517522459157974,-0.4239361450578006,-6.385700662632394,28.94319921843678,3.0203020149901865
-2.1104753422278413,-1.6623202537314297,-0.4877931516841245,-6.355497642482493,28.662248242830636,3.319948646036472
-2.1270985447651554,-1.3756977713031233,-0.5513481281089494,-6.322298156022128,28.316150003335245,3.381352489753661
-2.1408555224781867,-1.0925362712697708,-0.6145711096691707,-6.288484631124591,27.931712759933344,3.215423301432898
-2.151780885190884,-0.8132191436704373,-0.6774559559804166,-6.256330398110262,27.535474031234557,2.832247983284768
-2.1599130766275887,-0.5378644033580917,-0.7400192599615193,-6.228007918277415,27.153290984722457,2.2401840582331265
-2.1652917206611697,-0.26633149351086716,-0.8022993391442934,-6.205606077695084,26.81008509501354,1.4451326317281792
-2.1679550355962784,0.0017693574392682598,-0.8643553999212442,-6.191154751377802,26.529686060320113,0.450034449090984
-2.1679373420218857,0.2670662180424694,-0.9262669474350222,-6.186654406886892,26.334682025106236,-0.7453369939199214
-2.165266679841461,0.5304130382935317,-0.9881334915038912,-6.194107776826091,26.246126574753173,-2.144144519944094
-2.1599625494585255,0.7928743040410635,-1.050074569272152,-6.215549222025532,26.282860111185315,-3.7515516423481015
-2.152033806418115,1.0557029051529168,-1.1122300614924074,-6.253064738449013,26.460045772948863,-5.572592334304293
-2.1414767773665857,1.3203033628824055,-1.1747607088768977,-6.308790661792056,26.78625556815613,-7.607978070705735
-2.1282737437377617,1.5881659185639667,-1.2378486154948183,-6.384870442499113,27.258016163426195,-9.846363188491212
-2.112392084552122,1.8607460801982287,-1.3016973199198094,-6.483334074384025,27.850094902138625,-12.250684139666395
-2.09378462375014,2.139247029219615,-1.3665306606636496,-6.605840915780689,28.49905174657181,-14.735083938899276
-2.072392153457944,2.4242375466853328,-1.4325890698214565,-6.753191755169682,29.077209129284753,-17.12831838371533
-2.0481497779910907,2.7150096379781803,-1.5001209873731534,-6.924474939006835,29.35590197701771,-19.121766722586298
-2.020999681611309,3.0085686577483575,-1.5693657367632217,-7.115692606232698,28.964916642492078,-20.211161019165946
-1.9909139950338253,3.2982178241732782,-1.6405226628255487,-7.317804216424357,27.376778025042466,-19.67125920443969
-1.9579318167920925,3.571985604423703,-1.7137007049897923,-7.514516808468755,23.983154692122515,-16.6565930243135
-1.9222119607478554,3.811817151344928,-1.7888458730744798,-7.68108273871189,18.35472471366527,-10.55584832345864
-1.884093789234406,3.995364398481581,-1.8656567004615987,-7.786641221946477,10.678879458216064,-1.5942991671107534
-1.8441401452495902,4.102153193063741,-1.9435231126810635,-7.8025842136175845,2.0679863942864967,8.738959901606192
-1.8031186133189527,4.1228330570066065,-2.021548954817239,-7.715194614601523,-5.762160398836905,18.12978636708398
-1.7618902827488867,4.065211453018238,-2.0987009009632542,-7.533896750930683,-11.412947275947223,24.699036325962318
-1.7212381682187043,3.9510819802587656,-2.174039868472561,-7.28690638767106,-14.478720653198828,27.919549676343458
-1.6817273484161166,3.806294773726777,-2.2469089323492715,-7.007710890907625,-15.409305716782022,28.41639722292464
-1.6436644006788488,3.652201716558957,-2.316986041258348,-6.7235469186783785,-14.954577197834096,27.204513901921867
-1.6071423835132592,3.502655944580616,-2.3842215104451316,-6.45150177965916,-13.764234666279583,25.14888696078651
-1.572115824067453,3.36501359791782,-2.448736528241723,-6.200012910051295,-12.269124087532026,22.811713476468135
-1.538465688088275,3.2423223570424997,-2.510736657342236,-5.9718957752866135,-10.712638137597777,20.501372556182865
-1.50604246451785,3.1351959756665218,-2.570455615095102,-5.766882049724785,-9.21547534433404,18.36333979160099
-1.474690504761185,3.0430412222231813,-2.62812443559235,-5.583248651808775,-7.828082877359988,16.45211483700642
-1.444260092538953,2.9647603934495814,-2.6839569221104376,-5.418727503438711,-6.563984624414394,14.776148017268431
-1.4146124886044573,2.8991205472054373,-2.7381441971448246,-5.270966023266027,-5.41873317175205,13.322923126420502
-1.3856212831324028,2.844933215487917,-2.790853857377485,-5.137736792001822,-4.3800192212620646,12.072032076294663
-1.3571719509775237,2.8011330232752965,-2.842231225297503,-5.017016471238875,-3.432808589759886,11.001602626733547
-1.3291606207447708,2.7668049373776977,-2.8924013900098915,-4.90700044497154,-2.561816032004004,10.091225602374356
-1.301492571370994,2.7411867770576577,-2.9414713944596067,-4.806088188947796,-1.7526012910755286,9.32310149111094
