th1 (rad),w1 (rad/s),th2 (rad),w2 (rad/s)
4.692405946064766,1.9926216992602586,4.454226801393825,-0.7902004115543142
4.7123321630573685,2.0810085349377956,4.446324797278282,-0.7719718156100999
4.733142248406747,2.167270578624692,4.438605079122182,-0.7492638385636318
4.754814954192994,2.251191288112105,4.431112440736546,-0.7215852467715576
4.777326867074114,2.332582348127178,4.42389658826883,-0.688480612226023
4.800652690555386,2.4112886173609045,4.41701178214657,-0.649540001508033
4.8247655767289945,2.487191056639981,4.410516382131489,-0.6044061589128681
4.849637487295395,2.560207407496888,4.404472320542361,-0.5527788181297623
4.875239561370363,2.6302906003940447,4.398944532361063,-0.49441607127480697
4.901542467374304,2.6974250737624588,4.394000371648315,-0.42913301184869856
4.928516718111928,2.7616213491133426,4.389709041529828,-0.3567981064089915
4.956132931603062,2.822909313830958,4.3861410604657385,-0.2773279086467916
4.984362024741372,2.8813307048432906,4.38336778137927,-0.1906807972879749
5.013175331789805,2.936931268576494,4.381460973406391,-0.09685040143669071
5.04254464447557,2.9897530097750917,4.380492469392024,0.004140707793667722
5.072442174573321,3.03982685244722,4.380533876469961,0.11224660733569304
5.102840443097793,3.087165938571553,4.381656342543319,0.2274025857870577
5.133712102483508,3.131759698945445,4.383930368401189,0.34952851300674587
5.165029699472963,3.173568755290112,4.387425653531256,0.4785309715290937
5.196765387025864,3.2125206580214396,4.392210963246547,0.6143042050615007
5.228890593606078,3.2485064303687032,4.398354005297162,0.7567300134716105
5.261375657909765,3.281377874384318,4.405921305431878,0.9056767750241862
5.294189436653609,3.310945593910269,4.41497807318212,1.0609978096597226
5.327298892592712,3.3369776993082794,4.425588051278718,1.2225293167776334
5.360668669585794,3.3591991744275016,4.437813344446494,1.3900881317679161
5.394260661330069,3.3772919040849994,4.451714225764173,1.5634695508639087
5.4280335803709185,3.3908953771074284,4.467348921272812,1.7424454759694357
5.4619425341419925,3.3996080931814245,4.484773376032506,1.9267631309478102
5.495938615073807,3.4029897093909827,4.504041007341984,2.116144598408924
5.5299685121677165,3.400563962877078,4.525202453326073,2.3102874204401234
5.563974151796487,3.391822398497237,4.548305327530474,2.5088664965733916
5.59789237578146,3.37622891414905,4.573393992496208,2.711537495813507
5.631654664922951,3.353225111608935,4.600509367454343,2.9179419749077824
5.66518691603904,3.3222364081474254,4.629688787203421,3.1277143604261113
5.698409280120514,3.2826788256313697,4.6609659308076825,3.3404909060300936
5.731236068376828,3.2339663324196026,4.694370839867983,3.55592067710973
5.763575731701024,3.175518573877892,4.729930046639081,3.7736785413086102
5.795330917439802,3.106768796716402,4.767666832052167,3.993480053385542
5.8263986054069665,3.0271717603642423,4.807601632586023,4.215098012929371
5.856670323010609,2.9362114488708912,4.849752612715316,4.438380337017401
5.886032437499318,2.83340846844317,4.89413641608549,4.663268714318353
5.91436652218375,2.7183271658076573,4.940769103228674,4.889817269133561
5.941549793841826,2.5905827705160793,4.989667275920009,5.118210122440994
5.967455621546987,2.4498493085431527,5.040849377144419,5.348776222334563
5.991954114632419,2.2958697432276383,5.094337139367765,5.581999012964053
6.014912812064695,2.1284709063975598,5.150157129497405,5.818517233874833
6.0361975211286705,1.9475874876336494,5.208342301836153,6.0591111022787265
6.055673396005007,1.753301942658219,5.2689334128589405,6.304664900477412
6.0732064154315895,1.5459110497407471,5.331980061863715,6.556091978061354
6.088665525928997,1.3260354137800459,5.397540981644329,6.814200687577722
6.101925880066798,1.0947957105094304,5.465682988520106,7.079469312791425
6.112873837171892,0.8540881442779952,5.53647768164802,7.351685308511258
6.121414718614672,0.6069979297071716,5.609994534733133,7.629393493673757
6.127484697911744,0.358383381202812,5.68628846966987,7.909102542842523
6.1310685317237725,0.11562110216602281,5.765379495098296,8.18425043320831
6.132224742745433,-0.11061666117621152,5.847221999430379,8.444084142809967
6.131118576133671,-0.3059232357630745,5.931662840858478,8.67293043765111
6.128059343776041,-0.45276243652200454,6.018392145234989,8.850788022431356
6.1235317194108205,-0.5329724983057041,6.106900025459303,8.956388134273375
6.118201994427763,-0.5323856113095197,6.196463906802037,8.973035187361639
6.112878138314668,-0.4460159050519039,6.286194258675653,8.895196304043537
6.108417979264149,-0.28063663710001124,6.375146221716089,8.731656764014598
6.105611612893149,-0.052563933111790084,6.462462789356235,8.502442014258756
6.105085973562032,0.21796213425291078,6.547487209498822,8.23147381928104
6.107265594904561,0.5121608311583866,6.629801947691632,7.939794265622304
6.112387203216145,0.8155105854334473,6.709199890347856,7.642323221949141
6.12054230907048,1.118085583499739,6.785623122567348,7.3478183446518965
6.131723164905477,1.4136520782057347,6.859101306013867,7.060338879869933
6.145859685687534,1.6985198791609446,6.929704694812566,6.780906508826322
6.162844884479144,1.9705970030334434,6.997513759900829,6.508815880945432
6.182550854509478,2.228739192165998,7.062601918710284,6.242514667914694
6.204838246431138,2.4723456828422328,7.125027065389431,5.980143012718319
6.22956170325956,2.7011258050487608,7.184828495516614,5.719844314347665
6.256572961310048,2.9149735551073817,7.24202693866009,5.4599343758786025
6.2857226968611215,3.1139064522218662,7.296626282418877,5.198986327033237
6.31686176138334,3.298040641842048,7.348616145689209,4.935866257913734
6.34984216780176,3.4675849437647854,7.397974808268346,4.669739900597208
6.384518017239408,3.6228433997198755,7.444672207274318,4.400061935712401
6.420746451236607,3.764220139801771,7.488672826631443,4.126554516620025
6.458388652634624,3.8922230356923038,7.529938371797643,3.849178898677452
6.497310882991547,4.0074642752319045,7.568430160784417,3.568102671950638
6.537385525743866,4.110657058971621,7.604111187503923,3.2836644340075494
6.578492096333582,4.202608303904167,7.636947831843998,2.99633745576051
6.620518179372623,4.284207664640696,7.666911206401603,2.706693786359363
6.66336025601903,4.356413414935587,7.693978144265197,2.4153702031902866
6.7069243901683855,4.420235810071553,7.7181318462971,2.1230373884959346
6.751126748269101,4.476718495207639,7.739362220182059,1.830373691238662
6.795893933221177,4.526918350298219,7.757665957094446,1.5380448228981698
6.841163116724159,4.571883877753562,7.773046405323427,1.2466908664483434
6.8868819555016945,4.612631850429892,7.78551331398791,0.9569220851824412
6.933008274005993,4.650121449037414,7.795082534839735,0.669325239656643
6.979509488496367,4.6852245371185095,7.801775787236301,0.3844824834227483
7.026361733867552,4.718690071084816,7.805620612070529,0.10300540690886317
7.0735486345784,4.75109998603678,7.806650666139618,-0.1744126400504437
7.121059634438768,4.782813389044822,7.804906539739113,-0.44692240575872283
7.168887768329216,4.813895859508288,7.800437315681526,-0.7134194428187973
7.217026726924299,4.844031734626624,7.793303121253338,-0.9724180668690192
7.265467044270565,4.872420535507558,7.783578940584648,-1.2219017775608507
7.31419124962564,4.897665772181057,7.771359922809039,-1.459163486555636
7.363167907347451,4.917677043093533,7.756768287943483,-1.6806668424875382
7.412344677778386,4.929625243655309,7.739961619518608,-1.8819864745411574
7.46164093021494,4.930012182759569,7.721141754773196,-2.057914768623701
7.5109410520425355,4.9149274825712235,7.700562607086959,-2.2028379522292734
7.560090326868248,4.880543848145043,7.678534227564667,-2.3114514951862217
7.608895765349698,4.823822384820828,7.6554197126128045,-2.379770067046636
7.657133989197906,4.7432682589463795,7.631622011942338,-2.4061994027937117
7.7045666717873695,4.639462799914624,7.607560017914401,-2.392275729653527
7.750961299786516,4.515113276785142,7.5836372606178655,-2.34270282373021
7.796112432554367,4.374554365083876,7.560210232380563,-2.2645953572861077
7.839857976205206,4.222896639128466,7.537564278807702,-2.166213095872858
7.882086942596491,4.0651558283040785,7.515902147848974,-2.0556694626858354
7.9227385008795315,3.905629923296428,7.495345453222115,-1.9400021663849483
7.961794800112496,3.747612280147725,7.475945431558266,-1.8247356224011184
7.999270922913973,3.5933798245638253,7.457698075334255,-1.71384889980292
8.03520472115961,3.4443391650007964,7.440559586336226,-1.6099800002270916
8.069648112809618,3.3012281257583678,7.424459786333955,-1.5147170545686754
8.102660394067202,3.164310034905809,7.409312615788268,-1.4288838619843882
8.13430349441626,3.0335333906665234,7.395023777168424,-1.3527782122834318
8.164638828322925,2.908651318706619,7.38149599504559,-1.2863533374417735
8.19372534150999,2.789305442432284,7.368632461671172,-1.2293481021580974
8.221618395934314,2.675081967005799,7.356338980649591,-1.1813765747803122
8.248369215604372,2.5655475865797306,7.344525214901788,-1.1419876588880682
8.274024691470169,2.460271420921057,7.333105338312907,-1.1107036392227487
8.29862740567938,2.3588376091082788,7.321998301920679,-1.087044330534523
8.322215781770462,2.2608518334633594,7.311127858615334,-1.0705416197101982
8.344824300105095,2.165944010772277,7.300422442418232,-1.0607477189097188
8.366483740212818,2.0737686429851485,7.289814965229135,-1.0572393761967809
8.38722142664267,1.9840038038073304,7.279242571467167,-1.059619539925977
8.407061464680742,1.8963493890532501,7.268646376067907,-1.0675174601377924
8.426024958571276,1.8105250271004656,7.257971201466529,-1.080587864895794
8.44413020884228,1.7262678939931677,7.247165322817572,-1.0985096196097854
8.461392887782212,1.6433305793969006,7.236180226621474,-1.1209841256241913
8.477826193576181,1.561479086664303,7.224970385365232,-1.1477336148908808
8.493440984442824,1.4804910105930313,7.213493049216323,-1.1784994328433922
8.508245894548754,1.4001539119621493,7.201708054887889,-1.2130403598588366
8.522247433668376,1.3202638932869932,7.189577651289301,-1.2511309950755825
8.535450072601247,1.240624371930392,7.177066341338545,-1.2925602096140962
8.547856316320551,1.1610450424567855,7.164140739242404,-1.3371296659767127
8.55946676674512,1.0813410184189087,7.150769442582637,-1.3846523943070435
8.570280176929309,1.0013321436501297,7.136922918639566,-1.434951412779468
8.58029349836581,0.9208424639659123,7.122573404511772,-1.4878583776905088
8.58950192300547,0.8396998515431964,7.107694820734866,-1.5432122482083064
8.597898921520901,0.7577357758773714,7.092262698252783,-1.6008579508049625
8.605476279279674,0.6747852169343012,7.076254118744734,-1.6606450289038728
8.612224131449018,0.5906867177974038,7.059647668455695,-1.7224262640783028
8.618130998626992,0.5052825756687563,7.042423405814912,-1.7860562561664153
8.623183824383679,0.4184191714490602,7.024562843253247,-1.851389950897785
8.627368016098169,0.32994743923345143,7.006048943744269,-1.9182811050663653
8.630667490490504,0.23972347786047526,6.9868661326936055,-1.9865806809671913
8.633064725269108,0.14760930708061143,6.967000325883934,-2.056135163786808
8.634540818339914,0.053473770905725956,6.946438974246066,-2.126784797958482
8.635075556048971,-0.042806409804796414,6.925171126266481,-2.198361741225592
8.634647491950924,-0.14134543454089887,6.9031875088542245,-2.270688138362881
8.633234037605515,-0.24224707085584224,6.880480627470596,-2.343574120242679
8.630811566896957,-0.3456031557505126,6.857044886268169,-2.416815738246837
8.627355535339452,-0.45149195706074796,6.832876728885701,-2.4901928489412137
8.622840615768846,-0.5599764051600616,6.8079748003962886,-2.5634669694471146
8.617240851717245,-0.6711022100849126,6.782340130701817,-2.6363791300265427
8.610529829616397,-0.7848958847805785,6.755976339401552,-2.708647756964433
8.602680870768591,-0.9013627014902345,6.728889861831908,-2.7799666257478663
8.59366724375369,-1.0204846152530243,6.701090195574429,-2.850002931617602
8.583462397601158,-1.142218195864002,6.672590166258253,-2.918395531547782
8.572040215642518,-1.2664926172415392,6.643406210942775,-2.984753418282364
8.559375289470102,-1.3932077606455182,6.6135586767599515,-3.0486544928574224
8.545443211863647,-1.5222324952374944,6.583072131831377,-3.1096447066672037
8.530220886911271,-1.6534032056789667,6.551975684764705,-3.1672376471776573
8.513686854854482,-1.7865226414198185,6.520303308292928,-3.2209146424634603
8.495821628440284,-1.9213591656496947,6.488094161868293,-3.270125458510266
8.476608036783787,-2.0576464832434165,6.455392907283191,-3.3142896594458793
8.456031571951353,-2.1950839261997612,6.422250010688732,-3.3527986944340276
8.434080732689356,-2.33333737195814,6.388722023744392,-3.38501876592212
8.410747358969775,-2.472040864643818,6.354871836085171,-3.4102945224637486
8.386026950323338,-2.610799001959555,6.320768890860534,-3.42795360572954
8.359918960303743,-2.7491901414555215,6.286489354803239,-3.4373120659019087
8.332427058889188,-2.8867704696743646,6.25211623414422,-3.437680642667234
8.303559354192444,-3.02307896654634,6.2177394277175475,-3.4283718904990255
8.273328564526981,-3.1576432855940917,6.1834557088125575,-3.408708106521521
8.24175213167104,-3.2899865578917504,6.149368627747342,-3.3780299961073372
8.208852266092123,-3.4196351137967027,6.115588327786269,-3.335705984084395
8.174655914954156,-3.5461271002751693,6.082231267945425,-3.281142046085363
8.139194643951404,-3.6690219518315788,6.049419847484572,-3.2137918929529308
8.102504424433087,-3.787910648107174,6.017281928555042,-3.133167289118719
8.064625317952016,-3.9024266598090316,5.985950255663855,-3.038848222126583
8.025601051353926,-4.012257446156476,5.955561773442589,-2.930492565067658
7.985478476892361,-4.117156322217936,5.926256847791913,-2.807844788987162
7.944306913670181,-4.216954466053787,5.898178399902041,-2.6707431935669756
7.902137369009644,-4.311572788621474,5.8714709679663715,-2.5191250400193046
7.859021641123429,-4.401033351683093,5.846279717566178,-2.3530289014247487
7.815011307606598,-4.48547000049661,5.822749428551931,-2.172593505679652
7.770156607601632,-4.565137890216629,5.801023493495134,-1.9780523473824225
7.724505228699466,-4.640421638829821,5.78124297002131,-1.7697233967935997
7.678101012311168,-4.711841944116526,5.763545736053374,-1.5479933394609615
7.630982592870002,-4.780060662445944,5.748065802658765,-1.3132959328948266
7.583181986245543,-4.845884562382123,5.734932843329816,-1.066084249329287
7.534723140621722,-4.910268229032994,5.724272000836524,-0.8067967575041144
7.485620458331392,-4.974316893154875,5.716204033261483,-0.5358173442810998
7.435877289399843,-5.039290275862901,5.710845859818671,-0.25342944788947647
7.385484386641214,-5.106608857709191,5.708311565339777,0.04023556835340997
7.334418298064122,-5.177864282235881,5.708713921023311,0.34525585325300734
7.282639655241764,-5.254835868908938,5.712166479555841,0.6619826812934039
7.230091296552674,-5.339515405406862,5.718786306368775,0.9911110042603752
7.1766961424986055,-5.434142440028242,5.7286974164113795,1.3337580421608106
7.1223547180983235,-5.541252022273366,5.742034996832988,1.6915509868078509
7.06694219787559,-5.663735823022629,5.7589505067010665,2.066723831280038
7.0103048396453636,-5.804914851008378,5.779617745013867,2.4622198261615287
6.95225569113528,-5.968615453436279,5.804239943275482,2.8817870521569717
6.8925695366009165,-6.15922532358222,5.833057813797051,3.330033536568377
6.830977283365094,-6.381672889990573,5.866358149162735,3.81236122749739
6.767160554465188,-6.641200885498621,5.904481761437708,4.334595732753851
6.700748545610202,-6.942651998033488,5.947827718765247,4.9019135145881005
6.631322025629867,-7.28868227581343,5.996846853911127,5.516243910660609
6.558435202871733,-7.675805103846288,6.052009293017734,6.170605689065297
6.48167715183327,-8.086652818282387,6.113715349908387,6.8381238721391355
6.400810623650446,-8.477800141053992,6.182096588629778,7.454848902811385
6.316032622239906,-8.76953577164693,6.256645077657892,7.905470696612584
6.228337264523437,-8.860904712618442,6.335699784624018,8.044924203873048
6.139728217397252,-8.69395983910636,6.416149026662748,7.78966200390752
6.052788619006188,-8.317432053746419,6.4940456467018235,7.208153787401757
5.969614298468724,-7.850282596097822,6.566127184575841,6.469788381218807
5.891111472507746,-7.39067904384965,6.630825068388028,5.716002649137532
5.817204682069249,-6.983794407434943,6.687985094879403,5.013871037847471
5.7473667379949,-6.639612381616546,6.738123805257878,4.3805084765674485
5.680970614178735,-6.353514634671798,6.781928890023552,3.811908280106087
5.617435467832017,-6.116878756432016,6.8200479728246135,3.297967400510647
5.556266680267697,-5.921087259919936,6.8530276468297195,2.828289773183959
5.497055807668498,-5.758686728350568,6.881310544561559,2.3939592968873593
5.439468940384992,-5.62352143573695,6.905250137530433,1.9878365556296684
5.383233726027623,-5.510558428297664,6.92512850308673,1.604391747382724
5.328128141744646,-5.415657189615064,6.941172420560557,1.2394358218684676
5.273971569848495,-5.335363166388229,6.9535667787792415,0.8898658584285895
5.2206179381846125,-5.266743339658201,6.9624654373635275,0.5534531054643098
5.16795050478803,-5.20726231753057,6.96799996841817,0.2286732266233779
5.115877881612724,-5.154692281379394,6.9702867006844045,-0.08542950090254009
5.06433095879893,-5.1070497455370365,6.969432405675379,-0.38935288893353864
5.01326046134356,-5.062553015097378,6.965538876786043,-0.6832297113350594
4.962634931192586,-5.0195952917993,6.958706579672692,-0.9669080148891482
4.912438978274593,-4.97672926802239,6.949037499523801,-1.2400222985852167
4.862671685594369,-4.932659738733186,6.936637276537948,-1.5020574936035738
4.813345088207036,-4.886241311924971,6.921616701601913,-1.7524065536819124
4.764482675087787,-4.836478780042087,6.904092636065093,-1.9904217115150487
4.716117887287366,-4.7825281793215435,6.884188418949943,-2.215459043709519
4.66829260549415,-4.723697034849829,6.862033828512848,-2.426915869344788
4.621055635145652,-4.659442764555379,6.8377646698194,-2.624260622611049
4.574461207500098,-4.589368674668594,6.81152206359329,-2.8070551119222404
4.528567520753413,-4.513217392597489,6.783451512474067,-2.9749694248003826
4.483435346827438,-4.430861921645675,6.753701818226063,-3.1277900837805728
4.439126727610981,-4.342294745072822,6.722423917388258,-3.265422343299013
4.395703780160253,-4.247615547161553,6.6897696939552675,-3.3878877028403505
4.353227624688637,-4.147018162266784,6.655890816926864,-3.495317783252505
4.31175744306597,-4.040777326371444,6.620937639094339,-3.5879456778781225
4.271349669802255,-3.9292357131946787,6.585058182315557,-3.6660957699240693
4.2320573126703085,-3.812791613974033,6.548397224616317,-3.730172832152477
4.193929396530568,-3.6918874899844543,6.511095496294792,-3.7806510255993566
4.157010521630724,-3.56699950795225,6.473288986038798,-3.8180632177865568
4.121340526551202,-3.438628072773592,6.435108353860933,-3.8429908680454954
4.086954245823466,-3.307289305097981,6.396678445180478,-3.8560545903925956
4.053881352772486,-3.173507373793223,6.358117899276552,-3.857905407642063
4.022146279034554,-3.037807581536001,6.319538845200131,-3.849216652753558
3.991768203219194,-2.900710109819189,6.281046678672595,-3.8306764491514547
3.962761102121002,-2.7627243505656236,6.24273991418108,-3.802980702856765
3.9351338586153455,-2.624343778444704,6.204710107152513,-3.766826556887133
3.9088904208308985,-2.4860413450045793,6.167041841583642,-3.7229062841245337
3.884030007380853,-2.348265398401508,6.129812778742397,-3.671901621685649
3.860547353396838,-2.2114361480155322,6.09309376252554,-3.614478572538567
3.8384329919166826,-2.075942700377829,6.056948976800155,-3.5512827154401756
3.8176735649129045,-1.9421406917732582,6.021436149645753,-3.482935070818199
3.798252157995172,-1.8103505348441236,5.986606798937571,-3.410028568132909
3.7801486526467305,-1.6808562833955043,5.9525065132562425,-3.33312515080702
3.7633400898127753,-1.5539051035646452,5.9191752617481725,-3.2527535399878316
