th1 (rad),w1 (rad/s),th2 (rad),w2 (rad/s)
5.741810452900542,-1.8071942054632044,2.049916340306413,3.0951134786585843
5.72373851084591,-1.7581830100953544,2.0808674750929987,3.0328446070425765
5.706156680744956,-1.7092834951841351,2.1111959211634246,2.9753476999842707
5.689063845793115,-1.660074095230177,2.1409493981632672,2.9227538013414396
5.672463104840813,-1.6101657020535625,2.1701769361766816,2.875199463364312
5.656361447820277,-1.5592105744361582,2.198928930810325,2.832808590958114
5.640769342075916,-1.5069115483382527,2.227257016719906,2.7956748399638234
5.625700226592533,-1.4530305720848924,2.2552137651195445,2.763845765995435
5.611169920871684,-1.3973955758418446,2.282852222779499,2.737309974190794
5.597195965113266,-1.3399047960045136,2.310225322521407,2.715988386643185
5.5837969171532205,-1.2805279136891017,2.3373852063878386,2.699730423949279
5.57099163801633,-1.2193037058559306,2.3643825106273315,2.688315429930721
5.55879860095777,-1.1563342974018513,2.391265664926639,2.681459127793368
5.547235257983751,-1.0917764794345932,2.4180802562045725,2.678824373802613
5.536317493189405,-1.0258308613580551,2.4448684999425985,2.680035059713848
5.526059184575825,-0.9587298072036113,2.471668850539737,2.684691772195966
5.516471886503789,-0.8907251505991746,2.4985157682616967,2.692387772932455
5.507564634997797,-0.8220765965174979,2.525439645991021,2.702724003141535
5.4993438690326215,-0.7530415326345322,2.5524668860224367,2.7153220947710026
5.491813453706277,-0.6838667322810832,2.5796201069701468,2.7298347240845637
5.484974786383466,-0.6147821792740057,2.606918454210992,2.745953007280053
5.478826964590726,-0.5459970191576566,2.634377984283793,2.7634109597840286
5.473366994399149,-0.477697465381532,2.662012093881633,2.7819872878306895
5.468590019745334,-0.4100463725976043,2.68983196675994,2.80150494003297
5.464489556019358,-0.3431841308347663,2.7178470161602695,2.8218289218405053
5.461057714711011,-0.27723052426430117,2.7460653053786745,2.842862881968479
5.458285409468368,-0.2122872233716513,2.774493934198359,2.8645449369438856
5.456162537234651,-0.14844062599785585,2.8031393835677982,2.886843127839159
5.454678130974673,-0.08576481914120553,2.83200781484619,2.9097508190536105
5.453820482783261,-0.024324490730114147,2.861105323036726,2.933282265269114
5.45357723787596,0.035822327042722854,2.890438145689417,2.9574684975210648
5.453935461146387,0.09462175696031756,2.9200128306646276,2.9823536168647498
5.45488167871599,0.15202185768280524,2.949836366833275,3.007991535632913
5.456401897292818,0.20797069932228998,2.9799162821896044,3.0344431710993085
5.458481604286042,0.2624147285506227,3.0102607139005975,3.0617740727369944
5.461105751571548,0.31529740646283766,3.0408784546279675,3.090052449999773
5.464258725636176,0.3665580958312154,3.071778979127965,3.119347560449983
5.4679243065944885,0.41613117149627343,3.102972454732465,3.1497284161156243
5.4720856183094515,0.4639453273043529,3.134469738893621,3.181262767525236
5.476725071582495,0.5099230542981601,3.1662823665688733,3.214016328636487
5.481824302125476,0.5539802670955728,3.1984225298552382,3.248052210870935
5.487364104796432,0.5960260580407422,3.2309030519639474,3.2834305400012935
5.493324365376839,0.635962561420511,3.2637373573639605,3.3202082352422524
5.499683990991044,0.6736849125667796,3.296939439716383,3.358438935276426
5.506420840116712,0.7090812888569116,3.330523829069147,3.3981730609332677
5.51351165300528,0.7420330213862781,3.36450555967848,3.4394580087484803
5.5209319832191435,0.7724147673679967,3.398900139765965,3.482338473641408
5.5286561308928235,0.800094734090399,3.433723524502379,3.526856902473625
5.536657078233728,0.8249349455252369,3.468992093527115,3.573054083333517
5.54490642768898,0.8467915424316702,3.50472263436045,3.620969878084813
5.553374343113297,0.8655151060511567,3.5409323331412983,3.6706441080882866
5.562029494173808,0.8809509942487049,3.5776387742221814,3.722117605130181
5.570839004116295,0.8929396772416363,3.614859950273483,3.7754334415520097
5.579768400888711,0.9013170578862616,3.6526142846890033,3.8306383554674377
5.588781571467574,0.905914758887991,3.6909206682436775,3.8877843888777446
5.597840719056453,0.9065603562894021,3.729798512132455,3.946930758575774
5.606906322619348,0.903077535209968,3.7692678197182126,4.008145982091171
5.615937097971448,0.895286140108831,3.8093492795391244,4.071510283721855
5.624889959372536,0.8830020878846545,3.8500643823763427,4.137118309071241
5.633719980251382,0.8660371080087123,3.891435565467055,4.205082180619063
5.64238035133147,0.8441982697483593,3.9334863872732457,4.275534931825634
5.650822334028954,0.81728725259031,3.976241736591502,4.348634363178508
5.658995206554857,0.7850993125498097,4.019728080223287,4.424567370394005
5.6668461996803545,0.7474218946860545,4.063973753927227,4.503554802423683
5.674320418627215,0.7040328417017739,4.109009301951464,4.585856914341664
5.681360747044233,0.6546981514031422,4.154867871094881,4.6717794862902515
5.687907728558264,0.599169244366589,4.201585665957784,4.7616806819932265
5.69389942100193,0.5371797212458476,4.249202472777716,4.855978714552764
5.699271218214388,0.4684416231019595,4.2977622599232435,4.955160365763577
5.703955634445408,0.39264126843635455,4.3473138635808795,5.059790355064807
5.707882047129772,0.3094348445886517,4.397911767131528,5.170521453551424
5.710976395575658,0.21844410750433418,4.449616981667042,5.288105050127168
5.713160836650701,0.11925284002171566,4.5024980321683135,5.413401538577774
5.714353365050918,0.011405213142689025,4.556632047554091,5.547389301624381
5.7144674171823455,-0.10559198379315562,4.612105940570335,5.69117004673328
5.713411497344414,-0.2322599190766004,4.669017641037668,5.845966510913193
5.7110888981536485,-0.36912554149733745,4.7274773061468,6.013105630527928
5.707397642738675,-0.5166774564749906,4.7876083624520795,6.193975430886301
5.702230868173925,-0.6752848604928992,4.849548116760943,6.389936034533066
5.695478019568996,-0.8450555908180883,4.913447477106273,6.602152877921653
5.687027463660815,-1.0255964140554659,4.97946900588549,6.8313021217899115
5.67677149952026,-1.2156223776610584,5.0477820271033895,7.077074837325827
5.66461527574365,-1.4123481857046507,5.1185527754766476,7.337385224140762
5.650491793886603,-1.6106027876157492,5.191926627718055,7.6071950273504
5.634385766010446,-1.801687546907132,5.267998577991559,7.87696779723109
5.6163688905413744,-1.9722385229256991,5.34676825596387,8.131086565909332
5.596646505312117,-2.103840644446729,5.428079121622963,8.347228110307311
5.57560809886765,-2.174730964621675,5.5115514027260355,8.49849417188943
5.553860789221433,-2.164822790716827,5.59653634444493,8.559969896031836
5.532212561314265,-2.063212670994213,5.682136043405248,8.518579939365837
5.511580434604323,-1.8738218252601004,5.767321842798906,8.380375251746097
5.492842216351722,-1.6142808381982716,5.8511255953163674,8.168735563633142
5.476699407969739,-1.3084861743128093,5.932812950952699,7.9142574943230795
5.46361454622661,-0.9785542325212488,6.01195552589593,7.6441510758958415
5.453829003901398,-0.6406700563532857,6.0883970366548885,7.37706820673411
5.4474223033378655,-0.30483923751490477,6.1621677187222295,7.1231497400248704
5.4443739109627165,0.023562328133305555,6.2333992161224785,6.886342861957839
5.44460953424405,0.34205713134399784,6.302262644742057,6.666824456134837
5.44803010555749,0.6497656261158931,6.368930889303405,6.462762805475806
5.454527761818649,0.9465836164501417,6.433558517358163,6.271403206414777
5.46399359798315,1.2327114693762082,6.496272549422311,6.089675610052752
5.4763207126769124,1.5084053212018402,6.557169305522838,5.9145122296306045
5.491404765888931,1.773858254013526,6.616314427819145,5.74300352891976
5.509143348429066,2.029154597578229,6.673744463108342,5.572469480183276
5.529434894404848,2.274264411292672,6.729469157910175,5.400488951392729
5.552177538517775,2.5090595972995056,6.783474047424102,5.224909891225614
5.57726813449077,2.733341262684049,6.835723146336358,5.043851603795803
5.6046015471176105,2.946872420124544,6.886161662374316,4.855704177610701
5.634070271318856,3.1494125069719527,6.934718704150423,4.659126803790845
5.665564396388575,3.340751464657832,6.981309972188331,4.453045003226965
5.698971911035153,3.520741795940706,7.025840422220601,4.236645973967722
5.734179328994561,3.6893274098556708,7.068206881960278,4.009370983955092
5.771072603093117,3.846568338935907,7.108300591799829,3.7709037586334118
5.809538286482476,3.9926606563845493,7.146009629386164,3.521154026416159
5.849464893046322,4.127951171341077,7.181221169650326,3.2602357114462253
5.890744404759732,4.2529467484786,7.213823526764788,2.988439649097434
5.933273872244518,4.368318376335105,7.243707923255762,2.7062011038183162
5.976957056007869,4.474900378350398,7.270769934293945,2.414062758230885
6.021706059791373,4.5736853959580825,7.294910561876254,2.11263419298412
6.067442913750954,4.665815944058288,7.316036903806095,1.8025491774519966
6.114101073191537,4.752573411247311,7.334062395580616,1.4844223491572703
6.16162680730401,4.835365309049988,7.348906619072189,1.1588071089139225
6.20998046039451,4.915711311578209,7.360494690161328,0.8261568723453383
6.259137573510292,4.995228088882891,7.3687562588847815,0.48679232738482087
6.3090898543991205,5.075611994467578,7.37362418215863,0.14087826869599457
6.359845974343797,5.158617105362861,7.37503296484559,-0.2115847372313755
6.411432145397425,5.246023576507381,7.372917117473277,-0.5707456077900417
6.463892381162499,5.339587189820765,7.367209661395377,-0.9368515201184286
6.517288253060707,5.440954495228131,7.357841146194192,-1.310138267813289
6.5716977980129885,5.5515179308661065,7.34473976351606,-1.6906267633008216
6.6272129773216495,5.672170771003001,7.327833495883052,-2.0777704571305997
6.683934685031679,5.802903328043785,7.307055791311746,-2.469873417452547
6.7419637183121175,5.942166226334296,7.2823570571372205,-2.8631782524209672
6.801385380575461,6.085936886216456,7.253725274613011,-3.2505399157023476
6.862244749437625,6.226519410929895,7.221219875455987,-3.619737526231726
6.924509943546925,6.351390875719406,7.18502250019367,-3.951879469755597
6.988023852304119,6.442967602358403,7.145503705496114,-4.221150571998931
7.052453528327703,6.480784100641984,7.103292199776124,-4.398018622815881
7.117261369334123,6.447243091560139,7.059312013547966,-4.4575237177876055
7.181733800249725,6.335439691301965,7.014736776370089,-4.390484709693906
7.245088197162744,6.153827049481709,6.97083192927315,-4.210147231524181
7.306626467657561,5.923116988606998,6.928730456957909,-3.9476995105522286
7.365857637543631,5.667533020978719,6.889253461852387,-3.639663497191901
7.422532967753418,5.407123102080831,6.852856826880467,-3.3167395430147324
7.476604198774226,5.154857479537779,6.81968943145032,-2.9994772391981614
7.528152773569604,4.917419970368268,6.7896946590583385,-2.699273991973067
7.577326973273287,4.697241024626839,6.762701919138608,-2.421218407820444
7.624299383519555,4.4943236801508535,6.738489735060403,-2.1666916350988
7.6692426203210635,4.3074745198529785,6.716822818709415,-1.9351470627736511
7.712317365519593,4.135021010089954,6.697471348081679,-1.7251660262625028
7.753667575620493,3.9751907182340087,6.680219687819054,-1.5350303683565196
7.7934194828028325,3.8262939601511166,6.664869384135489,-1.363010100143637
7.831682422404343,3.686800211498425,6.6512392831340525,-1.2074942988400856
7.868550424519327,3.5553602639965756,6.639164340145651,-1.0670398949236315
7.904104027159293,3.4308023926494116,6.628493941196415,-0.9403795417421396
7.938412051085787,3.3121173209969954,6.619090145778993,-0.8264105375205332
7.971533224295757,3.1984394412536363,6.610826040403788,-0.7241761879292761
8.003517618708294,3.0890278678770886,6.603584278524496,-0.6328453128154752
8.034407897387064,2.983248897521605,6.597255825396341,-0.5516925996605339
8.06424038636228,2.8805604389839967,6.5917388993997355,-0.48008094993554484
8.09304599075212,2.7804984898872496,6.58693808990038,-0.41744617737099315
8.120850975650994,2.682665519869595,6.582763628126671,-0.3632840356974593
8.147677630849689,2.5867205394305097,6.579130787769696,-0.3171393832681881
8.173544836243995,2.4923706192925406,6.575959393937014,-0.27859722971189
8.19846854243692,2.399363640836135,6.573173421639895,-0.2472754006829397
8.222462178845282,2.3074820853556997,6.570700667633066,-0.22281857223972723
8.245536999698839,2.2165376994667105,6.568472481910669,-0.20489345166659784
8.267702376693506,2.126366901772999,6.5664235473940025,-0.19318490932717966
8.288966045711236,2.036826820212299,6.56449169830073,-0.18739289295078393
8.309334313913359,1.9477918699295844,6.562617769371222,-0.18722998017054743
8.328812232612655,1.8591507982692559,6.560745469569516,-0.19241944671777028
8.347403740595349,1.77080413696479,6.558821275102339,-0.20269374647095825
8.365111781964996,1.6826620123463218,6.55679433763763,-0.21779331579901384
8.38193840208846,1.59464227287791,6.554616404479639,-0.2374656286263106
8.39788482481724,1.506668900021068,6.552241748193376,-0.2614644406811821
8.41295151381745,1.4186706736794827,6.549627103786564,-0.2895491717382317
8.427138220554244,1.3305800676264017,6.546731612069182,-0.32148438356248166
8.440444021230508,1.2423323536054505,6.543516768233557,-0.35703931890888385
8.452867344766563,1.1538648954289374,6.539946375044468,-0.3959874734935753
8.464405993720852,1.0651166165310575,6.535986500309532,-0.43810617847875677
8.475057159886163,0.9760276261850807,6.531605438524744,-0.4831761758273522
8.484817436148013,0.8865389910509756,6.526773676766471,-0.5309811729977192
8.493682826058523,0.7965926399455656,6.521463865036494,-0.5813073669616396
8.501648752457978,0.7061313907643106,6.515650791366878,-0.6339429305296941
8.508710066365621,0.6150990893601397,6.509311362061581,-0.6886774565374215
8.514861057259223,0.52344085091717,6.502424587496207,-0.745301357656113
8.520095465768394,0.43110339495420613,6.494971573919646,-0.8036052215090695
8.524406499717935,0.338035465557697,6.486935521704555,-0.8633791224558376
8.527786854373513,0.2441883287760201,6.478301730479997,-0.924411892904293
8.530228737661274,0.14951633930464214,6.469057611550953,-0.9864903583671777
8.53172390105432,0.05397756865277091,6.459192707967281,-1.04939854173222
8.532263676740849,-0.042465513094567586,6.448698722549959,-1.1129168433923977
8.531839021609903,-0.13984531001881884,6.437569554116035,-1.1768212050071933
8.530440568509714,-0.23818833606194117,6.425801342065963,-1.240882265751966
8.528058685149094,-0.3375144225950345,6.413392519408443,-1.3048645209695706
8.524683540923144,-0.4378359073787719,6.4003438741987475,-1.3685254941692606
8.520305181849356,-0.5391568151345101,6.386658619257055,-1.4316149343213094
8.51491361369801,-0.6414720407400689,6.372342469913842,-1.49387405136699
8.508498893290609,-0.7447665469375977,6.357403729400172,-1.5550348037961665
8.501051227821232,-0.8490145893773919,6.341853381362211,-1.614819253032403
8.492561081927459,-0.9541789828070204,6.325705188831886,-1.6729390002036115
8.483019292099389,-1.0602104232385816,6.3089757988298505,-1.7290947216637305
8.472417187867004,-1.1670468819817506,6.291684851613213,-1.7829758203711923
8.460746719047187,-1.274613088515691,6.273855093409501,-1.834260210931412
8.44800058816203,-1.3828201202945813,6.255512491300187,-1.8826142567855009
8.434172386959084,-1.4915651187512489,6.236686348732332,-1.9276928786892167
8.41925673577157,-1.600731151997357,6.217409419945439,-1.9691398542839196
8.403249424251596,-1.710187246033373,6.1977180214026,-2.0065883292117634
8.386147551791263,-1.8197886076881182,6.177652138110482,-2.0396615608435
8.36794966571438,-1.9293770640025145,6.157255522502047,-2.0679739162038415
8.348655895074355,-2.038781744325673,6.1365757833400085,-2.091132145975459
8.328268077631098,-2.1478200329346366,6.115664461880254,-2.1087369563430163
8.306789877301751,-2.256298821398352,6.094577092316824,-2.1203848996147565
8.284226889087767,-2.364016090989548,6.073373243320676,-2.125670602634172
8.260586728177872,-2.470762855932973,6.052116537294334,-2.1241893484548906
8.235879099618542,-2.576325497807875,6.030874643809785,-2.115540020972071
8.210115844640463,-2.6804885195606754,6.009719243600064,-2.0993284134664596
8.183310959444857,-2.7830377438362315,5.988725959465399,-2.075170889559848
8.155480582006494,-2.88376397419061,5.9679742505698,-2.042698368166612
8.126642942264587,-2.9824671287378957,5.947547266888134,-2.0015605820484588
8.096818270977208,-3.0789608435739053,5.92753166106765,-1.9514305321920895
8.066028662541468,-3.1730775278183847,5.908017355745729,-1.8920090274974881
8.034297887263284,-3.264673833597884,5.889097265470754,-1.8230291618200323
8.001651148927305,-3.353636483518509,5.870866973852554,-1.7442605395853539
7.96811478409212,-3.43988837651247,5.8534243684567,-1.6555130191039027
7.9337159003269955,-3.5233948724047486,5.8368692382656615,-1.5566397022276286
7.898481951602948,-3.6041701388043466,5.821302841243385,-1.4475388636013249
7.862440250214904,-3.6822834341877173,5.806827452607372,-1.3281544862494583
7.825617415873027,-3.757865201843239,5.793545907744877,-1.1984750561951891
7.788038763854595,-3.8311128642191936,5.781561157182925,-1.0585302699852728
7.749727635212403,-3.902296239301813,5.770975854483073,-0.9083853265801941
7.710704672819385,-3.9717625522727866,5.761892001217271,-0.7481325079710817
7.670987047296657,-4.039941088027172,5.75441067613756,-0.5778797971696791
7.630587636416385,-4.1073476229892,5.748631878165863,-0.39773633084300436
7.589514160186493,-4.17458888653832,5.744654514857433,-0.20779452683730568
7.54776827132111,-4.242367430698017,5.74257656958906,-0.008108751876689357
7.50534459701413,-4.311487428403825,5.742495482070293,0.2013296115214894
7.4622297227300916,-4.38286207235913,5.744508778185508,0.42062089001186165
7.4184011020065,-4.45752340476728,5.748714987085626,0.6499899306869141
7.3738258679588276,-4.536635568358292,5.755214886392495,0.8898234516044425
7.328459512275245,-4.621512621418687,5.764113120908539,1.1407125863552627
7.282244386061058,-4.713642180634461,5.775520246772092,1.403501483792221
7.235107964254714,-4.814716189606552,5.789555261610014,1.679342943312819
7.186960802358648,-4.926669930071196,5.806348691043142,1.9697618997772897
7.137694103057936,-5.051729715541788,5.8260463100409146,2.2767267018135056
7.087176805902518,-5.192467928061407,5.848813577059049,2.602725678235828
7.035252126621904,-5.351859896411312,5.874840833841407,2.950840635707563
6.9817335276577905,-5.533327881397862,5.904349240198483,3.3247958830277806
6.926400248843812,-5.74073756050297,5.937597199028761,3.72893330153582
6.868992873238783,-5.9782705912633824,5.974886532044119,4.168005025755315
6.80921016732615,-6.250011255877626,6.016566582301672,4.646554894281341
6.746710054767373,-6.558918459759086,6.063032131244485,5.167425710094854
6.681120870169782,-6.904562773698802,6.114706388345434,5.728520797219044
6.612075242432795,-7.278630337728569,6.171991596317625,6.31642130594117
6.539288939055509,-7.657223804694195,6.235155809377036,6.895511687634254
6.462716701008567,-7.9913191534472805,6.3041109262533785,7.394565695931311
6.382803509474094,-8.204924514261775,6.378056583212691,7.7043028119011225
6.300754264331476,-8.221146907094617,6.455099611331702,7.714437233661658
6.21854279526053,-8.018651077056086,6.532243983668319,7.393679765246044
6.138356284489968,-7.659765072747592,6.606180781320779,6.829737962700762
6.0617586337624925,-7.242143013511042,6.674478160947786,6.161303946732735
5.989337203627382,-6.837331181977036,6.736091200415114,5.491127844296404
5.920963891807612,-6.477331083772947,6.791002478858078,4.866493791028208
5.856190580969883,-6.169308167770572,6.839667416768361,4.299536064343552
5.794497499292177,-5.909817964794071,6.882662777411796,3.7871549795125214
5.7353993196442365,-5.692233825075803,6.920534327206921,3.3215130505982495
5.678476981393478,-5.509737928700654,6.953749457712903,2.8943303494086075
5.623379602106472,-5.356286546698284,6.982692761206989,2.4983268786243484
5.569816736639489,-5.226787383327263,7.007676029993233,2.127541113388843
