th1 (rad),w1 (rad/s),th2 (rad),w2 (rad/s),a1 (rad/s^2),a2 (rad/s^2)
1.2344609107553621,-0.7363995137333392,5.926007112307876,1.1201488389478984,-9.838922503594354,3.7635035949784132
1.2270969156180287,-0.8347887387692827,5.937208600697355,1.1577838748976825,-9.892520283729956,3.9976758296182293
1.218749028230336,-0.9337139416065823,5.948786439446332,1.1977606331938648,-9.953779141528193,4.263719091004653
1.2094118888142702,-1.0332517330218642,5.96076404577827,1.2403978241039113,-10.02457347273118,4.562556305487837
1.1990793714840515,-1.133497467749176,5.9731680240193095,1.2860233871587896,-10.106988212364318,4.895309948946397
1.1877443968065597,-1.2345673498728191,5.986028257890897,1.3349764866482536,-10.203342527649383,5.263344842369111
1.1753987233078316,-1.336600775149313,5.99937802275738,1.3876099350719449,-10.316217582069108,5.668316325143939
1.1620327155563384,-1.439762950970004,6.0132541221080995,1.4442930983233842,-10.448488633424638,6.112224011051905
1.1476350860466382,-1.5442478373042505,6.027697053091333,1.5054153384339033,-10.603361516251203,6.597470991173452
1.1321926076735958,-1.6502814524667626,6.042751206475672,1.5713900483456378,-10.784413144433309,7.126927715928696
1.115689793148928,-1.7581255839110956,6.058465106959129,1.6426593255049247,-10.995634915657336,7.7039986714163105
1.0981085373098172,-1.868081933067669,6.074891700214178,1.7196993122190878,-11.241476579880564,8.332688045427268
1.0794277179791405,-1.9804966988664747,6.092088693336369,1.8030261926733604,-11.526885879763036,9.017657335868176
1.0596227509904756,-2.095765557664105,6.110118955263102,1.893202766032042,-11.857335476981717,9.764262437712388
1.0386650954138346,-2.2143389124339223,6.129050982923423,1.9908453904091659,-12.238822355143304,10.578548763000708
1.0165217062894953,-2.336727135985355,6.148959436827514,2.096630878039173,-12.677814424707941,11.467168135469963
0.9931544349296418,-2.4635052802324346,6.169925745607906,2.211302559393873,-13.181101835507125,12.437156888218473
0.9685193821273175,-2.595316298587506,6.192038771201845,2.335674128276058,-13.755482348918354,13.495474912982935
0.9425662191414425,-2.7328711220766895,6.215395512484605,2.470628877405887,-14.407164499077304,14.648141193109561
0.9152375079206756,-2.8769427670674625,6.240101801258664,2.6171102893369826,-15.140699378672366,15.898698852548451
0.886468080250001,-3.0283497608541863,6.266272904152034,2.7760972778624673,-15.957138173139398,17.245582985421652
0.8561845826414591,-3.1879211425855805,6.2940338769306585,2.948553107716684,-16.85094254416449,18.677725818307263
0.8243053712156033,-3.3564305680272253,6.323519408007825,3.1353303658997564,-17.80494043528884,20.167404764309044
0.7907410655353311,-3.5344799723801135,6.354872711666823,3.337004413542847,-18.782349525708096,21.658960318001014
0.75539626581153,-3.7223034676371944,6.388242755802251,3.5535940167228572,-19.714728085591435,23.051785177800753
0.7181732311351581,-3.9194507484931087,6.42377869596948,3.784111868500865,-20.48509320370236,24.176526122536924
0.6789787236502269,-4.124301680530133,6.4616198146544885,4.025877129726234,-20.907411857730885,24.76621464126265
0.6377357068449256,-4.333375799107442,6.501878585951751,4.273539276138861,-20.709183758296003,24.43181591629169
0.5944019488538512,-4.540467636690402,6.544613978713139,4.517857435301778,-19.5351611659973,22.667650089692657
0.5489972724869472,-4.735819248350375,6.5897925530661565,4.744533936198705,-17.005710921793206,18.933933576081238
0.5016390800034435,-4.9058763575683075,6.637237892428144,4.933873271959517,-12.866342014215292,12.867967101177568
0.4525803164277604,-5.03453977771046,6.6865766251477385,5.062552942971293,-7.216095131174563,4.606748579310636
0.4022349186506558,-5.106700729022206,6.737202154577451,5.108620428764399,-0.6800144495907726,-4.968757028188124
0.35116791136043374,-5.113500873518114,6.7882883588650955,5.058932858482518,5.695806401961173,-14.379854021079797
0.3000329026252526,-5.056542809498502,6.838877687449921,4.91513431827172,10.87831222276626,-22.160425095846104
0.2494674745302676,-4.94775968727084,6.888029030632638,4.693530067313259,14.304133828713978,-27.500719021152342
0.1999898776575592,-4.8047183489837,6.934964331305771,4.4185228771017355,15.996357145322069,-30.414591354203193
0.15194269416772221,-4.644754777530479,6.979149560076788,4.114376963559703,16.346179548198727,-31.435546018610466
0.10549514639241742,-4.481292982048491,7.020293329712385,3.8000215033735985,15.829669633756009,-31.220168626199623
0.060682216571932505,-4.322996285710931,7.058293544746121,3.4878198171116024,14.841716403112406,-30.314709556062706
0.017452253714823195,-4.174579121679807,7.093171742917237,3.1846727215509754,13.652543685864549,-29.093043603922375
-0.024293537501974875,-4.038053684821161,7.125018470132747,2.8937422855117516,12.425692102703236,-27.780858179673388
-0.06467407435018649,-3.913796763794129,7.153955892987864,2.615933703715018,11.250893019644472,-26.500987858670552
-0.10381204198812778,-3.801287833597684,7.180115230025014,2.350923825128312,10.172270155618303,-25.312481577351132
-0.14182492032410463,-3.699565132041501,7.203624468276297,2.0977990093548007,9.207761256128464,-24.237580238979188
-0.17882057164451964,-3.6074875194802165,7.224602458369845,1.8554232069650087,8.361162012043573,-23.27849908098569
-0.21489544683932182,-3.5238758993597807,7.243156690439495,1.6226382161551518,7.62915369464076,-22.427270491534884
-0.2501342058329196,-3.447584362413373,7.259383072601047,1.398365511239803,7.00522930164108,-21.671295323546843
-0.28461004945705337,-3.3775320693969624,7.273366727713444,1.1816525580043347,6.481796991076581,-20.996373026450755
-0.318385370151023,-3.3127140994861968,7.2851832532934875,0.9716888277398271,6.051245219486672,-20.388296721839293
-0.35151251114588494,-3.25220164729133,7.294900141570886,0.7678058605214342,5.7064303727857135,-19.833650749975703
-0.38403452761879825,-3.195137343563473,7.3025782001761,0.5694693530216771,5.440851197810982,-19.320175456228558
-0.415985901054433,-3.1407288315853634,7.308272893706317,0.3762675984593915,5.248659486298468,-18.836904244893454
-0.44739318937028666,-3.0882422367223787,7.31203556969091,0.18789855601045696,5.124590661849992,-18.374186197579366
-0.47827561173751043,-3.0369963301038787,7.3139145552510145,0.004156694034663289,5.0638606442169944,-17.923655462560735
-0.5086455750385492,-2.9863577236617087,7.313956122191361,-0.17507986059094408,5.062054388451175,-17.478179282098385
-0.5385091522751664,-2.935737179777197,7.312205323585451,-0.34986165341192793,5.115019739869416,-17.031800161822105
-0.5678665240729384,-2.884586982378503,7.308706707051332,-0.520179655030149,5.2187736675447285,-16.579678716353317
-0.5967123938967234,-2.832399245703056,7.30350491050103,-0.6859764421936821,5.369424249292481,-16.118038973927423
-0.6250363863537539,-2.778705003210131,7.2966451460790935,-0.8471568319329563,5.563109690307243,-15.64411558264142
-0.6528234363858553,-2.7230739063070586,7.288173577759764,-1.0035979877593706,5.795954445327336,-15.156101396392298
-0.6800541754489259,-2.665114361853785,7.2781375978821705,-1.1551590017232936,6.064041783523269,-14.653093728600416
-0.7067053190674637,-2.6044739440185523,7.266586007864937,-1.3016899390092977,6.3634016724636435,-14.135037791338867
-0.7327500585076492,-2.540839927293916,7.253569108474845,-1.4430403169226864,6.690012551312061,-13.602666272258498
-0.7581584577805883,-2.473939801780795,7.239138705305618,-1.5790669796452714,7.039815358530892,-13.057434510333374
-0.7828978557983963,-2.4035416481954863,7.223348035509165,-1.709641324748605,7.408738049270647,-12.501451233655638
-0.8069332722803512,-2.32945426770278,7.206251622261679,-1.8346558370851616,7.792728769068707,-11.937405271416607
-0.830227814957379,-2.251526980012093,7.187905063890827,-1.9540298897993276,8.187795835153285,-11.368489024065498
-0.8527430847574999,-2.16964902166056,7.168364764992833,-2.0677147800399824,8.590052707211875,-10.798319762994385
-0.8744395749741055,-2.0837484945884412,7.1476876171924335,-2.1756979776699263,8.995766198361306,-10.230860037621206
-0.89527705991999,-1.9937908326048281,7.125930637415734,-2.2780065780461385,9.401406276741564,-9.670338603745755
-0.9152149682460382,-1.8997767698374126,7.103150571635273,-2.3747099640835962,9.803695932174287,-9.12117336563467
-0.9342127359444123,-1.8017398105156697,7.0794034719944365,-2.465921697739943,10.199659726198773,-8.587897858190123
-0.952230134049569,-1.699743213253682,7.054744255017037,-2.5518006763218444,10.58666980556387,-8.075092794970027
-0.9692275661821058,-1.5938765151980434,7.029226248253819,-2.6325516042715447,10.962488339369584,-7.587324179350462
-0.9851663313340863,-1.4842516318043475,7.002900732211104,-2.708424846065049,11.325305540631508,-7.12908942278774
-1.0000088476521298,-1.3709985763980324,6.975816483750453,-2.7797157402929265,11.673772656624118,-6.704772836380358
-1.0137188334161102,-1.254260849831791,6.948019326347524,-2.84676346865673,12.007029560460381,-6.318611759103358
-1.0262614419144283,-1.1341905542271873,6.919551691660956,-2.909949586247764,12.324726848097606,-5.974674458086635
-1.0376033474567001,-1.0109432857462113,6.890452195798479,-2.96969633082863,12.627042635976197,-5.676850784859631
-1.0477127803141622,-0.8846728593864492,6.860755232490193,-3.0264648386772266,12.914694556365363,-5.428856400637606
-1.0565595089080266,-0.7555259138227957,6.83049058410342,-3.0807534026836025,13.188947747449687,-5.234251199261306
-1.0641147680462546,-0.6236364363482988,6.799683050076584,-3.1330959146762156,13.451619916056181,-5.096472363860956
-1.0703511324097377,-0.489120237187737,6.768352090929821,-3.184060638314825,13.705084790649112,-5.018882294403842
-1.0752423347816151,-0.35206938928124587,6.736511484546673,-3.2342494612588637,13.952275452430785,-5.004831430229649
-1.0787630286744276,-0.21254663475693802,6.704168989934084,-3.28429777556116,14.19668909482214,-5.0577357387823785
-1.080888495021997,-0.07057974380871662,6.671326012178473,-3.334875132948984,14.442394660980987,-5.181168292593004
-1.081594292460084,0.07384420280109324,6.6379772608489835,-3.386686815874914,14.694044460043992,-5.378963804117263
-1.080855850432073,0.22078464740153317,6.6041103926902345,-3.4404764539160864,14.956890127556424,-5.6553340426900895
-1.0786480039580577,0.3703535486770974,6.569705628151073,-3.4970297943429873,15.236801945483494,-6.014990395027876
-1.0749444684712868,0.5227215681319324,6.534735330207644,-3.557179698293266,15.540288189298675,-6.463266903566364
-1.0697172527899674,0.6781244500249192,6.499163533224711,-3.6218123673289297,15.874507180667994,-7.006232010580215
-1.0629360082897183,0.8368695218315991,6.462945409551422,-3.6918746874347317,16.247258015283727,-7.650768424110867
-1.0545673130714024,0.9993421019844364,6.426026662677074,-3.7683823716758402,16.666924703432937,-8.404585463163032
-1.044573892051558,1.1660113490187658,6.388342838960316,-3.8524282263074707,17.142329711654718,-9.276102721705874
-1.0329137785613702,1.337434646135313,6.349818556697241,-3.9451892535245294,17.682421707681563,-10.27410099122021
-1.019539432100017,1.5142588632121288,6.310366664161996,-4.047930263436731,18.295670755500716,-11.406964920436502
-1.0043968434678958,1.697215570767136,6.269887361527628,-4.161999912641096,18.98895992307777,-12.681224397818132
-0.9874246877602244,1.8871051699979136,6.228267362401217,-4.288812156619277,19.765627214962667,-14.098912498252691
-0.9685536360602452,2.0847614421475402,6.185379240835024,-4.4298012816018035,20.62210310122222,-15.652964316417874
-0.9477060216387698,2.2909824731597626,6.141081228019006,-4.586330924765982,21.542288193003625,-17.3194557019228
-0.9247961969071722,2.506405355089799,6.095217918771346,-4.75952548178521,22.488442357046967,-19.044948344948434
-0.8997321433562742,2.7312897786602686,6.047622663953494,-4.949974965234694,23.387065119667422,-20.72677918332969
-0.8724192455696714,2.965160429856943,5.998122914301146,-5.157242757067991,24.10856097872486,-22.184533846352682
-0.842767641271102,3.2062460396441916,5.946550486730467,-5.379088095531517,24.441751101717692,-23.124058728222472
-0.8107051808746601,3.4506635506613685,5.892759605775152,-5.610328682813742,24.071224766674952,-23.104994624861522
-0.7761985453680464,3.691375798328118,5.836656318947014,-5.8413786290623575,22.580543555320766,-21.543793007698124
-0.7392847873847652,3.9171812338813257,5.778242532656391,-6.056816559139339,19.525640002030368,-17.814125242483524
-0.7001129750459519,4.11243763390163,5.717674367064998,-6.234957811564174,14.626985203401539,-11.512919310267717
-0.6589885987069356,4.258707485935645,5.655324788949356,-6.350087004666851,8.058929036223711,-2.862827442946702
-0.6164015238475792,4.339296776297882,5.591823918902687,-6.378715279096318,0.6431166076649846,7.017172690739595
-0.5730085560846003,4.345727942374532,5.528036766111724,-6.308543552188922,-6.344191729002486,16.376927208385684
-0.529551276660855,4.282286025084508,5.464951330589835,-6.144774280105065,-11.757590055297566,23.645100417096383
-0.4867284164100099,4.164710124531532,5.4035035877887845,-5.908323275934102,-15.096919971043095,28.139164596205113
-0.44508131516469457,4.013740924821101,5.344420355029444,-5.62693162997205,-16.537334392626455,30.103737290485395
-0.40494390591648355,3.8483675808948363,5.2881510387297235,-5.325894257067197,-16.599272959470294,30.25297877634811
-0.3664602301075352,3.6823748513001333,5.234892096159052,-5.023364469303716,-15.823929323976197,29.324082615820004
-0.32963648159453385,3.5241355580603715,5.184658451466015,-4.730123643145516,-14.621931441549542,27.87157761013003
-0.29439512601393014,3.377916243644876,5.13735721503456,-4.451407867044216,-13.255865045402679,26.245806502060056
-0.2606159635774814,3.2453575931908496,5.092843136364118,-4.188949802023615,-11.875241493993107,24.64250484729546
-0.2281623876455729,3.1266051782509185,5.050953638343882,-3.9425247535506602,-10.55673384407568,23.158668692962475
-0.1968963358630637,3.0210378398101616,5.011528390808375,-3.7109380666210354,-9.334417397941955,21.834124381893137
-0.1666859574649621,2.927693665830742,4.974419010142165,-3.492596822802104,-8.219111538178305,20.677881602468712
-0.13740902080665468,2.845502550448959,4.939493041914144,-3.2858180067774168,-7.2097725741557195,19.683503155289692
-0.1089539953021651,2.7734048247074017,4.90663486184637,-3.08898297522452,-6.299875098982989,18.83760722848926
-0.08121994705509109,2.710406073717572,4.875745032094125,-2.9006069029396273,-5.4808490146805635,18.12436878859662
-0.05411588631791536,2.655597583570766,4.846738963064729,-2.719363215053661,-4.743853474656648,17.527783438626408
-0.0275599104822077,2.6081590488241995,4.819545330914192,-2.544085380667397,-4.080635534788503,17.032715824465438
-0.0014783199939657071,2.5673526934763142,4.794104477107518,-2.373758222422743,-3.483896235328363,16.625306351097723
0.024195206940797437,2.532513731123031,4.77036689488329,-2.207505158911766,-2.9473985236873195,16.293052030979673
0.04952034425202775,2.5030397458861575,4.748291843294172,-2.044574638601969,-2.465945109733563,16.024732660002954
0.07455074171088932,2.478380294788822,4.727846096908153,-1.8843273120019395,-2.0352951560354606,15.810273578456448
0.09933454465877754,2.4580273432284674,4.709002823788134,-1.726224576217375,-1.6520560578295884,15.640592500068
0.12391481809106222,2.4415067826501713,4.69174057802596,-1.569818651216695,-1.3135687252831654,15.507454111941144
0.14832988591756394,2.4283710953973396,4.676042391513793,-1.4147441100972835,-1.0177951636005007,15.40334334565907
0.17261359687153732,2.4181931437613344,4.66189495041282,-1.2607106766406928,-0.7632120905102797,15.321361405434581
0.19679552830915067,2.4105610228562315,4.6492878436464125,-1.107497062586347,-0.5487117981234284,15.255145062171358
0.22090113853771298,2.4050739048749974,4.638212873020549,-0.9549456119646333,-0.3735103214837661,15.19880787187693
0.24495187758646295,2.4013388016601596,4.628663416900903,-0.802957533245864,-0.2370625827468868,15.146901029857908
0.26896526560306455,2.3989681758326906,4.620633841568444,-0.651488522947285,-0.13898417707587063,15.094391088248624
0.29295494736139144,2.397578334061932,4.614118956338971,-0.5005446120647987,-0.07897964591408135,15.036651517584149
0.3169307307020108,2.396788537602791,4.609113510218323,-0.35017809688895724,-0.0567773220648443,14.969464977095681
0.3408986160780387,2.3962207643821425,4.605611729249434,-0.20048344711800042,-0.07207105393908453,14.889033133001119
0.36486082372186013,2.3955000538427518,4.603606894778254,-0.051593115787989224,-0.12446927722848329,14.791990923444354
0.38881582426028766,2.394255361070467,4.6030909636203745,0.09632679344645431,-0.21345197409011996,14.675422321846003
0.41275837787099234,2.392120841329566,4.604054231554839,0.24308101666491436,-0.33833603031880205,14.536874908414207
0.436679586284288,2.3887374810263777,4.606485041721488,0.38844976574905643,-0.49824937021240423,14.374370927617013
0.46056696109455175,2.3837549873242536,4.610369539378978,0.5321934750252266,-0.6921140286077341,14.186412981867933
0.4844045109677943,2.3768338470381765,4.615691474129231,0.674057604843906,-0.9186380315830579,13.971983069890108
0.5081728494381761,2.367647466722346,4.62243205017767,0.8137774355428071,-1.1763156311282936,13.730534291045513
0.5318493241053995,2.355884310411063,4.630569824533098,0.9510827784532623,-1.4634351090190854,13.461975163349022
0.5554081672095101,2.3412499593208724,4.640080652317631,1.0857025300867524,-1.7780930666379353,13.166647096521853
0.5788206668027188,2.3234690286544932,4.650937677618499,1.2173690010519709,-2.118213883134044,12.845296075899626
0.6020553570892637,2.302286889823153,4.663111367629019,1.3458219618109672,-2.4815728801005066,12.499040007580254
0.6250782259874953,2.277471161022148,4.676569587247128,1.47081236188677,-2.8658216933855103,12.129333419762506
0.6478529375977168,2.248812944088293,4.691277710865996,1.592105696084395,-3.2685144270422106,11.737931293820674
0.6703410670385997,2.216127799817871,4.707198767826839,1.7094850090226017,-3.687133344492131,11.326853711171758
0.6925023450367784,2.1792564663729497,4.724293617917065,1.8227535461343192,-4.11911312088972,10.89835276390025
0.7142949097005079,2.1380653351640526,4.742521153378409,1.9317370737733217,-4.561863013125673,10.454882817457698
0.7356755630521484,2.092446705032796,4.761838524116142,2.0362859019478985,-5.01278666898096,9.999074771794039
0.7566000301024763,2.0423188383429864,4.782201383135621,2.136276649665839,-5.46929966131864,9.533714488290432
0.7770232184859062,1.9876258417298,4.803564149632279,2.231613794548743,-5.928845164304806,9.061725080796332
0.7968994769032042,1.928337390086752,4.825880287577766,2.3222310453567063,-6.388908457501875,8.586152354387158
0.8161828508040717,1.8644483055117331,4.849102598031333,2.408092568900578,-6.847031127224736,8.110152353541476
0.8348273338591891,1.7959779942394858,4.873183523720339,2.489194092435993,-7.3008259174280905,7.636979781756193
0.8527871138015839,1.722969735065205,4.898075464644699,2.565563890253555,-7.747993158077265,7.169975995680821
0.870016811152236,1.6454898034844323,4.923731103547235,2.6372636502103632,-8.186339570315814,6.712555364984063
0.8864717091870803,1.5636264077812743,4.950103740049339,2.7043892038602038,-8.613800026982448,6.26818901812137
0.902107973264893,1.4774884075114498,4.977147632087941,2.7670710940414174,-9.028462554966797,5.840385345602944
0.9168828573400075,1.387203781961782,5.004818343028354,2.825474947497447,-9.428596530559803,5.432667077189882
0.9307548951596253,1.2929178166561839,5.0330730925033285,2.879801618269346,-9.812683673484269,5.048545250176912
0.9436840733261871,1.1947909799213412,5.061871108686022,2.930287070771115,-10.179451125166734,4.691490899856044
0.9556319831254005,1.0929964686696738,5.091173979393733,2.9772019797696756,-10.52790563663782,4.364905786453304
0.9665619478120973,0.9877174123032956,5.12094599919143,3.0208510376342086,-10.857367721551642,4.072093884497965
