th1 (rad),w1 (rad/s),th2 (rad),w2 (rad/s)
5.385952637897518,0.5044304551626427,5.391255711335267,-2.265173712036627
5.390996942449145,0.5816373659724642,5.368603974214901,-2.2661211193580844
5.39681331610887,0.6553238648998311,5.34594276302132,-2.2620672872747467
5.403366554757868,0.7253015981338957,5.323322090148572,-2.2527551119744853
5.4106195707392075,0.7914278122091213,5.300794539028828,-2.2379758805714607
5.418533848861299,0.8536131791859022,5.278414780223113,-2.2175810656026402
5.427069980653157,0.9118271707973042,5.256238969567087,-2.191491061209361
5.436188252361131,0.9661003526042756,5.234324058954993,-2.159699948310199
5.445849255887174,1.0165232849600214,5.212727059471891,-2.1222757960721705
5.456014488736773,1.0632420927828496,5.191504301511169,-2.079356514091502
5.466646909664602,1.1064511325835467,5.170710736370254,-2.0311417711278317
5.477711420990437,1.1463834765425756,5.150399318658976,-1.9778819007389556
5.489175255755863,1.1833001028560695,5.130620499651586,-1.9198649563865713
5.501008256784424,1.2174787124826119,5.11142185008772,-1.8574031341128308
5.51318304390925,1.249202999038336,5.092847818746592,-1.7908196673778491
5.525675073899634,1.2787530174721662,5.074939622072813,-1.7204370645635279
5.538462604074355,1.3063970741895639,5.057735251427178,-1.6465672665993647
5.551526574816251,1.3323853392018508,5.0412695787611845,-1.5695040078865947
5.564850428208269,1.356945190909762,5.025574538682319,-1.4895174106523403
5.578419880117366,1.3802781630740346,5.010679364575796,-1.4068506540723313
5.592222661748107,1.4025582750884107,4.996610858035073,-1.3217184403101179
5.606248244498991,1.4239314852817047,4.983393673631972,-1.234306922826907
5.620487559351808,1.4445160021406906,4.971050604403703,-1.1447747540237918
5.634932719373215,1.4644032082802798,4.959602856863465,-1.0532549338122181
5.649576751456018,1.4836589860164733,4.949070307525343,-0.9598571838551544
5.664413341316183,1.5023252731395051,4.939471735686792,-0.8646706228288795
5.679436594047578,1.5204217171261527,4.930825029458503,-0.7677665684053793
5.694640811218839,1.537947332054688,4.923147363774449,-0.6692013370991157
5.710020284539386,1.554882093161632,4.916455350403457,-0.5690189513930334
5.725569105471002,1.5711884288116154,4.910765160889527,-0.4672536940391616
5.741280989759118,1.5868125889075813,4.906092623949135,-0.3639324725149035
5.757149115648193,1.6016858831164558,4.902453299223986,-0.2590769732355026
5.773165974479358,1.615725792546482,4.899862529491632,-0.1527055964088224
5.789323232404823,1.6288369655078794,4.898335473527544,-0.044835169505372
5.805611602059901,1.6409121124561754,4.89788712183249,0.06451755876705602
5.822020723184463,1.6518328177759607,4.89853229742016,0.17533464047292704
5.838539051362222,1.6614702872040976,4.90028564382489,0.28759586288940747
5.855153754234263,1.6696860497907915,4.903161602453784,0.4012778927958808
5.871850614732171,1.6763326326295873,4.907174381381743,0.5163536295763482
5.888613941058467,1.6812542253480196,4.912337917677506,0.6327917678820227
5.905426483311947,1.684287349672706,4.918665835356326,0.7505565723669984
5.922269356808674,1.6852615473558301,4.926171401079996,0.8696078685629922
5.939121972282233,1.684000097435625,4.934867479765626,0.9899012551509202
5.9559619732565885,1.680320771248449,4.944766492317135,1.1113885436019988
5.972765180969073,1.6740366308584747,4.9558803777531555,1.234018431307548
5.989505547277658,1.66495687367533,4.9682205620662305,1.357737413819301
6.006155116014411,1.652887723061301,4.981797936204424,1.4824909406146225
6.022683993245024,1.6376333617881833,4.9966228456105695,1.6082248168191764
6.039060326862906,1.6189969024301647,5.012705093778761,1.7348868504912
6.055250295887207,1.596781386367263,5.030053962283673,1.8624287413036507
6.0712181097508795,1.5707908012871832,5.048678249696709,1.9908082016198971
6.086926017763751,1.5408311062652964,5.0685863317129085,2.119991294843536
6.102334328826404,1.5067112541439154,5.089786244661344,2.249954968221249
6.117401441367844,1.468244203650674,5.112285794343556,2.380689747506922
6.13208388340435,1.42524791933024,5.136092691818625,2.5122025483160777
6.146336362597653,1.3775463670411128,5.161214717301786,2.644519542492779
6.160111826268064,1.3249705280167619,5.187659912726714,2.777688995703721
6.173361531548232,1.2673594773911152,5.215436802683751,2.911783962297304
6.186035126322143,1.204561606501691,5.244554642306724,3.0469046816176597
6.198080742387161,1.136436116146283,5.275023689122901,3.1831804612536185
6.209445103548624,1.0628549756964316,5.306855493735437,3.320770749740392
6.220073653305588,0.9837056379650424,5.340063201232841,3.459864983652223
6.229910709685238,0.8988949319633772,5.374661851069363,3.600680627565286
6.238899659004872,0.808354738275242,5.410668657345016,3.7434585909358375
6.2469832063876245,0.7120503012061424,5.448103243254375,3.8884548790162894
6.254103709399686,0.6099923672311854,5.486987792044538,4.035926886242419
6.260203633071998,0.5022547791162194,5.527347060906962,4.186112139798698
6.26522618086316,0.3889997090409888,5.569208182304949,4.339196527747899
6.2691161779535705,0.2705133640008917,5.612600147582428,4.495268114123718
6.2718213115935795,0.14725565871556773,5.657552828723665,4.654251652398934
6.273293868180735,0.01992780430818314,5.704095345247654,4.815818140989341
6.273493146223817,-0.11043847253763628,5.752253526657547,4.979263850114373
6.272388761498441,-0.2423681936935613,5.802046165158691,5.143355410087433
6.269965079561505,-0.37380993585551303,5.853479719259565,5.306143863868013
6.2662269802029495,-0.5019954399954902,5.906541157898245,5.4647640160232
6.261207025802995,-0.6233228531427117,5.961188798058477,5.6152589559642525
6.2549737972715675,-0.7333192827693352,6.01734138761812,5.7525034095003535
6.247640604443874,-0.8267637524725067,6.074866421713123,5.870334714560817
6.239372966919149,-0.8980587409058679,6.133569768858731,5.962011259475834
6.23039237951009,-0.941896549840969,6.193189881453489,6.021063333485578
6.220973414011681,-0.9541522756630358,6.253400514788345,6.04244820346546
6.21143189125505,-0.932773570589436,6.313824996823,6.023704048818442
6.202104155549156,-0.8783311360041418,6.374062037311184,5.965655209666046
6.193320844189115,-0.7939666556852825,6.433718589407844,5.872321233176559
6.185381177632262,-0.6847342405158222,6.49244180173961,5.75003249390182
6.178533835227104,-0.5566090181826984,6.549942126678628,5.60612521138022
6.172967745045277,-0.4155337906509322,6.606003378792431,5.447711265910296
6.168812407138768,-0.2667592920010903,6.660480491451533,5.280855117788755
6.166144814218757,-0.11453823930472609,6.713289042629421,5.11022531109614
6.16499943182571,0.037904829824577185,6.764391295740383,4.939106007954804
6.165378480123956,0.18824764666067698,6.8137823558199315,4.7696038622209675
6.167260956590563,0.3348868891767029,6.861478394442141,4.6029184866785124
6.17060982548233,0.4767567688509914,6.907507579308926,4.439599877587674
6.17537739317084,0.6131760703855121,6.951903578084803,4.2797605556144624
6.181509153874695,0.7437302304656472,6.994701183640948,4.123236399880365
6.188946456179352,0.8681854915482359,7.035933547639751,3.969702130818439
6.197628311094834,0.9864288832929318,7.075630568947935,3.818751048590079
6.207492599927764,1.098427571325573,7.113818079433836,3.669948359353326
6.218476875641019,1.2042020900543196,7.150517563027369,3.5228657413862328
6.230518896541563,1.303809217294421,7.1857462204412315,3.3771029167638345
6.243556988714507,1.3973313735778843,7.21951724960887,3.232300366135076
6.257530302450285,1.4848703262947454,7.251840253270221,3.0881460679381694
6.2723790057132325,1.5665436497197296,7.282721713949603,2.9443782314520703
6.288044442210429,1.6424828760825907,7.312165496264123,2.8007853553242006
6.304469270971255,1.712832615282816,7.340173349817365,2.6572045081738156
6.321597597124083,1.7777501605834247,7.3667453948991035,2.5135184363756133
6.339375098729917,1.8374052646924082,7.3918805792628595,2.3696519114775745
6.357749151376841,1.8919798869209747,7.415577098377635,2.225567603751332
6.37666895024605,1.9416677929825443,7.437832774415148,2.081261686661227
6.396085628175876,1.9866739450802422,7.4586453912817605,1.936759324192931
6.415952367626678,2.027213658468029,7.47801298452369,1.792110158631023
6.436224504211358,2.0635115265894393,7.49593408611,1.6473838936236693
6.456859619477252,2.0958001335628254,7.512407925046237,1.5026660517264148
6.47781762081288,2.1243185825161417,7.5274345855635,1.3580539742268871
6.499060806638042,2.1493108727116454,7.541015125305769,1.2136531221947209
6.520553915365158,2.1710241587195713,7.553151656527716,1.0695737304197424
6.5422641569523545,2.1897069219726117,7.563847393831914,0.9259278597568579
6.5641612261720805,2.2056070795228897,7.573106672429482,0.7828268882902407
6.58621729696731,2.2189700472423723,7.5809349413123845,0.6403794777810866
6.608406997439734,2.2300367654554387,7.587338736090196,0.4986900493168136
6.630707365094288,2.239041684379967,7.592325636583364,0.3578578012358371
6.653097781938088,2.246210695027102,7.595904214595722,0.21797630356069486
6.675559888888359,2.2517589785772705,7.598083977631329,0.07913370657759905
6.698077478674132,2.2558887339179,7.598875314697104,-0.058586393020366195
6.720636366013311,2.2587867292609203,7.5982894507669005,-0.19510337692701443
6.74322423330592,2.2606216099657037,7.5963384169976305,-0.3303372594534371
6.765830449405577,2.261540881563865,7.593035044403096,-0.4642054986418288
6.788445858221215,2.261667475673939,7.588392989416677,-0.5966188812010825
6.811062532977955,2.2610957989012173,7.582426800604667,-0.7274763909123283
6.833673490966967,2.2598871639313822,7.575152036695544,-0.8566589703048105
6.856272362606281,2.2580645123817757,7.566585446992495,-0.9840220993690751
6.878853007730099,2.2556063671618567,7.556745225998805,-1.109387152056412
6.9014090714017176,2.252440007229032,7.545651354478241,-1.2325315639675893
6.923933471474008,2.248433951549718,7.533326038838565,-1.3531779693349706
6.946417810989505,2.243389985870042,7.519794259145216,-1.4709826615514892
6.968851710848206,2.2370351799946944,7.505084432529701,-1.5855240188939121
6.991222062648153,2.2290146351073186,7.489229192340762,-1.6962919299137584
7.013512208999226,2.2188860686955647,7.472266273041624,-1.8026797487410167
7.035701069686182,2.206117762787164,7.454239475554214,-1.9039808727711731
7.057762247314053,2.190091802421748,7.435199666826502,-1.9993925707550437
7.07966316533827,2.170114791586429,7.415205741118952,-2.0880300265034366
7.101364313254135,2.1454381670798606,7.394325440853918,-2.168953445268654
7.122818694924933,2.1152896114484214,7.372635906401231,-2.2412101864454956
7.143971591039417,2.0789156996541642,7.3502238045367765,-2.3038919729433016
7.164760748035959,2.035633761064982,7.327184884807344,-2.3562042381358492
7.185117085646609,1.9848882627652729,7.303622842425986,-2.397540982875188
7.204965968274261,1.9263044772875098,7.279647432597234,-2.4275550470192004
7.224229013047136,1.859730742059662,7.255371882127042,-2.4462117804873253
7.242826320467732,1.7852611605480955,7.230909764322169,-2.4538149833532286
7.260678932073214,1.7032335031880093,7.206371614488637,-2.4509981556569382
7.277711267105094,1.614201785150638,7.181861632932067,-2.4386807468552574
7.2938532849566,1.5188881187857237,7.157474825463515,-2.4179962295002246
7.309042166144457,1.418122283870322,7.133294863168513,-2.390204096691122
7.32322338898316,1.312778875424744,7.109392822201602,-2.356599711007175
7.3363511777374075,1.2037207466213609,7.08582682509153,-2.318434172700543
7.348388385203621,1.091754572466232,7.062642483364525,-2.276852197907827
7.359305930928283,0.9776009358545117,7.039873961385447,-2.2328511297276012
7.369081940286828,0.8618784208265438,7.01754545008817,-2.1872601035016888
7.377700724495094,0.7450993276628671,6.995672849053154,-2.1407357946093857
7.3851517177717225,0.6276738422681645,6.97426549110706,-2.0937701316425827
7.391428456194404,0.5099195345617322,6.953327789790634,-2.0467054737452792
7.396527651540022,0.3920735742209116,6.932860735053181,-1.9997535220480682
7.400448387282231,0.2743057360818504,6.9128631998327,-1.953015234203738
7.40319144464305,0.15673092633318214,6.893333047490663,-1.9064999630423647
7.404758753906382,0.0394204988666408,6.874268047860239,-1.860142812900978
7.405152958895048,-0.07758797671558988,6.855666619731229,-1.8138197668676823
7.404377079127892,-0.19428257482034889,6.837528422062553,-1.7673605057093915
7.402434253379688,-0.31067042610007756,6.819854817005459,-1.7205590565324362
7.399327549118688,-0.42677252659592724,6.802649226440135,-1.6731825202163735
7.395059823852729,-0.5426197560992534,6.785917401237971,-1.6249781685990055
7.389633626291737,-0.6582499147338998,6.769667619551981,-1.575679203296501
7.383051127144397,-0.7737055986072694,6.753910827519016,-1.5250094473559102
7.375314071158325,-0.889032753496602,6.7386607330454575,-1.4726872113054046
7.366423743623359,-1.004279764448474,6.723933860932403,-1.418428544375633
7.356380945978874,-1.1194969556567695,6.709749575488647,-1.3619500542828809
7.3451859764223055,-1.2347363872203057,6.696130074945819,-1.3029714575960984
7.332838612550103,-1.350051842306723,6.683100360369858,-1.2412180088860687
7.319338094127035,-1.465498899145118,6.670688180280997,-1.1764229516401061
7.304683105135584,-1.5811349764692728,6.6589239507645965,-1.1083301383211541
7.288871755370891,-1.6970192277298126,6.647840649381385,-1.0366969821572796
7.271901563093593,-1.813212137518778,6.637473679559812,-0.9612979308262929
7.253769441718405,-1.9297746418125508,6.627860700251549,-0.8819286941337817
7.23447169530028,-2.0467665501411694,6.619041413310211,-0.7984115164236986
7.214004029798868,-2.1642439907728805,6.611057298145974,-0.7106018622864491
7.1923615898911395,-2.28225552780453,6.60395127952311,-0.6183969831686307
7.169539034613094,-2.4008365109765353,6.597767309691424,-0.5217469531719008
7.145530669503328,-2.5200011167851826,6.5925498401597045,-0.42066890137190177
7.120330658335477,-2.639731429662281,6.588343151145986,-0.3152653147107344
7.093933344038854,-2.759962810372855,6.5851904979988785,-0.2057474157695138
7.066333715935126,-2.880564736793077,6.583133023841183,-0.09246468647025696
7.037528068567195,-3.0013163365465414,6.582208376976481,0.02405847145172979
7.007514905201729,-3.121876055643848,6.582448961690998,0.1430783124142505
6.976296144645291,-3.2417454657355713,6.583879744815141,0.2635797873543079
6.943878689987935,-3.360228301470435,6.586515542688684,0.3842189028953278
6.910276406973231,-3.476387666159797,6.590357731717637,0.5032639730316427
6.8755125303116325,-3.589007126606861,6.595390371447953,0.6185443934978182
6.839622459045564,-3.696565085811385,6.601575815382931,0.7274208703114159
6.80265680818745,-3.7972357907051775,6.6088500240860455,0.826796713465463
6.764684450280399,-3.888933112159176,6.6171179912207005,0.9131936947381735
6.725795119158807,-3.9694122556591793,6.6262499281680824,0.9829143457313261
6.686100996602216,-4.036436710393692,6.636079071625396,1.0323009544115567
6.645736629498279,-4.0880011818656135,6.646402081169511,1.0580772719307137
6.604856617679623,-4.122578312571242,6.6569828538888185,1.0577254548885955
6.56363083455391,-4.139336232246719,6.667560108437704,1.0298204000877331
6.522237472231443,-4.1382680170401125,6.677858312438581,0.9742346344143064
6.4808547920610415,-4.120191871493824,6.687600658782724,0.8921522699741693
6.439652873346104,-4.086618626660089,6.696522181482466,0.7858851846107616
6.398786687079503,-4.039523893583069,6.704381033328574,0.6585440817073079
6.3583914481436725,-3.9810860583441032,6.710966474145647,0.5136526790815035
6.318580587560231,-3.9134493191341537,6.716103000936462,0.35479169076185463
6.27944609436889,-3.838549525108869,6.71965091784408,0.18532921247705608
6.241060599117801,-3.758013952400388,6.721504209968851,0.008255923899858991
6.203480459593797,-3.673126019140059,6.72158676920785,-0.17388590564458925
6.166749199402396,-3.58483643271766,6.719847910151404,-0.3590050223704886
6.130900835075219,-3.4938014844426633,6.7162578599276985,-0.5454226291271471
6.095962820230793,-3.4004331079760677,6.710803633636427,-0.7318147736567631
6.061958489151032,-3.3049504711562228,6.70348548589986,-0.9171506548450732
6.02890898443947,-3.2074273690459094,6.694313979351409,-1.1006354378396341
5.9968347107490105,-3.1078328864195566,6.683307624973013,-1.2816615408347118
5.965756381884815,-3.006064758643236,6.670491009564666,-1.4597694553856646
5.935695734298383,-2.9019758954847066,6.655893315010809,-1.6346175765511484
5.906675975343536,-2.7953949737178885,6.639547139245297,-1.8059597963828036
5.878722025606357,-2.686142108639125,6.6214875412814695,-1.9736293953652633
5.851860604519966,-2.5740405530288317,6.601751247327817,-2.1375278085350007
5.826120198989678,-2.4589252469934593,6.580375969242467,-2.297616998458084
5.801530946519743,-2.3406489090560916,6.557399799257886,-2.4539143536879218
5.778124457429183,-2.2190862448841178,6.532860655721007,-2.6064892066370735
5.755933594980341,-2.0941367663934396,6.506795763654636,-2.7554602093825755
5.734992227316407,-1.9657266640556836,6.47924116156081,-2.900992911463613
5.7153349606758495,-1.8338101593074678,6.450231232446174,-3.04329694653843
5.696996859082775,-1.6983707817046296,6.419798262980789,-3.1826222520974756
5.680013151265729,-1.5594230672958882,6.387972040459815,-3.3192537146199217
5.6644189205927695,-1.4170152621627368,6.354779503313615,-3.4535035464264525
5.650248767971142,-1.2712337404529181,6.320244467849351,-3.5857005538412334
5.637536430566613,-1.1222100109534934,6.284387462310939,-3.7161752439985567
5.626314330457078,-0.9701313874689311,6.247225709870953,-3.8452394402184478
5.616613016582389,-0.815256622230092,6.208773315468769,-3.9731587484664725
5.608460450360088,-0.6579380115930747,6.169041727984104,-4.100115886152728
5.601881070244157,-0.49865159969219613,6.128040569122577,-4.226162654363014
5.596894554247235,-0.33803697483962836,6.085778942578947,-4.351158412496604
5.593514184498838,-0.17694750644100646,6.042267358453981,-4.474693667703305
5.591744709434428,-0.016510282220700195,5.997520421776948,-4.595999408159476
5.591579606612221,0.14180810782155548,5.9515604276953535,-4.713846908422221
5.592997687690437,0.29613905918119793,5.904421958611131,-4.826449814516897
5.595959078282249,0.44416952585819114,5.856157460465962,-4.931390826107261
5.600400773540831,0.5831457170018726,5.80684355220489,-5.02560809438337
5.60623223071085,0.7099563780642426,5.756587471261056,-5.105487080083136
5.613331794491493,0.8213279992740758,5.7055326004602245,-5.1671028832438495
5.621545074484233,0.9141456896146394,5.653861571627786,-5.2066336364226204
5.6306865313803796,0.9858720503830023,5.60179523526356,-5.220909934383757
5.64054525188421,1.034980586481833,5.549586135919722,-5.207989625000477
5.650895057749028,1.0612782146793922,5.497506239669717,-5.167589906042345
5.661507839895822,1.065999536746182,5.445830340609294,-5.101218998389631
5.672167835263283,1.0516270707447997,5.394818150625397,-5.0119458583971195
5.682684105970732,1.0214940043016807,5.344698692041426,-4.90388403886746
5.692899046013749,0.979299116108053,5.2956598516527515,-4.781563266801546
5.702692037174829,0.9286688423607922,5.247844218984736,-4.64936798123839
5.711978725598438,0.8728504518017315,5.201350539172352,-4.511152335205206
5.720707230116455,0.8145547067862887,5.1562390158203,-4.370053021520662
5.728852777184318,0.7559205568842468,5.112538485605094,-4.228460801383681
5.73641198275316,0.6985576791701763,5.070253877591257,-4.088090629598874
5.743397559544862,0.6436265958014972,5.029372971295268,-3.950096744619162
5.7498338255028765,0.5919283564216375,4.989872003849076,-3.815196210548052
5.755753109067093,0.5439880484640531,4.951720041743595,-3.6837810462819816
5.761192989551733,0.5001253434168104,4.914882231280775,-3.556010952300286
5.766194242985901,0.46051063194904596,4.879322121757773,-3.4318855668013386
5.770799349305392,0.42520795711488213,4.845003266089759,-3.311298487114101
5.775051428876541,0.39420695767417296,4.811890281218618,-3.1940764207811694
