th1 (rad),w1 (rad/s),th2 (rad),w2 (rad/s),a1 (rad/s^2),a2 (rad/s^2)
2.4305604852788822,2.6902866355750525,1.5303129624107925,1.7066129814500497,-7.752971609632877,0.6964038940960324
2.4574633516346327,2.612756919478724,1.547379092225293,1.7135770203910101,-7.392421071447554,0.1291613770040107
2.48359092082942,2.5388327087642484,1.5645148624292031,1.7148686341610502,-7.0390553257819,-0.40565594630402063
2.508979247917062,2.4684421555064295,1.5816635487708137,1.71081207469801,-6.6921987443960855,-0.9095715215448164
2.5336636694721264,2.4015201680624685,1.5987716695177938,1.7017163594825617,-6.35135190758513,-1.3840700728712563
2.557678871152751,2.3380066489866174,1.6157888331126193,1.6878756587538493,-6.016166118897481,-1.830588427643499
2.581058937642617,2.2778449877976428,1.632667589700158,1.6695697744774143,-5.686419774065747,-2.250508811914237
2.6038373875205933,2.220980790056985,1.649363287444932,1.6470646863582719,-5.361996921242817,-2.645153861909181
2.626047195421163,2.167360820844557,1.6658339343085147,1.62061314773918,-5.042868135936006,-3.0157828959408555
2.6477208036296087,2.116932139485197,1.6820400657859065,1.5904553187797714,-4.729073695733637,-3.363589177664872
2.6688901250244608,2.0696414025278607,1.6979446189737042,1.5568194270031226,-4.4207089524942855,-3.6896980145579135
2.6895865390497393,2.025434313002918,1.7135128132437354,1.5199224468575434,-4.117911746667562,-3.9951656012687975
2.7098408821797686,1.9842551955362424,1.7287120377123109,1.4799707908448554,-3.8208516787427125,-4.280978553609819
2.729683434135131,1.9460466787488153,1.7435117456207594,1.4371610053087571,-3.5297210389485247,-4.548054096999944
2.7491439009226193,1.91074946835933,1.757883355673847,1.3916804643387577,-3.244727193118219,-4.7972408806728435
2.7682513956062125,1.8783021964281479,1.7718001603172344,1.3437080555320293,-2.966086226568924,-5.029320390693607
2.787034417570494,1.8486413341624586,1.7852372408725548,1.2934148516250932,-2.694017656518322,-5.245008933695913
2.8055208309121187,1.8217011575972752,1.7981713893888056,1.2409647622881341,-2.4287400353335205,-5.444960160908606
2.8237378424880912,1.7974137572439401,1.810581037011687,1.186515160679048,-2.170467280679292,-5.629768099313418
2.8417119800605306,1.7757090844371473,1.8224461886184775,1.130217479685914,-1.9194055836852082,-5.7999706539580895
2.859469070904902,1.756515028600295,1.8337483634153366,1.072217773146333,-1.675750762126033,-5.956053542517264
2.8770342211909052,1.7397575209790348,1.8444705411467999,1.0126572377211602,-1.439685942026159,-6.098454619955283
2.8944317964006956,1.725360661558773,1.8545971135240116,0.9516726915216074,-1.2113794678827399,-6.227568547350985
2.9116854030162833,1.7132468668799457,1.8641138404392277,0.8893970060480976,-0.9909829587310334,-6.343751754371339
2.928817871685083,1.7033370372926353,1.8730078104997085,0.8259594885043842,-0.77862944443366,-6.447327639387187
2.945851242058009,1.6955507428482988,1.8812674053847525,0.7614862121105123,-0.5744315337175444,-6.538591944796055
2.962806749486492,1.6898064275111233,1.8888822675058576,0.6961002926625517,-0.3784795824066746,-6.617818237888435
2.9797048137616033,1.6860216316870567,1.8958432704324832,0.6299221102836673,-0.1908398467315075,-6.685263419859618
2.996565030078474,1.6841132332197415,1.90214249153532,0.5630694760850711,-0.011552622184804403,-6.741173177775545
3.0134061624106714,1.6839977069978935,1.9077731862961707,0.49565774430731563,0.15936961728398344,-6.785787287024295
3.03024613948065,1.6855914031707333,1.9127297637392437,0.42779987143707265,0.3219440523641791,-6.819344665693397
3.0471020535123574,1.6888108436943752,1.9170077624536144,0.3596064247801387,0.4762192860604256,-6.8420880781150935
3.063990161949301,1.6935730365549795,1.9206038267014158,0.2911855439989878,0.6222770006316928,-6.854268383205164
3.080925892314851,1.6997958065612964,1.9235156821414057,0.22264286016693613,0.7602334540183174,-6.85614822478447
3.097923850380464,1.7073981411014796,1.925742110743075,0.15408137791909143,0.8902407650033773,-6.848005066259898
3.114997831791479,1.7163005487515133,1.927282924522266,0.08560132725649246,1.0124879390288744,-6.8301334810804075
3.132160837278994,1.726425428141802,1.928138937794831,0.017299992445688375,1.1272015929117025,-6.802846623240917
3.149425091560412,1.7376974440709192,1.9283119377192879,-0.050728473786720796,1.2346463464762363,-6.766476818459584
3.166802066001121,1.7500439075356815,1.9278046529814208,-0.11839324197131663,1.3351248619318408,-6.721375235892279
3.184302505076478,1.7633951561549999,1.9266207205617076,-0.18560699433023942,1.428977527078054,-6.667910621497087
3.201936456638028,1.7776849314257803,1.9247646506184053,-0.2522861005452103,1.516581795363641,-6.606467096336311
3.2197133059522858,1.7928507493794168,1.9222417896129531,-0.3183507715085734,1.5983512135975992,-6.537441044981465
3.23764181344608,1.8088342615153927,1.9190582818978674,-0.383725181958388,1.6747341858022105,-6.461237139500301
3.255730156061234,1.825581603373415,1.9152210300782835,-0.448337553353391,1.7462125384218474,-6.378263562038761
3.273985972094968,1.8430437287576333,1.9107376545447496,-0.5121201889737785,1.81329996705063,-6.288926502698718
3.2924164093825445,1.8611767284281395,1.905616452655012,-0.5750094540007658,1.8765404573500135,-6.193624018422267
3.311028176666826,1.8799421330016397,1.8998663581150042,-0.6369456941849885,1.9365067824053985,-6.092739342395272
3.329827597996842,1.8993072008256937,1.8934969011731542,-0.6978730876089412,1.9937991851288366,-5.9866337318914775
3.348820670005099,1.919245192676982,1.8865181702970648,-0.757739424927856,2.0490443573585013,-5.875638935674214
3.3680131219318685,1.939735636250567,1.8789407760477863,-0.816495814284598,2.102894827109278,-5.7600493505997425
3.3874104782943744,1.96076458452166,1.8707758179049403,-0.8740963077905954,2.1560288621865813,-5.64011392181511
3.407018124139591,1.9823248731435257,1.8620348548270342,-0.9304974470087466,2.2091509923295027,-5.516027823130018
3.426841372871026,2.004416383066821,1.8527298803569467,-0.9856577252400468,2.2629932434016014,-5.387923935290923
3.446885536701694,2.027046315500837,1.8428733031045463,-1.039536964592956,2.3183171659521147,-5.255864121833324
3.4671559998567028,2.050229487160358,1.8324779334586168,-1.0920956058112892,2.3759167265107792,-5.119830287124288
3.4876582947283064,2.0739886544254658,1.8215569774005038,-1.143293908682532,2.436622112624255,-4.979715191760873
3.508398181272561,2.0983548755517085,1.8101240383136785,-1.1930910606001408,2.5013044806765308,-4.8353129998883
3.5293817300280783,2.123367920358474,1.798193127707677,-1.241444190599024,2.570881646956716,-4.686309545308955
3.550615409231663,2.1490767368280412,1.7857786858016869,-1.2883072860521134,2.646324684204375,-4.532272333715232
3.5721061765999433,2.175539983670085,1.7728956129411657,-1.3336300093892657,2.728665333581399,-4.372640353891729
3.593861576436644,2.202826637005899,1.759559312847273,-1.377356412928183,2.8190040695544507,-4.206713860448675
3.6158898428067032,2.2310166777014437,1.7457857487179913,-1.4194235515326699,2.918518554162841,-4.033644426746826
3.6382000095837177,2.260201863243072,1.7315915132026647,-1.4597599958001382,3.0284720764363007,-3.8524257652772453
3.6608020282161484,2.290486584007435,1.7169939132446632,-1.4982842534529106,3.1502213777204666,-3.6618860949747223
3.6837068940562228,2.3219887977846394,1.7020110707101341,-1.534903114402658,3.2852229956896397,-3.460683227926306
3.7069267820340692,2.3548410277415357,1.6866620395661076,-1.569509946681921,3.435036895632394,-3.2473040857513684
3.7304751923114847,2.3891913966978597,1.6709669400992884,-1.6019829875394347,3.601325669332437,-3.0200710797893953
3.754367106278463,2.425204653391184,1.654947110223894,-1.6321836983373286,3.78584693801324,-2.777158746338441
3.778619152812375,2.4630631227713167,1.6386252732405207,-1.659955285800713,3.9904357639996633,-2.5166252678658334
3.8032497840400885,2.5029674804113133,1.6220257203825135,-1.6851215384793712,4.21697282889358,-2.2364650761206004
3.8282794588442015,2.545137208700249,1.6051745049977197,-1.7074861892405773,4.467332864020439,-1.9346906428479458
3.853730830931204,2.5898105373404534,1.588099643105314,-1.7268330956690567,4.7433063487279155,-1.609453784991625
3.8796289363046084,2.6372436008277327,1.5708313121486235,-1.742927633518973,5.04648592090577,-1.2592192095298844
3.9060013723128857,2.68770846003679,1.5534020358134337,-1.755519825614272,5.378107488815835,-0.8830052893794569
3.9328784569132536,2.7414895349249484,1.535846837557291,-1.7643498785080665,5.738835100637684,-0.480708608072139
3.9602933522625032,2.7988778859313252,1.5182033387722103,-1.769156964588788,6.128478902259887,-0.053528637185371104
3.9882821311218164,2.860162674953924,1.5005117691263223,-1.7696922509606416,6.545638048293744,0.3954945372132811
4.016883757871356,2.9256190554368615,1.482814846616716,-1.7657373055885088,6.987266706906059,0.8608254499913656
4.046139948425725,2.995491722505922,1.4651574735608308,-1.757129051088595,7.448173172190954,1.3336746699593789
4.076094865650784,3.069973454227832,1.4475861830499448,-1.7437923043890013,7.920481511192355,1.8011780762369176
4.106794600193062,3.1491782693397554,1.4301482600060549,-1.7257805236266321,8.393113456480268,2.245597585510625
4.138286382886459,3.233109403904558,1.4128904547697885,-1.703324547771526,8.851384854159019,2.643681720616299
4.170617476925505,3.321623252446148,1.3958572092920731,-1.6768877305653629,9.276851594716394,2.966386099725389
4.203833709449967,3.4143917683933123,1.3790883319864196,-1.647223869568109,9.647574513908642,3.1792078497093117
4.2379776271339,3.5108675135323986,1.3626160932907385,-1.6154317910710159,9.938984289045067,3.2434089161658686
4.273086302269224,3.6102573564228493,1.3464617753800283,-1.582997701909357,10.125493753966403,3.118357713873214
4.309188875833453,3.7115122939625134,1.3306317983609348,-1.551814124770625,10.182905723571118,2.765074204502216
4.346303998773077,3.8133413511982246,1.3151136571132285,-1.524163382725603,10.091492539914091,2.1508073731705744
4.38443741228506,3.9142562765973654,1.2998720232859724,-1.5026553089938972,9.839400567962896,1.2541350045169257
4.423579975051033,4.0126502822769945,1.2848454701960335,-1.490113958948728,9.42581665651824,0.06973817350254634
4.463706477873803,4.1069084488421765,1.269944330606546,-1.4894165772137025,8.863209425733539,-1.3882038280991247
4.504775562362225,4.195540543099512,1.255050164834409,-1.5032986154946937,8.178007533188076,-3.0849997672259173
4.54673096779322,4.277320618431393,1.240017178679462,-1.5341486131669528,7.409333349227894,-4.967442910328634
4.5895041739775335,4.351413951923671,1.2246756925477924,-1.583823042270239,6.605827374698701,-6.968814154661864
4.633018313496771,4.417472225670658,1.20883746212509,-1.6535111838168577,5.8210547616200055,-9.016176833637745
4.6771930357534774,4.4756827732868585,1.1923023502869214,-1.743672952153235,5.108330352247793,-11.038692258492974
4.721949863486346,4.526766076809336,1.1748656207653891,-1.8540598747381647,4.515919334572049,-12.975472305813808
4.7672175242544395,4.571925270155057,1.1563250220180075,-1.9838145977963029,4.083438006635361,-14.781675487897747
4.81293677695599,4.6127596502214105,1.1364868760400444,-2.13163135267528,3.8399548287441867,-16.432059926465655
4.859064373458204,4.651159198508853,1.1151705625132915,-2.2959519519399367,3.803894115862624,-17.921846823566923
4.905575965443292,4.689198139667479,1.092211042993892,-2.4751704201756057,3.9844965078171564,-19.265322484546054
4.952467946839967,4.72904310474565,1.067459338792136,-2.667823645021066,4.384376137740789,-20.49297570563452
4.9997583778874235,4.772886866123058,1.0407811023419253,-2.8727534020774113,5.002660315430973,-21.648085392473458
5.047487246548654,4.822913469277368,1.0120535683211511,-3.089234256002146,5.838277944412331,-22.78358255033395
5.095716381241427,4.881296248721491,0.9811612257611296,-3.3170700815054857,6.893123733367052,-23.959802575458955
5.144529343728642,4.950227486055161,0.9479905249460747,-3.556668107260075,8.175010235873302,-25.24351506459395
5.194031618589194,5.031977588413894,0.912423843873474,-3.8091032579060147,9.70048840565253,-26.70844076363519
5.244351394473333,5.128982472470419,0.8743328112944139,-4.076187665542367,11.49775055536533,-28.4373730644228
5.295641219198037,5.243959978024073,0.8335709346389902,-4.360561396186595,13.609923420037788,-30.526013066354412
5.3480808189782785,5.380059212224451,0.7899653206771243,-4.66582152685014,16.099108915547546,-33.088666916161934
5.401881411100523,5.541050301379926,0.7433071054086229,-4.996708196011759,19.05150136384666,-36.2659538736355
5.457291914114323,5.7315653150183925,0.6933400234485053,-5.359367734748114,22.58367248301621,-40.23441790114458
5.514607567264506,5.957402039848555,0.6397463461010242,-5.76171191375956,26.84927925413983,-45.21685854487872
5.574181587662991,6.225894832389953,0.5821292269634286,-6.213880499208347,32.04292021052556,-51.48876189132956
5.636440535986891,6.546324034495209,0.5199904219713452,-6.728768118121643,38.39063491466862,-59.36621907517784
5.701903776331843,6.930230383641895,0.45270274079012873,-7.322430308873421,46.096495603496685,-69.13282380814113
5.771206080168262,7.3911953396768615,0.37947843770139456,-8.013758546954833,55.1611271513684,-80.78815767659133
5.84511803356503,7.942806611190545,0.29934085223184626,-8.821640123720746,64.85649298952939,-93.3162942652373
5.9245460996769355,8.59137154108584,0.21112445099463878,-9.75480306637312,72.39869197922961,-102.83189658198155
6.010459815087794,9.315358460878135,0.11357642033090759,-10.783122032192935,70.40729947324358,-99.02371205972544
6.103613399696575,10.01943145561057,0.005745200008978241,-11.773359152790189,45.72483582046921,-63.49573165892983
6.20380771425268,10.476679813815263,-0.11198839151892365,-12.408316469379487,-8.128727806114801,12.798353156701824
6.308574512390833,10.395392535754114,-0.23607155621271853,-12.280332937812469,-64.37684487656982,92.41468958197686
6.412528437748374,9.751624086988416,-0.35887488559084324,-11.3561860419927,-86.43485452340923,124.38283702927271
6.510044678618258,8.887275541754324,-0.47243674601077024,-10.112357671699973,-79.57977984647651,116.2017475087278
6.598917434035801,8.091477743289559,-0.5735603227277699,-8.950340196612695,-64.67416980311303,96.9072652250398
6.679832211468697,7.444736045258429,-0.6630637246938968,-7.9812675443622965,-50.960015124587045,79.29969806102329
6.754279571921281,6.935135894012558,-0.7428764001375199,-7.188270563752064,-40.1330713900461,65.71390958074889
6.823630930861407,6.533805180112097,-0.8147591057750405,-6.531131467944575,-31.827911090162527,55.64121189159419
6.888968982662528,6.215526069210472,-0.8800704204544862,-5.974719349028633,-25.409236365649825,48.20288029266725
6.951124243354633,5.961433705553974,-0.9398176139447726,-5.492690546101961,-20.35587648356957,42.67524924644448
7.010738580410173,5.7578749407182785,-0.9947445194057922,-5.065938053637516,-16.294596377802147,38.53262623705115
7.068317329817356,5.594928976940257,-1.0454038999421673,-4.680611791267005,-12.968458616527581,35.4007941402407
7.124266619586758,5.4652443907749815,-1.0922100178548373,-4.326603849864598,-10.203526915963216,33.00855042242415
7.178919063494508,5.363209121615349,-1.1354760563534834,-3.9965183456403564,-7.884408225872305,31.151596838192194
7.232551154710661,5.284365039356627,-1.175441239809887,-3.685002377258434,-5.937755331225837,29.667761337493744
7.285394805104227,5.224987486044368,-1.2122912635824714,-3.388324763883497,-4.321208037261656,28.420576306507595
7.33764467996467,5.181775405671751,-1.2461745112213063,-3.1041190008184207,-3.0155750353282778,27.28896407227133
7.389462434021388,5.151619655318468,-1.2772157012294905,-2.8312293600957075,-2.01859768515007,26.16173149579136
7.440978630574572,5.131433678466967,-1.3055279948304475,-2.5696120451377937,-1.3390973628907108,24.936232853416342
7.492292967359242,5.11804270483806,-1.3312241152818254,-2.32024971660363,-0.990733159166359,23.5208226382944
7.543473394407623,5.108135373246396,-1.3544266124478617,-2.085041490220686,-0.9850777191499294,21.840566857320592
7.594554748140086,5.0982845960548975,-1.3752770273500685,-1.8666358216474803,-1.3242963331088797,19.845154922952194
7.645537594100635,5.085041632723809,-1.3939433855665433,-1.6681842724179583,-1.9943241380081889,17.517220734989884
7.6963880104278735,5.065098391343727,-1.4106252282907228,-1.4930120650680594,-2.9598967095054602,14.8786664564908
7.7470389943413105,5.035499424248672,-1.4255553489414035,-1.3442254005031513,-4.162859607144133,11.992498358216691
7.7973939885837975,4.993870828177231,-1.4389976029464349,-1.2243004169209843,-5.524699190320106,8.95843125743006
7.8473326968655694,4.93862383627403,-1.4512406071156447,-1.1347161043466838,-6.953261442815548,5.902051973606177
7.89671893522831,4.869091221845875,-1.4625877681591115,-1.075695584610622,-8.352483737754497,2.9591798055892164
7.9454098474467685,4.78556638446833,-1.4733447240052178,-1.0461037865547298,-9.633112067961683,0.2585097982530944
7.993265511291452,4.689235263788714,-1.483805761870765,-1.0435186885721988,-10.722156481176645,-2.0939059936603712
8.04015786392934,4.582013698976947,-1.494240948756487,-1.0644577485088025,-11.569302119787002,-4.025429335446634
8.08597800091911,4.466320677779077,-1.504885526241575,-1.1047120418632688,-12.149407074375425,-5.5013715066563975
8.1306412076969,4.344826607035323,-1.5159326466602077,-1.1597257569298327,-12.46121627061794,-6.523423135672267
8.174089473767253,4.220214444329144,-1.527529904229506,-1.2249599882865554,-12.523189727392225,-7.123385685439814
8.216291618210544,4.0949825470552215,-1.5397795041123716,-1.2961938451409536,-12.36772481714521,-7.354262236683072
8.257241443681096,3.9713052988837694,-1.552741442563781,-1.3697364675077843,-12.035046973778732,-7.280771642018028
8.296954496669933,3.850954829145982,-1.5664388072388589,-1.4425441839279647,-11.567761562059504,-6.970892194591247
8.335464044961393,3.7352772135253867,-1.5808642490781386,-1.512253105873877,-11.006652716889539,-6.489374829789914
8.372816817096647,3.6252106863564912,-1.5959867801368774,-1.5771468541717761,-10.387919012583472,-5.893521501564937
8.409068923960211,3.5213314962306566,-1.6117582486785953,-1.6360820691874256,-9.74173802607573,-5.231045800840252
8.444282238922517,3.4239141159698994,-1.6281190693704695,-1.6883925271958282,-9.091882792760035,-4.539567113278669
8.478521380082215,3.332995288042299,-1.6450029946424278,-1.733788198328615,-8.456059381268476,-3.8472107400939493
8.511851332962639,3.2484346942296143,-1.662340876625714,-1.7722603057295545,-7.846660357264515,-3.1738332276318286
8.544335679904934,3.169968090656969,-1.6800634796830094,-1.8039986380058728,-7.271694709974032,-2.5325005398265508
8.576035360811504,3.0972511435572287,-1.698103466063068,-1.8293236434041382,-6.735730401413507,-1.930967960910641
8.607007872247076,3.0298938395430937,-1.7163967024971094,-1.8486333230132446,-6.240752784933198,-1.3730163966237379
8.637306810642507,2.9674863116937615,-1.7348830357272418,-1.8623634869794818,-5.7868930409028065,-0.8595787924142364
8.666981673759445,2.9096173812847335,-1.7535066705970366,-1.8709592749036241,-5.373014793581928,-0.3896423705461624
8.696077847572292,2.855887233348914,-1.7722162633460727,-1.8748556986090859,-4.997167015957385,0.039057760227567094
8.724636719905781,2.80591556318934,-1.7909648203321635,-1.8744651210068102,-4.65692107960266,0.42952398450473683
8.752695875537675,2.7593463523933135,-1.8097094715422317,-1.8701698811617629,-4.349612972925099,0.7851268408301949
8.780289339061609,2.7158502226640624,-1.8284111703538493,-1.862318612753461,-4.072511095723177,1.1093488133696254
8.80744784128825,2.6751251117068304,-1.8470343564813838,-1.8512251246197649,-3.82292757075125,1.4056133252220657
8.834199092405317,2.6368958359993178,-1.8655466077275815,-1.8371689913675442,-3.598287895626755,1.6771760693406426
8.86056805076531,2.6009129570430503,-1.883918297641257,-1.8203972306741378,-3.396170663889849,1.9270607292351607
