th1 (rad),w1 (rad/s),th2 (rad),w2 (rad/s),a1 (rad/s^2),a2 (rad/s^2)
3.7819173719635053,-3.0419346787191177,3.7227287808744123,-0.18824994209878232,5.770906294831033,0.16651765777484387
3.751498025176314,-2.9842256157708076,3.7208462814534244,-0.18658476552103387,5.585572584803984,0.05449544221081415
3.7216557690186063,-2.928369889922768,3.718980433798214,-0.18603981109892573,5.370047138366265,0.0021170316546284523
3.6923720701193785,-2.874669418539105,3.7171200356872247,-0.18601864078237945,5.127549452401469,0.0034486354079469677
3.6636253759339876,-2.8233939240150905,3.715259849279401,-0.1859841544283,4.861589919466983,0.052080472602614926
3.635391436693837,-2.774778024820421,3.713400007735118,-0.18546334970227385,4.5758031702230575,0.1413999883013557
3.607643656445633,-2.7290199931181904,3.7115453742380953,-0.1840493498192603,4.273805299684579,0.2648253067294375
3.580353456514451,-2.6862819401213445,3.7097048807399027,-0.18140109675196592,3.959081134846736,0.41598989795239
3.5534906371132373,-2.646691128772877,3.707890869772383,-0.17724119777244202,3.63490304063313,0.588876441566458
3.5270237258255084,-2.6103420983665457,3.7061184577946586,-0.17135243335677744,3.304279248734489,0.7779031667713405
3.500920304841843,-2.5772993058792006,3.704404933461091,-0.16357340168906404,2.9699274649640746,0.9779693239951328
3.475147311783051,-2.54760003122956,3.7027691994442002,-0.15379370844911272,2.634268441091418,1.1844680769151628
3.4496713114707553,-2.5212573468186457,3.701231262359709,-0.1419490276799611,2.2994340257987074,1.3932753793987016
3.424458738002569,-2.498263006560659,3.6998117720829096,-0.12801627388597409,1.9672846402400976,1.6007227597052827
3.3994761079369624,-2.478590160158258,3.69853160934405,-0.11200904628892126,1.639431890803063,1.8035607723650833
3.3746902063353796,-2.462195841250227,3.6974115188811605,-0.09397343856527043,1.3172629305388308,1.9989185053642224
3.350068247922877,-2.449023211944839,3.696471784495508,-0.07398425351162821,1.0019640738360591,2.1842631566276323
3.325578015803429,-2.439003571206478,3.695731941960392,-0.05214162194535189,0.694541976841468,2.357362442698289
3.301187980091364,-2.4320581514380635,3.6952105257409382,-0.028567997518369005,0.39584138270770725,2.516251532220852
3.2768673985769836,-2.4280997376109865,3.6949248457657546,-0.003405482196160485,0.10655898788994674,2.659205322668528
3.252586401200874,-2.427034147732087,3.694890790943793,0.023186571030524794,-0.17274657913388428,2.7847161917242516
3.228316059723553,-2.4287616135234256,3.6951226566540982,0.05103373294776731,-0.44164834822603183,2.891476835096839
3.204028443588319,-2.433178097005686,3.6956329939835757,0.07994850129873571,-0.6998476146215278,2.978367428366442
3.1796966626182623,-2.440176573151901,3.696432478996563,0.10973217558240013,-0.9471728566146892,3.044446102006406
3.155294896886743,-2.449648301718048,3.697529800752387,0.14017663660246418,-1.1835801745102714,3.088941580028853
3.1307984138695626,-2.461484103463151,3.6989315671184118,0.17106605240275272,-1.4091544405398069,3.1112467909856676
3.106183572834931,-2.475575647868549,3.7006422276424393,0.20217852031260938,-1.6241103844105955,3.1109123042731572
3.081427816356246,-2.4918167517126553,3.7026640128455655,0.23328764335534097,-1.8287929232602558,3.087638563672404
3.0565096488391195,-2.5101046809452576,3.7049968892791187,0.26416402899206504,-2.0236761700075463,3.0412660709650585
3.031408602029667,-2.5303414426453332,3.7076385295690395,0.29457668970171563,-2.2093607104305195,2.9717628998583634
3.0061051876032137,-2.5524350497496386,3.7105842964660565,0.3242943187002993,-2.386568914736467,2.8792091762346823
2.9805808371057174,-2.5763007388970034,3.7138272396530594,0.3530864104626461,-2.556138230380151,2.7637784249536526
2.9548178297167476,-2.601862121200805,3.717358103757686,0.3807241947121826,-2.7190125754312873,2.625715935772207
2.9287992085047394,-2.629052246955118,3.721165345704808,0.40698135406990466,-2.8762321027357363,2.4653145226642863
2.9025086860351883,-2.6578145679824754,3.725235159245507,0.4316344992965475,-3.0289217235070014,2.2828882266713837
2.8759305403553634,-2.6881037852175456,3.7295515042384726,0.4544633815632613,-3.1782788571941327,2.078744632237313
2.849049502503188,-2.719886573789487,3.734096138054105,0.47525082788563444,-3.325560908858913,1.853156526649119
2.821850636765293,-2.7531421828780758,3.7388486463329613,0.49378239315212563,-3.472072966330725,1.6063336337783436
2.7943192149365124,-2.787862912541383,3.7437864702644825,0.509845729489909,-3.619156161239146,1.3383951043984745
2.7664405858110985,-2.8240544741537743,3.7488849275593816,0.5232296805338937,-3.7681770575943907,1.0493433578311797
2.7382000410695606,-2.8617362447297183,3.7541172243647205,0.5337231141122055,-3.920518327472986,0.7390397580659964
2.7095826786222634,-2.9009414280044483,3.7594544555058427,0.5411135116928655,-4.0775708545587985,0.4071824872302112
2.680573264342219,-2.9417171365500363,3.7648655906227715,0.5451853365651675,-4.240727281071635,0.05328686513469739
2.6511560929767186,-2.984124409360753,3.7703174439884233,0.5457182052165145,-4.411376888709885,-0.32333173145981453
2.6213148488831113,-3.0282381782478516,3.7757746260405884,0.5424848879019163,-4.590901584273042,-0.7235722618055256
2.5910324671006326,-3.074147194090582,3.7811994749196076,0.535249165283861,-4.7806726479702,-1.1485596667731375
2.560290995159727,-3.121953920570284,3.7865519665724463,0.5237635686161296,-4.98204779725664,-1.5996536938324195
2.529071455954024,-3.1717743985428504,3.7917896022586075,0.5077670316778055,-5.196368019756145,-2.0784547695134044
2.4973537119685956,-3.223738078740412,3.7968672725753856,0.4869824839826714,-5.424953532506224,-2.586806682775177
2.4651163311811914,-3.277987614065474,3.8017370974152125,0.46111441715491963,-5.669098127799367,-3.126795692077211
2.4323364550405366,-3.3346785953434677,3.8063482415867615,0.4298464602341475,-5.930061064650304,-3.700745473347455
2.398989669087102,-3.3939792059899707,3.810646706189103,0.39283900550067297,-6.209055556438968,-4.3112070872997545
2.3650498770272024,-3.4560697615543603,3.8145750962441096,0.3497269346276754,-6.507232788043945,-4.960942865673326
2.330489179411659,-3.5211420894348,3.8180723655903863,0.3001175059709421,-6.825660270569289,-5.652902801902641
2.2952777585173108,-3.5893986921404926,3.8210735406500955,0.24358847795191568,-7.165293212642384,-6.390191690678509
2.259383771595906,-3.6610516242669164,3.8235094254296147,0.1796865610451306,-7.526937462744276,-7.176024906133891
2.222773255353237,-3.7363209988943593,3.825306291040066,0.10792631198379167,-7.911202471473696,-8.01367036083271
2.1854100453642933,-3.815433023609096,3.826385554159904,0.027789608375464556,-8.318442657742455,-8.906373878732765
2.1472557151282023,-3.8986174501865207,3.8266634502436587,-0.061274130411863095,-8.748685569266726,-9.857264990086794
2.108269540626337,-3.986104305879188,3.82605070893954,-0.15984678031273103,-9.20154534620213,-10.86924007731519
2.068408497567545,-4.0781197593412095,3.8244522411364126,-0.2685391810858829,-9.676120279056319,-11.944819950599099
2.027627299974133,-4.174880962131772,3.8217668493255537,-0.38798738059187393,-10.170873759776772,-13.085979413431847
1.9858784903528153,-4.2765896997295405,3.817886975519635,-0.5188471747261925,-10.68349872647833,-14.293947312919823
1.9431125933555198,-4.383424686994323,3.812698503772373,-0.6617866478553907,-11.210766865452458,-15.568977088370264
1.8992783464855765,-4.495532355648848,3.8060806372938187,-0.8174764187390933,-11.748365413734156,-16.910090058856365
1.854323022929088,-4.61301600978619,3.7979058731064277,-0.9865773193276569,-12.29072642450281,-18.314796715369855
1.808192862831226,-4.735923274031218,3.788040099913151,-1.1697252864813554,-12.830855781049829,-19.778805119402616
1.7608336300909138,-4.864231831841716,3.776342847048338,-1.3675133376753816,-13.360171948912383,-21.295730041646987
1.7121913117724965,-4.99783355133084,3.762667713671584,-1.5804706380918514,-13.86836719471438,-22.856821396272064
1.6622129762591882,-5.136517223277983,3.7468630072906657,-1.809038852054572,-14.34330638364058,-24.450735286177405
1.6108478040264083,-5.279950287114389,3.72877261877012,-2.053546204916346,-14.770979957395584,-26.063374744413377
1.5580483011552644,-5.427660086688345,3.708237156720956,-2.3141799523604796,-15.13552764359905,-27.677828955651012
1.503771700288381,-5.579015363124335,3.6850953571973513,-2.5909582419169896,-15.419347194115314,-29.2744381468333
1.4479815466571377,-5.733208835065488,3.6591857747781815,-2.8837026233853225,-15.603297479864725,-30.831005308154456
1.3906494583064828,-5.889241809864135,3.6303487485443284,-3.192012676466867,-15.66699743747278,-32.323164725753536
1.3317570402078414,-6.0459117842388626,3.59842862177966,-3.5152443237244024,-15.589212132182578,-33.72490109140202
1.2712979223654528,-6.201803905560689,3.563276178542416,-3.8524933346384227,-15.348305835316943,-35.00919304242193
1.209279883309846,-6.355286963913858,3.5247512451960317,-4.202585265062642,-14.922731622619848,-36.148734166927504
1.1457270136707074,-6.504514280140056,3.4827253925454054,-4.5640726067319175,-14.29152034717098,-37.11666692293892
1.080681870869307,-6.647429483611766,3.437084666478086,-4.935239275961306,-13.434731876817944,-37.887255511206455
1.0142075760331892,-6.781776802379946,3.387732273718473,-5.314111831073371,-12.33384063326682,-38.43642729446919
0.9463898080093898,-6.905115208712615,3.334591155407739,-5.698476104018063,-10.972046810022807,-38.74213225379745
0.8773386559222636,-7.014835676812843,3.2776063943675586,-6.085897426556038,-9.334533213121182,-38.78450699157476
0.8071902991541351,-7.1081810089440545,3.2167474201019983,-6.473742496471785,-7.408722037086162,-38.545881248439805
0.7361084890646945,-7.182268229314916,3.1520099951372806,-6.859201308956183,-5.1846201548295845,-38.01072437609736
0.6642858067715454,-7.234114430863212,3.083417982047719,-7.239308552717157,-2.6553676114631335,-37.16568682564656
0.5919446624629132,-7.260668106977843,3.0110248965205475,-7.610965420973622,0.18188765819253258,-35.9999348321769
0.5193379813931348,-7.258849230395918,2.934915242310811,-7.970964769295391,3.324685705366528,-34.50599062789813
0.4467494890891756,-7.2256023733422525,2.8552055946178574,-8.316024675574372,6.763475668974861,-32.681260726387194
0.37449346535575306,-7.157967616652504,2.7720453478621137,-8.642837282838244,10.47941931870946,-30.530347993016097
0.302913789189228,-7.0531734234654095,2.685616975033731,-8.948140762768405,14.44198113694665,-28.06809249937508
0.23238205495457392,-6.908753612095943,2.596135567406047,-9.228821687762157,18.60668644761307,-25.3230778830202
0.1632945188336145,-6.722686747619812,2.5038473505284253,-9.482052466592359,22.913603721908263,-22.341102082415638
0.09606765135741639,-6.493550710400729,2.409026825862502,-9.705463487416516,27.287223741704913,-19.187899662386517
0.0311321442534091,-6.22067847298368,2.3119721909883366,-9.897342484040381,31.638396903234767,-15.950298072759571
-0.031074640476427703,-5.904294503951332,2.212998766147933,-10.056845464767976,35.868788156640846,-12.735078384214729
-0.09011758551594103,-5.545606622384924,2.112430311500253,-10.184196248610123,39.87789694572619,-9.6651477170349
-0.14557365173979026,-5.146827652927662,2.0105883490141516,-10.280847725780472,43.57212438160308,-6.8731970600108445
-0.19704192826906688,-4.711106409111632,1.907779871756347,-10.34957969638058,46.87479748304535,-4.4936963119809965
-0.2441529923601832,-4.242358434281178,1.8042840747925413,-10.39451665950039,49.735680780918656,-2.6546694915488462
-0.28657657670299497,-3.745001626471992,1.7003389081975373,-10.421063354415878,52.1384948889012,-1.470989372694246
-0.3240265929677149,-3.2236166775829798,1.5961282746533785,-10.435773248142821,54.10538198498272,-1.0408123311589854
-0.3562627597435447,-2.6825628577331524,1.4917705421719503,-10.446181371454411,55.69801017146202,-1.4462767531158607
-0.3830883883208762,-2.1255827560185323,1.3873087284574062,-10.46064413898557,57.015861009268754,-2.7588949498028077
-0.40434421588106156,-1.5554241459258447,1.2827022870675504,-10.488233088483598,58.1929259110347,-5.049417925609748
-0.41989845734032,-0.9734948868154977,1.1778199561827145,-10.538727267739695,59.39432699226154,-8.401501958636246
-0.42963340620847495,-0.3795516168928823,1.0724326835053175,-10.622742287326057,60.814113367937296,-12.92818354847581
-0.43342892237740377,0.22858951678649064,0.9662052606320569,-10.752024122810814,62.674401263070656,-18.789470807197077
-0.43114302720953884,0.8553335294171972,0.8586850194039488,-10.939918830882785,65.2233070219381,-26.206866313683133
-0.4225896919153669,1.5075665996365784,0.7492858310951209,-11.201987494019617,68.72226579669876,-35.46262389977138
-0.4075140259190011,2.194789257603566,0.6372659561549248,-11.55661373301733,73.39531425565443,-46.84811403755901
-0.3855661333429654,2.9287424001601106,0.5216998188247515,-12.025094873392922,79.26543681468078,-60.46119036703148
-0.3562787093413643,3.7213967683069185,0.40144887009082225,-12.629706777063237,85.68530927989694,-75.58904880965672
-0.3190647416582951,4.578249861105888,0.2751518023201899,-13.385597265159804,90.13721402436961,-89.08401841477968
-0.27328224304723625,5.479622001349584,0.14129582966859183,-14.2764374493076,85.80016783376473,-92.00650919322014
-0.2184860230337404,6.337623679687232,-0.0014685448244841637,-15.196502541239802,59.63898856511174,-66.87405403752905
-0.15510978623686808,6.934013565338349,-0.1534335702368822,-15.865243081615093,2.0327227368540277,-0.6155570742177278
-0.0857696505834846,6.954340792706889,-0.31208600105303314,-15.87139865235727,-65.07600666091147,77.27768668631523
-0.0162262426564157,6.303580726097774,-0.4707999875766058,-15.098621785494117,-100.14092138322454,111.86358794961346
0.04680956460456204,5.302171512265529,-0.621786205431547,-13.979985905997983,-101.29725728167892,102.6224537753212
0.09983127972721734,4.28919893944874,-0.7615860644915268,-12.953761368244772,-90.60701184310554,79.73991552021221
0.14272326912170474,3.3831288210176846,-0.8911236781739744,-12.15636221304265,-79.78737979167899,58.26969794437347
0.17655455733188158,2.5852550231008946,-1.012687300304401,-11.573665233598915,-71.54216708029288,41.155537305251606
0.20240710756289051,1.8698333522979658,-1.12842395264039,-11.162109860546398,-65.79572831101525,27.890331443678097
0.22110544108587016,1.2118760691878132,-1.240045051245854,-10.883206546109617,-61.973718015944556,17.5102035976544
0.2332242017777483,0.5921388890283676,-1.3488771167069502,-10.708104510133074,-59.54080869603262,9.237184921641536
0.23914559066803198,-0.0032691979319585673,-1.4559581618082809,-10.61573266091666,-58.076319448420286,2.5347217810290776
0.23911289868871238,-0.5840323924161614,-1.5621154884174475,-10.590385443106369,-57.2531997157236,-2.9448181623082026
0.23327257476455077,-1.1565643895733975,-1.6680193428485113,-10.61983362472945,-56.80730628332933,-7.415673039645314
0.2217069308688168,-1.7246374524066908,-1.7742176790958057,-10.693990355125903,-56.5144335530813,-11.001132214256886
0.20446055634474988,-2.2897817879375038,-1.8811575826470648,-10.804001677268472,-56.17680868545699,-13.765043114439488
0.18156273846537485,-2.851549874792074,-1.9891975994197495,-10.941652108412868,-55.61780961247032,-15.736629779772418
0.1530472397174541,-3.4077279709167767,-2.098614120503878,-11.099018406210591,-54.68332872215648,-16.93163503620009
0.11896996000828633,-3.954561258138342,-2.2096043045659837,-11.268334756572592,-53.248031971338776,-17.371049014808886
0.07942434742690291,-4.48704157785173,-2.3222876521317097,-11.442045246720681,-51.224294367974366,-17.097042423038676
0.03455393164838561,-4.999284521531473,-2.4367081045989165,-11.613015670951068,-48.570985735759415,-16.18446414361304
-0.01543891356692912,-5.484994378889067,-2.5528382613084273,-11.774860312387199,-45.29894390366957,-14.745724979080006
-0.0702888573558198,-5.937983817925763,-2.670586864432299,-11.922317562178,-41.47035235811482,-12.927382245788486
-0.12966869553507743,-6.352687341506911,-2.7898100400540793,-12.051591384635884,-37.190562788111784,-10.89829154425262
-0.19319556895014656,-6.724592969388029,-2.910325953900438,-12.16057430007841,-32.5929481121261,-8.831343531464832
-0.2604414986440269,-7.05052245050929,-3.031931696901222,-12.248887735393058,-27.819453307243503,-6.882678231679168
-0.33094672314911977,-7.328716983581725,-3.1544205742551528,-12.31771451770985,-23.00078437287304,-5.17298249755822
-0.40423389298493706,-7.5587248273104555,-3.277597719432251,-12.369444342685433,-18.24011434990245,-3.7746582038844263
-0.47982114125804165,-7.74112597080948,-3.4012921628591055,-12.407190924724278,-13.602903733927327,-2.7066913304656466
-0.5572324009661365,-7.877155008148754,-3.525364072106348,-12.434257838028934,-9.113598011867838,-1.9368655990710086
-0.636003951047624,-7.968290988267432,-3.6497066504866376,-12.453626494019645,-4.758378433524999,-1.3894314647819168
-0.7156868609302983,-8.015874772602682,-3.774242915426834,-12.467520808667464,-0.49231099281841084,-0.9558746002749721
-0.7958456086563251,-8.020797882530866,-3.898918123513509,-12.477079554670214,3.7507883494561134,-0.5068908753193475
-0.8760535874816338,-7.983289999036305,-4.023688919060211,-12.482148463423407,8.046971454546897,0.09539571747585471
-0.9558864874719968,-7.902820284490836,-4.148510403694445,-12.481194506248649,12.469874847372276,0.9850417922697002
-1.034914690316905,-7.778121536017114,-4.273322348756931,-12.471344088325951,17.07781364209442,2.279299151496927
-1.1126959056770762,-7.60734339959617,-4.398035789640191,-12.448551096810982,21.900641419364717,4.064721841303632
-1.1887693396730379,-7.388336985402523,-4.5225213006083,-12.407903878397946,26.927362506807835,6.382789683589585
-1.2626527095270632,-7.119063360334445,-4.64660033939228,-12.34407598156205,32.09641285318225,9.216691316496073
-1.3338433431304078,-6.798099231802622,-4.7700410992079005,-12.251909068397088,37.291405040596196,12.482223496767071
-1.4018243354484339,-6.42518518139666,-4.892560189891872,-12.127086833429418,42.345375827759874,16.026529348340535
-1.4660761872624004,-6.001731423119062,-5.013831058226166,-11.966821539946013,47.05558018459816,19.637876664102386
-1.526093501493591,-5.53117562127308,-5.133499273625626,-11.770442773304989,51.20841339348607,23.06743351832492
-1.5814052577063218,-5.019091487338219,-5.251203701358675,-11.53976843812174,54.61065822173183,26.06039498937196
-1.631596172579704,-4.472984905120901,-5.366601385739893,-11.279164488228021,57.12032172774451,28.39018948288639
-1.6763260216309128,-3.901781687843456,-5.479393030622173,-10.995262593399158,58.66945573953736,29.887646400369423
-1.7153438385093474,-3.3150871304480827,-5.589345656556165,-10.696386129395464,59.27336321143012,30.458123360248994
-1.7484947098138282,-2.7223534983337814,-5.6963095178501195,-10.391804895792975,59.024794013277436,30.08334794948253
-1.775718244797166,-2.132105558201007,-5.800227566808049,-10.09097141629815,58.07623366723126,28.809385485664034
-1.797039300379176,-1.5513432215286942,-5.901137280971031,-9.802877561441509,56.616247376137764,26.725627643835907
-1.812552732594463,-0.9851807477673166,-5.999166056585445,-9.535621285003149,54.84619732231959,23.94082397870924
-1.8224045400721363,-0.43671877454412067,-6.094522269435477,-9.296213045216057,52.96198158862367,20.5611106862027
-1.8267717278175775,0.09290104134211608,-6.187484399887637,-9.09060193835403,51.142963545790536,16.67277878021248
-1.8258427174041563,0.6043306768000214,-6.278390419271178,-8.923874150551905,49.548094084831824,12.330305902985655
-1.8197994106361561,1.0998116176483397,-6.367629160776697,-8.800571091522048,48.31793047093847,7.548645823064437
-1.8088012944596727,1.5829909223577243,-6.455634871691918,-8.725084633291404,47.58080435498529,2.298109173820367
-1.7929713852360956,2.0587989659075774,-6.542885718024832,-8.7021035415532,47.46141663664772,-3.4997056244670275
-1.7723833955770198,2.5334131322740547,-6.6299067534403635,-8.73710059779787,48.09008815903169,-9.975553821074044
