th1 (rad),w1 (rad/s),th2 (rad),w2 (rad/s)
3.430623680469132,-0.5682838128210257,2.3469682560074565,-1.4930606378481184
3.4249408423409218,-0.5303445782305567,2.332037649628975,-1.577899097310394
3.4196373965586164,-0.4944651388390858,2.316258658655871,-1.6628529145978113
3.4146927451702256,-0.4607560166226209,2.299630129509893,-1.7478668410312848
3.4100851850039993,-0.4293283122385504,2.28215146109958,-1.832895810221758
3.4057919018816136,-0.400293614607596,2.2638225029973627,-1.9179054020092319
3.4017889657355376,-0.3737639611692484,2.2446434489772704,-2.002872269433426
3.398051326123845,-0.34985185599866037,2.2246147262829363,-2.0877845180589536
3.3945528075638585,-0.3286703526232815,2.203736881102347,-2.1726420271284304
3.3912661040376255,-0.31033320744118176,2.1820104608310626,-2.2574567027692467
3.3881627719632137,-0.2949551081603195,2.15943589380337,-2.3422526547397733
3.3852132208816106,-0.28265197972277556,2.1360133672559725,-2.427066289823764
3.382386701084383,-0.2735413678465157,2.111742704357735,-2.5119463167869016
3.3796512874059177,-0.26774289771565124,2.0866232411898658,-2.5969536595967044
3.376973858428761,-0.26537880258133967,2.0606537045938986,-2.6821612771741177
3.3743200704029475,-0.26657451418725386,2.0338320918221573,-2.7676538891028413
3.371654325261075,-0.27145930406920044,2.006155552931129,-2.853527607307121
3.3689397322203827,-0.28016696193018725,1.9776202768580577,-2.939889473590466
3.3661380626010806,-0.2928364944581521,1.948221382122153,-3.026856902014758
3.363209697656499,-0.30961282509821814,1.9179528131020054,-3.1145570233383655
3.360113569405517,-0.3306474723493844,1.8868072428686218,-3.203125926106169
3.3568070946820234,-0.35609918103816324,1.8547759836075601,-3.2927077855094256
3.353246102871642,-0.3861344776253412,1.8218489057524658,-3.3834538668528795
3.3493847580953884,-0.4209281168193214,1.788014367083937,-3.4755213854500933
3.3451754769271953,-0.46066338250171934,1.7532591532294362,-3.5690721991110474
3.340568843102178,-0.505532201142856,1.7175684312383257,-3.6642713032141545
3.3355135210907494,-0.5557350204622146,1.680925718206184,-3.7612850918327636
3.329956170886127,-0.6114804000990653,1.6433128672878565,-3.8602793417332646
3.3238413668851363,-0.6729842546150852,1.6047100738705238,-3.9614168695731307
3.3171115243389853,-0.7404686824842254,1.5650959051747926,-4.0648548067015975
3.309706837514143,-0.8141603082179203,1.5244473571077766,-4.170741431139604
3.301565234431964,-0.894288059002094,1.4827399427963806,-4.279212493301167
3.292622353841943,-0.9810802930012383,1.439947817863369,-4.390386971742728
3.2828115509119304,-1.074761194913674,1.3960439481459417,-4.504362198867598
3.272063938962794,-1.1755463568650104,1.3510003261572656,-4.621208305520555
3.260308475394144,-1.2836374710754486,1.30478824310206,-4.740961949505012
3.2474721006833893,-1.3992160770405166,1.25737862360701,-4.863619318191188
3.2334799399129843,-1.522436332607066,1.208742430425098,-4.989128431623879
3.218255576586914,-1.6534168178153044,1.158851146108859,-5.117380821861607
3.2017214084087606,-1.792231435083123,1.107677337890243,-5.248202728250833
3.1837990940579295,-1.9388995410493997,1.0551953106077345,-5.3813460276381235
3.1644100986474353,-2.093375534850051,1.0013818503313532,-5.5164792123075665
3.1434763432989348,-2.255538233561242,0.9462170582082775,-5.6531788335652875
3.120920960963322,-2.42518048401194,0.8896852698726246,-5.7909219391073785
3.0966691561232027,-2.6019995834533014,0.8317760504815509,-5.929080137428404
3.07064916028867,-2.7855891975578237,0.7724852491072669,-6.066916008015293
3.042793268313092,-2.9754335560947487,0.711816089027114,-6.203582623182914
3.0130389327521443,-3.1709047534537915,0.6497802627952849,-6.33812693435733
2.9813298852176064,-3.371263959694336,0.5863989934517115,-6.469497680069931
2.947617245620663,-3.5756672356452808,0.5217040166510122,-6.5965582760104144
2.91186057326421,-3.7831764261092675,0.45573843389090807,-6.718104839063385
2.8740288090031174,-3.9927752731543125,0.3885573855002742,-6.83288908177986
2.8341010562715745,-4.203390458498031,0.3202284946824756,-6.9396453153129585
2.7920671516865943,-4.41391678260129,0.250832041529346,-7.037120263644557
2.7479279838605812,-4.623245171804457,0.18046083889290043,-7.124103886110769
2.7016955321425367,-4.830291743302048,0.10921980003179274,-7.199459007199865
2.6533926147095164,-5.034025826368892,0.03722520995979409,-7.26214733979995
2.6030523564458274,-5.233494703739949,-0.035396263438205414,-7.31124952063617
2.5507174094084277,-5.427842942064255,-0.10850875864456712,-7.345977081795386
2.496438979987785,-5.616324531545649,-0.18196852946252098,-7.365674844441644
2.4402757346723285,-5.798306618419345,-0.25562527790693745,-7.369812981412822
2.382292668488135,-5.973264320742646,-0.32932340772106566,-7.357968863132338
2.322560025280709,-6.140766878053844,-0.402903096352389,-7.329799671656625
2.2611523565001703,-6.300456107233845,-0.4762010930689553,-7.285007545688656
2.1981477954278317,-6.452018746674443,-0.5490511685258419,-7.2232996392965365
2.1336276079610874,-6.595154726590646,-0.6212841649188072,-7.144345913795894
2.067676060695181,-6.729543699732016,-0.6927276240567661,-7.04773775147848
2.0003806236978607,-6.854812330959447,-0.7632050015715509,-6.932950627566472
1.9318325003882664,-6.970504923711986,-0.8325345078472156,-6.799314161038673
1.8621274511511465,-7.076060007821021,-0.9005276494576023,-6.645992934162631
1.7913668510729364,-7.170795563973195,-0.9669875787992286,-6.471981541135717
1.7196588954332044,-7.2539056216562585,-1.0317073942105857,-6.2761173627699645
1.6471198392166417,-7.32447099958003,-1.0944685678382853,-6.057114463557475
1.5738751292208415,-7.381486862830986,-1.15503971247386,-5.813621590591109
1.5000602605925317,-7.423909390945536,-1.2131759283797712,-5.544306271010331
1.4258211666830765,-7.450722977454606,-1.2686189910898744,-5.247965166012678
1.3513139369085303,-7.461027792598833,-1.321098642750001,-4.923657884558565
1.276703658982542,-7.454145074385629,-1.3703352215955868,-4.570857278528593
1.2021622082386858,-7.429734178525647,-1.4160437943808728,-4.189604041950632
1.1278648664534294,-7.387911532796468,-1.4579398348003791,-3.780647925725154
1.0539857511254647,-7.329357939819257,-1.4957463140576306,-3.345553357774695
0.9806921717272721,-7.255398294870302,-1.5292018476353775,-2.8867455115849565
0.9081381887785691,-7.168038057272907,-1.5580693027512271,-2.4074757162243285
0.83645780820584,-7.069944773369588,-1.5821440599134704,-1.9116936318563382
0.7657583604721442,-6.9643707412982,-1.6012609962320339,-1.4038273025361931
0.6961146530591622,-6.85502333537096,-1.6152992692573958,-0.8884884282893447
0.6275644197054526,-6.745900095333494,-1.6241841535402892,-0.37013466937445205
0.5601054187521177,-6.641113432172787,-1.6278855002340338,0.14727106468682727
0.4936942844303899,-6.5447323849826065,-1.6264127895871654,0.6605655178010512
0.4282469605805638,-6.460665685597218,-1.619807134409155,1.167625677701682
0.3636403037245916,-6.392602854882173,-1.6081308776321381,1.66753295820458
0.2997142751757699,-6.344020911742602,-1.5914555480500923,2.160666659320493
0.23627406605834383,-6.31825640455336,-1.5698488814568874,2.648747215204231
0.17309150201281023,-6.318637810257045,-1.5433614093048451,3.1348591266998653
0.10990512391023978,-6.348672351490783,-1.5120128180378465,3.6234870604169442
0.046418400395331946,-6.412282908951599,-1.475777947433677,4.120597174634798
-0.017704428694184038,-6.514092298098122,-1.434571975687329,4.633789326946895
-0.08284535167516525,-6.659748318893483,-1.38823408241786,5.172530458055041
-0.1494428348641001,-6.856261428759364,-1.3365087778373097,5.748440604899716
-0.21800544915169373,-7.112257283308726,-1.2790243717883125,6.375499695470762
-0.289128021984781,-7.437851425789294,-1.215269374833605,7.069768003226302
-0.3635065362426739,-7.843340819114691,-1.144571694801342,7.847496948260784
-0.44193994443382084,-8.334645032243287,-1.0660967253187341,8.718744763291157
-0.5252863947562537,-8.900754232266738,-0.9789092776858226,9.669869222876176
-0.6142939370789211,-9.485172865476624,-0.8822105854570608,10.62368881415081
-0.7091456657336873,-9.9416293151299,-0.7759736973155527,11.377698518529627
-0.8085619588849863,-10.034369998994011,-0.6621967121302563,11.6048735014722
-0.9089056588749264,-9.619353908123086,-0.5461479771155343,11.107702791272262
-1.0050991979561572,-8.862791770853839,-0.4350709492028117,10.122924287440156
-1.0937271156646955,-8.056917237857816,-0.33384170632841015,9.061879862321762
-1.1742962880432737,-7.351157131433337,-0.24322290770519253,8.135224000689258
-1.247807859357607,-6.769231391159459,-0.16187066769829994,7.377893439173258
-1.3155001732692015,-6.292975725447049,-0.08809173330656736,6.766302349405172
-1.378429930523672,-5.898948156375955,-0.02042870981251564,6.26936749122806
-1.4374194120874315,-5.567568734420604,0.04226496509976496,5.861257325467972
-1.4930950994316377,-5.283974342724258,0.10087753835444468,5.522621007548839
-1.5459348428588802,-5.037096633759929,0.15610374842993308,5.23934410378726
-1.5963058091964795,-4.8186390483649335,0.20849718946780568,5.00115519867511
-1.6444921996801287,-4.6222809963703915,0.25850874145455677,4.800536634548124
-1.6907150096438326,-4.4431127776369,0.306514107800038,4.631942375395883
-1.7351461374202015,-4.277246919912348,0.3528335315539968,4.491244888355786
-1.777918606619325,-4.121555792878215,0.3977459804375547,4.37533759179652
-1.8191341645481072,-3.973499496523667,0.4414993563555199,4.281837925148046
-1.8588691595133437,-3.831020187741834,0.48431773560700037,4.208852382870156
-1.8971793613907622,-3.6924873412170327,0.526406259435702,4.154777034692807
-1.9341042348029325,-3.5566831856942533,0.56795402978263,4.11811646874545
-1.969671066659875,-3.4228190998867727,0.6091351944700845,4.097312526307225
-2.0038992576587424,-3.2905723318943787,0.6501083197331567,4.090583108223755
-2.0368049809776863,-3.16012839749355,0.6910141508153943,4.095781399886593
-2.0684062649526216,-3.032208989466167,0.7319719648142602,4.1102963522476
-2.098728354847283,-2.9080605684209995,0.7730749283367362,4.131023367704186
-2.127808960531493,-2.7893788403073154,0.8143851620137781,4.154434940704846
-2.155702748934566,-2.6781533083440894,0.8559295114208265,4.176769003321952
-2.1824842820180073,-2.5764359964958667,0.8976972014540461,4.194325642983948
-2.208248641982966,-2.486065593343536,0.9396404578838855,4.203826213496876
-2.2331092979164016,-2.4084021135048945,0.9816787200188543,4.202757397062935
-2.2571933190514506,-2.3441344048519928,1.0237062939894837,4.189614592002472
-2.2806346630999705,-2.2932060513656642,1.0656024399095083,4.163983603198605
-2.3035667236136272,-2.254869887087409,1.1072422759414944,4.126448784921258
-2.3261154224845013,-2.227843797471498,1.148506763790707,4.078366810009651
-2.3483938604592165,-2.2105175022696075,1.1892904318908035,4.02157551076616
-2.3704990354819127,-2.2011584623345852,1.2295061869984651,3.9581080870562038
-2.3925106201052584,-2.1980799681626855,1.2690872678690273,3.8899618077714178
-2.414491419786885,-2.199755103644613,1.3079868859467414,3.818942013554859
-2.4364889708233313,-2.2048775250899513,1.34617630608229,3.7465790145171844
-2.4585377460742306,-2.212379898630328,1.3836420962274618,3.674102453247106
-2.480661545060534,-2.2214238839174345,1.420383120759933,3.6024539742445816
-2.502875783899708,-2.2313742317752823,1.4564076605023788,3.5323211089303417
-2.525189526217461,-2.2417663956431007,1.4917308715916822,3.4641797232594995
-2.547607190173892,-2.252273719258093,1.5263726688242771,3.3983369434123607
-2.570129927366473,-2.262677551616112,1.5603560382584007,3.3349701397406712
-2.5927567028826344,-2.2728417538810897,1.5937057396558074,3.274160073848288
-2.6154851204214453,-2.2826919041111906,1.6264473403942903,3.215917850003304
-2.638312039462557,-2.292198881564599,1.6586065188943233,3.160206130045004
-2.661234028278203,-2.3013662364013223,1.6902085801947733,3.10695542555696
-2.6842476906422164,-2.3102206790980735,1.721278134450343,3.05607636622275
-2.707349897433197,-2.3188050594708023,1.7518388981125705,3.007468789042122
-2.730537948027905,-2.3271732878244604,1.7819135860029918,2.9610283789197474
-2.7538096809061496,-2.335386746485993,1.8115238697921892,2.9166514614972643
-2.7771635483710098,-2.34351183149514,1.8406903844071618,2.8742384263424903
-2.800598666685961,-2.3516183439987968,1.8694327686705867,2.8336961521641824
-2.824114850125949,-2.359778516750172,1.8977697301922285,2.794939717991465
-2.8477126352934508,-2.3680665135492234,1.9257191273721432,2.757893614185288
-2.871393300428943,-2.3765582800923375,1.953298063513996,2.7224926122222004
-2.8951588832298665,-2.3853316554373283,1.980522989636218,2.6886824094975963
-2.9190121997842398,-2.394466675929974,2.007409813731194,2.6564201321285594
-2.9429568665435397,-2.4040460194841082,2.0339740150524794,2.6256747523834894
-2.966997326738381,-2.4141555487135418,2.0602307625763143,2.5964274557436338
-2.9911388822255165,-2.424884917386891,2.0861950371337508,2.5686719738117962
-3.0153877313993855,-2.436328206495511,2.1118817568718686,2.542414881637447
-3.0397510134643406,-2.448584554073639,2.137305905688243,2.5176758399675614
-3.064236859005077,-2.461758736707521,2.1624826640879187,2.494487742963631
-3.088854446372152,-2.4759616501096824,2.187427541517555,2.472896708572156
-3.113614062873249,-2.4913106207385756,2.212156508603276,2.452961820544283
-3.1385271690806347,-2.5079294596602426,2.236686126808719,2.434754496710769
-3.163606463677237,-2.525948143216097,2.2610336717758264,2.418357316458023
-3.188865945109398,-2.5455019724966825,2.2852172449404065,2.403862091009358
-3.214320964834365,-2.566730025898115,2.3092558658505,2.3913669040028567
-3.2399882650933463,-2.589772678537971,2.3331695348905286,2.380971790263745
-3.2658859918787257,-2.614767924144263,2.356979252793166,2.372772664856324
-3.2920336711201683,-2.6418462085969643,2.380706979441729,2.366853075901587
-3.318452133206138,-2.6711234851714316,2.4043755102007447,2.363273355576762
-3.345163368057852,-2.7026922533628737,2.4280082437565125,2.3620568180691524
-3.372190290591481,-2.7366104786566945,2.451628811937204,2.363172847874746
-3.3995563953780477,-2.7728885496536675,2.4752605404159516,2.366517093860266
-3.4272852808745844,-2.811474851015004,2.498925711354554,2.3718895904784847
-3.4554000293847342,-2.8522411373877805,2.522644607259339,2.378972498579432
-3.483922440758612,-2.894969658486138,2.5464343322451333,2.3873102572009035
-3.5128721373434733,-2.9393447938158994,2.5703074348171424,2.396296100909441
-3.542265585281632,-2.9849525661567187,2.594270395826237,2.405169781379684
-3.5721151109431992,-3.0312914475050614,2.618322093640034,2.4130314115714424
-3.60242802541825,-3.077796934988071,2.6424524077557483,2.4188750333062585
-3.6332059947681308,-3.1238801922221073,2.6666411580888107,2.4216424124660407
-3.664444796690352,-3.168977783585644,2.690857582213471,2.4202929112575275
-3.696134574526208,-3.2126059622968373,2.715060511326046,2.4138801872261153
-3.7282606341491764,-3.2544104234743356,2.7391993131983075,2.401622791817833
-3.7608047383839196,-3.294202213592224,2.7632155411164856,2.3829553600706945
-3.793746760519842,-3.3319731390484657,2.7870450947171928,2.357550783028772
-3.8270664919103266,-3.3678888123463753,2.8106206025474805,2.3253105252475508
-3.8607453800337903,-3.4022626584083238,2.833873707799956,2.2863276135232473
-3.8947680066178734,-3.435517898776149,2.8567369839351886,2.240832116431709
-3.929123185605635,-3.468145700298934,2.8791453050995055,2.1891306702130047
-3.963804642608624,-3.500666483001794,2.9010366118016355,2.13154999731805
-3.998811307438642,-3.533598837036563,2.922352111774816,2.068390819617404
-4.034147295809007,-3.567437765233471,2.94303601997099,1.999894730867626
-4.069821673461342,-3.6026418450905737,2.963034967279666,1.9262235975917472
-4.1058480919122475,-3.63962767693687,2.9822972032555835,1.8474493163326688
-4.142244368681617,-3.678769554707658,3.00077169641891,1.7635511381972853
-4.179032064228693,-3.72040239549092,3.018407207800883,1.6744179086305493
-4.216236088183602,-3.7648263241940434,3.0351513868871884,1.5798530843857699
-4.253884351425542,-3.8123117353900198,3.050949917731046,1.4795810066337611
-4.292007468779443,-3.8631040363797062,3.0657457277973834,1.3732534746554448
-4.33063850914324,-3.9174275700530656,3.0794782625439376,1.2604561160859655
-4.369812784843771,-3.9754884188237076,3.0920828237047973,1.1407143799162567
-4.409567669032008,-4.037475915756542,3.10348996750396,1.0134992059404255
-4.449942428189573,-4.103562755554826,3.113624959563364,0.8782325750678532
-4.490978055745121,-4.173903624974029,3.1224072853140425,0.7342932429896993
-4.532717091994861,-4.24863227491389,3.1297502177439394,0.5810230235908935
-4.575203414744,-4.3278569469296775,3.1355604479798482,0.41773403041478413
-4.618481984213297,-4.411654054537864,3.139737788283996,0.24371731085161893
-4.662598524758676,-4.500060012057364,3.142174961392512,0.05825332012073445
-4.707599124879249,-4.593061107472195,3.1427574945937193,-0.13937532183045293
-4.753529735953971,-4.690581337171421,3.141363741375415,-0.3498683732384872
-4.800435549325686,-4.792468165463619,3.13786505764303,-0.5738894516739219
-4.8483602309803215,-4.898476246137675,3.1321261631262907,-0.8120441867663336
-4.897344993441698,-5.00824925173238,3.1240057212586274,-1.0648549214175407
-4.947427485959022,-5.121300101283407,3.113357172044452,-1.332732038377699
-4.998640486971856,-5.2369900585105595,3.100029851660675,-1.6159422490166429
-5.051010387556961,-5.3545073842394775,3.0838704291705086,-1.9145744978213823
-5.1045554613993565,-5.472846457739265,3.064724684192295,-2.228504496752118
-5.159283925976749,-5.590788513284994,3.0424396392247735,-2.557359283755932
-5.215191811109599,-5.7068853462817115,3.0168660463872143,-2.90048356354942
-5.272260664572416,-5.819447499920759,2.98786121075172,-3.256909891590329
-5.330455139571623,-5.926538521952695,2.955292111835817,-3.6253349571318263
-5.389720524791151,-6.02597686244383,2.9190387622644987,-4.004104269435625
-5.449980293415589,-6.115346861516959,2.8789977195701426,-4.391207433419391
-5.5111337620307586,-6.192020062447394,2.8350856452359485,-4.7842859280619665
-5.573053962655233,-6.253187806990473,2.787242785955329,-5.180654917494983
-5.635585840725137,-6.295905759479059,2.735436236780379,-5.577340202163352
-5.698544898319928,-6.317150686023978,2.6796628347587452,-5.971131032705741
-5.7617164051801675,-6.313889474556868,2.6199515244316878,-6.358649212581154
-5.824855299925736,-6.283159959404503,2.556365032305876,-6.736434695132215
-5.887686899519781,-6.2221624950444,2.489000685354554,-7.101047638318583
-5.949908524470225,-6.128360258691747,2.417990208971368,-7.449186433759052
-6.011192127057143,-5.999584819987201,2.3434983446337774,-7.777820354032309
-6.071187975257015,-5.834141564995402,2.265720141093454,-8.08433398832038
-6.129529390906969,-5.630907250464313,2.1848768012102506,-8.366678547925783
-6.185838463411612,-5.389409682526328,2.101210015730993,-8.623522674347537
-6.239732560236875,-5.109877876887593,2.0149747889875176,-8.854393141332055
-6.29083133900575,-4.79325078384881,1.926430857574197,-9.059794623354636
-6.338763846844238,-4.441134344904107,1.8358329113406506,-9.241298367100123
-6.383175190293279,-4.0557004778536685,1.7434199276696494,-9.40159275788635
-6.423732195071816,-3.639527133222888,1.649404000090786,-9.544494482405456
-6.460127466404045,-3.1953847478357043,1.5539590552667313,-9.674926621774123
-6.4920813138824025,-2.7259797557085754,1.4572097890489901,-9.798878337794743
-6.519341111439489,-2.233668883318091,1.3592210056710428,-9.923368344029926
-6.541677800272669,-1.720157984703693,1.2599873222307436,-10.05643969241357
-6.5588793801197065,-1.1861966052890045,1.159422925306608,-10.207215371968111
-6.570741346172596,-0.6312766001788139,1.0573507715869268,-10.38604116976019
-6.577054112174385,-0.05334542313364987,0.953490359889325,-10.604729837796842
-6.577587566405722,0.5514356907798972,0.8474430615113565,-10.876886012835687
