th1 (rad),w1 (rad/s),th2 (rad),w2 (rad/s)
4.915572594596808,-3.097402195192343,2.33897741198438,-0.6087360346007462
4.884598572644885,-2.9622918425965294,2.332890051638372,-0.5137353508987021
4.8549756542189195,-2.8299558281023236,2.3277526981293852,-0.42584266697535095
4.826676095937897,-2.700496560552716,2.323494271459632,-0.34513045524769825
4.79967113033237,-2.5739595465358036,2.3200429669071547,-0.2715821658549325
4.773931534867012,-2.4503417776308147,2.3173271452486053,-0.20510660943903797
4.749428117090704,-2.3295998237736253,2.315276079154215,-0.1455514166733552
4.726132118852968,-2.211657423924274,2.3138205649874815,-0.09271530042328191
4.704015544613726,-2.0964124316898625,2.3128934119832487,-0.04635896060625905
4.683051420296827,-1.9837430322136882,2.312429822377186,-0.006214567533219577
4.6632139899746905,-1.8735131952872315,2.312367676701854,0.028006165131579053
4.644478858021818,-1.7655773676155073,2.31264773835317,0.05660525124005311
4.626823084345664,-1.6597844349200441,2.3132137908655706,0.07989294287973273
4.610225239996463,-1.5559810032492627,2.3140127202943677,0.09818335473803465
4.594665429963971,-1.4540140599889777,2.314994553841748,0.11179106580362061
4.580125289364081,-1.3537330802253558,2.3161124644997844,0.12102856112786631
4.566587958561827,-1.2549916448269869,2.317322750111063,0.12620438186406754
4.554038042113557,-1.1576486342171401,2.3185847939297037,0.12762186152389574
4.542461555771386,-1.0615690574089953,2.319861012544943,0.1255783385644141
4.531845865197296,-0.9666245703478044,2.321116795930587,0.12036474870440479
4.5221796194938175,-0.8726937315987775,2.3223204434176314,0.11226551380483435
4.51345268217783,-0.7796620374038031,2.3234430985556798,0.10155865708544906
4.5056560618037915,-0.6874217724153879,2.324458685126534,0.0885160864813301
4.498781844079637,-0.5958717071932441,2.3253438459913474,0.07340399884442915
4.492823127007705,-0.5049166689180457,2.3260778859797915,0.05648336736879059
4.487773960318525,-0.4144670077735624,2.3266427196534796,0.03801048305360018
4.483629290240789,-0.32443797806422414,2.3270228244840157,0.018237528258149224
4.480384910460147,-0.23474905033411675,2.3272051997665972,-0.0025868334805549155
4.478037419956806,-0.14532316848424282,2.327179331431792,-0.024216862119005027
4.476584188271963,-0.05608596409041158,2.326937162810602,-0.046409146894670204
4.476023328631059,0.03303506125204182,2.3264730713416553,-0.06892201660874804
4.476353679243579,0.12211137573918786,2.3257838511755677,-0.09151495534389507
4.477574793000971,0.21121427019063513,2.3248687016221288,-0.11394802287420672
4.479686935702878,0.3004157151564649,2.323729221393387,-0.13598127806270133
4.482691092854442,0.3897892136633248,2.3223694086127598,-0.15737420327999457
4.486588984991076,0.4794106408013427,2.3207956665799596,-0.17788512831369505
4.491383091399089,0.5693590609067315,2.3190168152968225,-0.19727065338556338
4.4970766820081565,0.6597175123387401,2.3170441087629667,-0.21528507278454942
4.503673857131544,0.7505737487441665,2.314891258035121,-0.23167980330832724
4.511179594618985,0.842020924194393,2.312574460002038,-0.24620282525189405
4.519599803860929,0.9341582076028861,2.310112431749519,-0.2585981481749455
4.5289413859369585,1.027091309309347,2.3075264502677695,-0.2686053192222155
4.539212299030052,1.1209328995679566,2.304840397075547,-0.27595899847811206
4.550421628025732,1.215802894818565,2.302080807090766,-0.2803886338314603
4.562579656973917,1.3118285829759917,2.2992769207524515,-0.28161827722802124
4.575697942803678,1.4091445534880824,2.2964607379801714,-0.279366595099508
4.589789388338558,1.5078923915678861,2.293667072029176,-0.2733471382383409
4.604868312254237,1.6082200888372709,2.2909336006467926,-0.26326895042289605
4.62095051314261,1.710281114753494,2.2883009111425636,-0.2488376105536848
4.638053324290145,1.814233084875265,2.2858125350370266,-0.22975681962151395
4.656195655138898,1.9202359536777194,2.2835149668408117,-0.20573066092253212
4.675398014675675,2.028449651883314,2.2814576602315864,-0.17646667864247412
4.695682511194509,2.1390310820499936,2.2796929934451615,-0.14167993488200561
4.717072822015009,2.2521303826884886,2.2782761940963416,-0.10109821645650906
4.739594125841894,2.3678863720727468,2.2772652119317764,-0.05446856779240175
4.763272989562621,2.4864210901404324,2.2767205262538526,-0.0015653216616901416
4.788137200464025,2.6078333727611556,2.2767048730372355,0.05780021864471017
4.814215534191637,2.7321914196844,2.2772828752236824,0.1237683283532181
4.841537448388481,2.8595243581280636,2.2785205585072146,0.1964175832399484
4.870132691969761,2.989812860262431,2.280484734339614,0.27574978293177277
4.900030820572386,3.1229789458420765,2.2832422321689316,0.36167322088220943
4.931260610030807,3.2588751903518425,2.2868589643777537,0.4539845952403522
4.963849361934326,3.39727366129013,2.2913988103301572,0.5523500327786275
4.9978220985472275,3.5378550145972434,2.2969223106579437,0.6562858976991353
5.0332006486931995,3.6801982903253587,2.303485169634935,0.7651402651835519
5.070002631596453,3.823772038814643,2.3111365722867707,0.8780761365334251
5.108240351984599,3.967927471103905,2.319917333652105,0.9940576340441781
5.147919626695638,4.111894345175304,2.3298579099925467,1.1118405121566406
5.189038570147392,4.254780260914934,2.340976315114113,1.2299683313997312
5.231586372756541,4.395573935787788,2.3532759984281104,1.3467755448329197
5.275542112114419,4.53315287425873,2.3667437538764395,1.4603985376490378
5.320873640857006,4.666295642515201,2.38134773925293,1.5687953509195474
5.367536597282158,4.793698742413428,2.3970356927621252,1.6697744397060144
5.415473584706293,4.913997877893667,2.4137334371591854,1.761032407453499
5.464613563485229,5.02579325604616,2.4313437612337205,1.8402002711093741
5.514871496045691,5.1276784864701925,2.449745763944814,1.9048974850141567
5.566148280910393,5.218272640529989,2.468794738794956,1.9527927044843016
5.6183310073156925,5.296255085161482,2.488322665839799,1.981670087620946
5.671293558167307,5.360402766005086,2.5081393667160086,1.9894997657435967
5.7248975858273585,5.409629612904508,2.5280343643734446,1.974510879919197
5.778993881956404,5.44302760052677,2.5477794731726364,1.9352651950369169
5.833424157961671,5.459908653402588,2.5671321251230057,1.8707286961679357
5.888023244495697,5.45984600992481,2.585839412084685,1.7803377340945508
5.942621704594945,5.442712887193452,2.6036427894256304,1.664055299949139
5.99704883346688,5.4087154322881,2.6202833424251217,1.5224120702211024
6.051135987789761,5.35841620475077,2.635507463127333,1.3565262810226066
6.104720149837268,5.292744072103016,2.649072725937559,1.1680966365353678
6.157647590558298,5.21298668517964,2.6607536923029125,0.9593636713734406
6.209777457410095,5.120762824485338,2.670347329016647,0.7330374454923114
6.260985085654948,5.017973888823674,2.67767770347157,0.4921930302952796
6.311164824543185,4.90673640465976,2.682599633774523,0.2401394520404767
6.360232188589782,4.789300198381167,2.6850010282949275,-0.019728222213760527
6.408125190573593,4.667959180417343,2.68480374607279,-0.2840810847893427
6.454804782377767,4.544962963774131,2.6819629352248966,-0.5497993305179677
6.500254412015509,4.422437436832614,2.676464941919717,-0.8140936786376549
6.544478786383835,4.302320948004032,2.6683240051333406,-1.0745962894363235
6.587501995863875,4.186320310778117,2.657578042238977,-1.329416709118999
6.629365198971657,4.075887996747932,2.6442838751477873,-1.577163111394106
6.6701240789391365,3.972219267451964,2.628512244033846,-1.8169331088945506
6.709846271613656,3.876266060976863,2.6103429129449007,-2.048281064506882
6.748608932223425,3.78876340224325,2.589860102299832,-2.2711699575288455
6.786496566245857,3.710263909253378,2.5671484027245435,-2.485915643509199
6.8235992053383905,3.641176418970705,2.5422892462894513,-2.693130202932543
6.860010969528098,3.581805589274823,2.515357944260126,-2.8936694693374148
6.895829025420846,3.5323902989813276,2.4864212495667517,-3.088588157234809
6.931152928410659,3.4931395814080974,2.4555353679944036,-3.2791045375897547
6.966084324224741,3.4642655776536646,2.422744322618506,-3.4665754592000035
7.000726980001278,3.44601353317587,2.388078568026506,-3.652481701303209
7.035187115333036,3.438689169795037,2.351553751013474,-3.838423100142633
7.069574007030987,3.442683834867844,2.313169520012048,-4.026122498492439
7.104000845379665,3.458497624363108,2.2729082950271233,-4.217437149174327
7.1385858216232965,3.4867600975540918,2.23073392353538,-4.414375512382477
7.173453422598837,3.528247029248275,2.186590168411555,-4.6191160328019425
7.20873589289132,3.5838894497478564,2.1403990080835356,-4.834021809706329
7.244574787388799,3.654767199171321,2.0920587899864724,-5.061639931215092
7.281122459380512,3.7420719271609584,2.0414423906743213,-5.304664607204012
7.318543178652122,3.8470114171078547,1.9883957446022813,-5.565825630036205
7.3570132928232,3.9706043539358657,1.9327374883019193,-5.847632567075639
7.396719336362558,4.1132769527135595,1.874261162631163,-6.151853006406533
7.437852105889694,4.274116922844749,1.8127426325670977,-6.478525162732508
7.480593275118141,4.449578215045246,1.7479573809397726,-6.824217317976263
7.525089057268594,4.631430310376881,1.67971520776001,-7.179242782558348
7.571403360372362,4.804021926612861,1.6079227799344264,-7.523914809637582
7.6194435796384905,4.941917466868518,1.5326836318380506,-7.825288363690787
7.668862754307176,5.010956644843747,1.4544307482011427,-8.03859297306088
7.718972320755613,4.977174213049704,1.3740448184705338,-8.119477737372954
7.76874406288611,4.82353452628129,1.2928500410968042,-8.04695484370646
7.8169794081489234,4.562563340338048,1.2123804926597397,-7.8404937858093735
7.862605041552304,4.230332171025204,1.133975554801646,-7.551286168150442
7.904908363262556,3.8667098072124158,1.0584626931201415,-7.234838988591021
7.94357546133468,3.5005846238828537,0.9861143032342313,-6.930857764981502
7.978581307573508,3.1472584551799994,0.9168057255844163,-6.660068544249455
8.010053892125308,2.812314102557815,0.8502050401419218,-6.4298370021793945
8.038177033150886,2.4960107081846483,0.7859066701201278,-6.24034029257912
8.063137140232731,2.1962130796153527,0.7235032671943367,-6.088611625061212
8.085099271028884,1.9099639541079958,0.6626171509437245,-5.970671115645495
8.104198910569965,1.6342249950793335,0.6029104397872695,-5.882499866049529
8.120541160520759,1.3661857066768186,0.5440854411267743,-5.820419148656752
8.134203017587527,1.1033679410171826,0.48588124964020674,-5.7811909616255495
8.1452366969977,0.8436416121818424,0.42806934002395125,-5.761998575983251
8.153673113119517,0.5852067704855565,0.37044935426411874,-5.760381679428029
8.159525180824373,0.32656706911429234,0.31284553746983845,-5.77415941622194
8.162790851515515,0.06650522778738455,0.25510394330761904,-5.80135522715899
8.16345590379339,-0.1959356548817175,0.19709039103602913,-5.840128653647132
8.161496547244573,-0.46146420179635633,0.1386891044995578,-5.888715573696956
8.156881905226609,-0.730546960477281,0.07980194876258823,-5.945376981676351
8.149576435621835,-1.0034100690651437,0.02034817894582471,-6.008356121970807
8.139542334931184,-1.2800380838645826,-0.03973538227388336,-6.075843924947689
8.126741954092537,-1.5601718555379027,-0.10049382152336025,-6.145952969951729
8.111140235537158,-1.8433074398047338,-0.16195335122287755,-6.216700454915861
8.092707161139112,-2.128698036291725,-0.22412035577203615,-6.286000790673889
8.071420180776194,-2.415360835646897,-0.28698036367877505,-6.351668398133202
8.047266572419725,-2.7020903819831443,-0.3504970476601071,-6.411431030693133
8.020245668599893,-2.987479596709009,-0.4146113579670384,-6.462953464046466
7.990370872632803,-3.2699489581997745,-0.4792408926075031,-6.503870719885717
7.957671383050805,-3.5477835256781534,-0.5442795998063602,-6.531829193289299
7.9221935477940235,-3.819176616260634,-0.6095978917392532,-6.544533254817499
7.884001781631417,-4.08227811297608,-0.6750432242874281,-6.539794249003872
7.843179000501656,-4.335244742790363,-0.7404411667774669,-6.5155784680664155
7.7998265530737525,-4.576289353962071,-0.805596951458131,-6.4700507689557805
7.754063659534132,-4.803726334919035,-0.8702974591476889,-6.401611078810601
7.706026396184941,-5.016010871216542,-0.9343135699357948,-6.30892205565445
7.655866287472776,-5.211770661226373,-0.9974027904923394,-6.1909274902234905
7.603748580860512,-5.389829848852341,-1.0593120653945742,-6.04686241995
7.549850282371989,-5.5492260712133845,-1.1197806895940743,-5.8762571072479775
7.494358021659855,-5.689222437953881,-1.178543260666554,-5.678937759344029
7.437465797280317,-5.8093167691944245,-1.2353326382599943,-5.455026956034331
7.379372629588373,-5.909250406949384,-1.2898829078203375,-5.2049461354554225
7.320280125518879,-5.989018360764349,-1.3419323691748917,-4.92942122423556
7.260389941911236,-6.048881532282032,-1.3912265814172473,-4.629490769518238
7.199901126588416,-6.089380455146123,-1.4375214891124297,-4.306514023849758
7.139007322036955,-6.11134862574361,-1.4805866293509273,-3.9621747104523806
7.077893835779519,-6.115922366657453,-1.520208376455451,-3.5984750428961876
7.016734612112945,-6.104543536802494,-1.556193126884413,-3.217714337597253
6.95568917674492,-6.078951502225995,-1.5883702702603855,-2.822447466237456
6.8948996617226594,-6.041161713118697,-1.61659474492276,-2.4154204662732495
6.834488044591472,-5.993429927521368,-1.6407489495854926,-1.9994836096608344
6.7745537453162585,-5.93820332064877,-1.6607437856821008,-1.577485602009051
6.715171712109771,-5.878062004609126,-1.6765186417021913,-1.1521556451052024
6.6563910920636795,-5.815656379591601,-1.6880401981532434,-0.725982133667938
6.5982345282677635,-5.753646838518053,-1.6953000194899228,-0.30109725561910694
6.540698059882583,-5.694652440627487,-1.698310992046114,0.12082443512564994
6.4837515354763084,-5.641214300566811,-1.6971027476948575,0.5386480542268118
6.42733939247064,-5.595777887507277,-1.6917162671525894,0.951839138235373
6.371381613595567,-5.560696607065232,-1.6821978757702356,1.360504908466685
6.315774647524915,-5.538257358599416,-1.6685928266855687,1.7654210430281758
6.26039207393892,-5.530727503929287,-1.650938616255287,2.1680512003543306
6.205084798899628,-5.54042191132468,-1.6292581042517438,2.5705675747767485
6.149680579786381,-5.569788216186712,-1.6035524285039764,2.975880387963052
6.093982697624513,-5.621507515928846,-1.5737936246243458,3.3876819562210074
6.037767622465225,-5.6986050191313895,-1.5399168050621357,3.8105054680273804
5.980781572273911,-5.804557859360493,-1.501811750381862,4.249786430670809
5.922735993680306,-5.943369352218614,-1.459313886075154,4.711887932454076
5.863302300158121,-6.119537563368344,-1.4121950067506133,5.203991749383367
5.802106924524437,-6.337754144012405,-1.3601550892567795,5.733628304460074
5.738729383084313,-6.601973847421563,-1.3028188062121788,6.307345295403266
5.672709644610097,-6.913109958901666,-1.2397453532581462,6.927476878679893
5.60357854502108,-7.2639839723466215,-1.1704705844713472,7.585098950052214
5.530938705297614,-7.6296997051582425,-1.094619594970825,8.246614706020102
5.454641708246031,-7.9537045445781525,-1.012153447910624,8.834344715636366
5.37510466280025,-8.140787859239149,-0.9238100007542603,9.216887567289126
5.293696784207858,-8.088258418370664,-0.8316411250813691,9.252983014373859
5.212814200024152,-7.76775545240329,-0.7391112949376305,8.906054910492237
5.135136645500119,-7.267582882673694,-0.6500507458327082,8.302850779270207
5.062460816673382,-6.7158838403275265,-0.5670222380400061,7.625179646097996
4.995301978270107,-6.194902727491836,-0.4907704415790261,6.989957915459026
4.933352950995189,-5.733653223838603,-0.42087086242443583,6.439310916794927
4.8760164187568025,-5.333408364960434,-0.35647775325648656,5.976409765858026
4.822682335107198,-4.986006715488604,-0.2967136555979063,5.591122261368123
4.7728222679523125,-4.681709377369368,-0.24080243298422507,5.271021250954055
4.726005174178619,-4.411758622195644,-0.18809222047468452,5.004983661478692
4.681887587956663,-4.1689180885637835,-0.1380423838598976,4.783966666316065
4.640198407071025,-3.9473672094446854,-0.09020271719673695,4.6008772414523795
4.600724734976578,-3.7424425378138797,-0.044193944782213154,4.450222388783083
4.563300309598439,-3.5503839270913726,0.0003082791056176759,4.327760316862943
4.527796470327526,-3.368126469954889,0.043585882274247104,4.230209472094694
4.494115205627977,-3.193141298611655,0.08588797699519404,4.155019337323398
4.46218379264186,-3.023318089975251,0.12743817036842803,4.100192298278183
4.431950611742107,-2.8568808906217433,0.16844009335120985,4.064143863633352
4.40338180283589,-2.6923302205357214,0.20908153198754337,4.045590151857153
4.376458500630532,-2.528406163768797,0.2495374335061149,4.043453858832929
4.351174438992844,-2.36406863882216,0.2899719720944442,4.056782037361429
4.327533752604623,-2.1984920906076675,0.3305397924680585,4.084670822278088
4.305548831698546,-2.031072431692661,0.37138650069083934,4.126193827273801
4.28523810738162,-1.8614441805247752,0.41264843896357734,4.1803324871820715
4.266623665576372,-1.689505392111485,0.45445176383539804,4.245908282184333
4.249728611655257,-1.5154471540913452,0.4969108466572414,4.321518670768384
4.2345741401143435,-1.339783175160529,0.5401260333649253,4.405480695548351
4.221176308362738,-1.1633734699991807,0.5841808403204087,4.495788475266034
4.209542573662746,-0.9874346525791123,0.6291387250730691,4.590092803177351
4.1996682271369545,-0.813528397529169,0.6750396531048426,4.685712225563336
4.191532943161663,-0.6435199051254877,0.7218967753604759,4.779684452942242
4.185097744110408,-0.4795004331952823,0.7696936198898984,4.86886392477781
4.180302739778455,-0.32367260517605134,0.8183822591376765,4.950065332300885
4.177066013726694,-0.17820408105067106,0.8678829124606853,5.020244278935932
4.175283972916188,-0.045063120303380805,0.9180853552500446,5.076696620770906
4.174833341713154,0.07414356090596813,0.9688523214577537,5.117250120564806
4.175574777322214,0.1783069667084723,1.0200248226634017,5.140418974227819
4.177357846989299,0.2669045733463468,1.0714290124056798,5.145495654692664
4.180026892722762,0.34002804261836106,1.1228839689526064,5.132565226792633
4.183427173148946,0.3983477865893843,1.1742096212205329,5.102442044381455
4.18741065101484,0.4430239948950763,1.2252340416643475,5.056543117865757
4.191840890963791,0.4755822430142212,1.275799472843005,4.996722253606106
4.196596713393933,0.49777509493215866,1.325766695379066,4.9250921164627
4.201574464343254,0.5114492388974704,1.3750176165436931,4.843858047866454
4.206688956732229,0.5184323083705568,1.4234561970223576,4.755180100102579
4.211873279815935,0.5204469015507821,1.4710079980233834,4.661071224309739
4.217077748831443,0.5190533285536034,1.5176187102664809,4.563332189011863
4.222268282116979,0.5156183505568278,1.5632520321565995,4.463518796908534
4.227424465622548,0.5113048586306395,1.6078872201256849,4.362934453156917
4.232537514208854,0.50707674906358,1.651516564657254,4.262640615156583
4.237608281699489,0.5037136440385365,1.6941429708088198,4.163478395250199
4.242645418139874,0.5018310566094857,1.7357777547613218,4.066095930340626
4.2476637287059695,0.5019027147842664,1.776438714064728,3.970977601705535
4.2526827558538125,0.5042828026042079,1.8161484900817833,3.878472510116704
4.2577255838798544,0.509226733908559,1.8549332151829503,3.7888206679207013
4.26281785121894,0.5169097183443649,1.8928214218621573,3.702176142776369
4.267986948402384,0.5274428266748483,1.929843183289921,3.618626910809727
4.273261376669132,0.5408865505314369,1.9660294523980182,3.53821150288286
4.278670242174447,0.5572620208863046,2.001411567426847,3.4609327101105807
4.2842428623833095,0.5765601356546455,2.0360208945279528,3.386768699525697
4.290008463739856,0.5987488785714309,2.0698885815232098,3.3156819133230884
4.29599595252557,0.6237791099277958,2.1030454006564407,3.2476261109269626
4.302233743624848,0.6515890895750835,2.1355216617657105,3.1825518795744157
4.308749634520599,0.6821079634945906,2.1673471805614546,3.1204108973607663
