th1 (rad),w1 (rad/s),th2 (rad),w2 (rad/s)
4.625189823307047,2.625012669508174,2.6010126265275346,-1.8268715406446117
4.651439950002129,2.7191943274577617,2.5827439111210886,-1.774108010811084
4.678631893276707,2.817501766077607,2.5650028310129778,-1.7141559184068502
4.706806910937483,2.920344117149003,2.5478612718289093,-1.6464860553724514
4.736010352108973,3.0281289521659502,2.531396411275185,-1.570557766832299
4.766291641630633,3.141251359761514,2.515690833606862,-1.4858347676777415
4.7977041552282484,3.260079247008005,2.5008324859300846,-1.3918070614851794
4.830304947698329,3.3849341337460213,2.486914415315233,-1.2880202463422088
4.864154289035789,3.5160667646569603,2.474034212851811,-1.1741134579462011
4.899314956682359,3.653627041871172,2.462293078272349,-1.049866978196932
4.93585122710107,3.7976281333029536,2.4517944084903798,-0.9152600381961278
4.973827508434099,3.9479051899100153,2.4426418081084185,-0.7705384737169778
5.013306560333199,4.104069944322241,2.4349364233712487,-0.6162905717254286
5.054347259776422,4.265463560616522,2.4287735176539944,-0.45352765506081344
5.097001895382586,4.431111389777284,2.4242382411033865,-0.28376376753001975
5.141313009280359,4.599684593158421,2.4214006034280864,-0.10908647333400714
5.187309855211943,4.769474659810857,2.4203097386947463,0.06779131753823847
5.235004601810052,4.938387319902522,2.4209876518701288,0.24350987686753714
5.284388475009076,5.103961904637338,2.423422750638804,0.41408277788723535
5.33542809405545,5.263420607728996,2.427563578417676,0.5749677908294191
5.38806230013274,5.413749407848675,2.4333132563259703,0.7211936388087903
5.442199794211226,5.551808991972848,2.440525192714058,0.8475419492498704
5.497717884130955,5.674470531295568,2.449000612206557,0.9487772424401626
5.554462589443911,5.778768330227454,2.4584883846309586,1.0199117319753672
5.612250272746185,5.862059694990257,2.468687501950712,1.0564870905035793
5.6708708696960874,5.922181886874203,2.479252372855748,1.0548526326751766
5.730092688564829,5.9575962838611956,2.4898008991825,1.0124183897736114
5.789668651403441,5.967510189887783,2.4999250830802358,0.9278616985531609
5.849343753302319,5.951966636788417,2.5092037000657674,0.8012667606434342
5.908863419670204,5.911892182188515,2.517216367672202,0.6341784100414423
5.967982341492089,5.849093030577013,2.523558151772616,0.42955515909994824
6.026473271797859,5.766192132461404,2.5278537033636157,0.19161393065725513
6.084135193122473,5.666505286329546,2.5297698426701882,-0.07442950760866313
6.140800245985769,5.553862599399172,2.5290255475941015,-0.3627055121757115
6.196338871979761,5.432391316484377,2.5253984924723443,-0.6670870707110412
6.250662785144605,5.306284149109247,2.5187276217652337,-0.9815934661265927
6.303725626635697,5.179580904445031,2.508911687103968,-1.3007546828541434
6.3555214356801475,5.055988833093543,2.4959041402754263,-1.6198980545803316
6.406081324011083,4.938759273367456,2.479705159729623,-1.935334477311335
6.455468916744758,4.830627385261434,2.4603518149565096,-2.2444405217895005
6.503775190597373,4.733811301682364,2.4379074097386146,-2.5456496660724013
6.551113303614196,4.650059497512845,2.412450913077891,-2.8383768751374037
6.597613898589325,4.580731733504303,2.384067144326517,-3.1229047293731234
6.643421215924367,4.5268992393282055,2.3528380970327856,-3.400257412278651
6.68869020831765,4.489452628801517,2.318835522909999,-3.672083477717665
6.733584734605665,4.469209965079151,2.2821146881328223,-3.940561834838617
6.778276834256456,4.467021272895067,2.242709069784436,-4.208339529409116
6.822947046985407,4.48386892609512,2.200625674490345,-4.478505468834448
6.867785736246358,4.520965355373677,2.1558406198020004,-4.754601222245622
6.912995389800095,4.579850132158656,2.1082946075795443,-5.040667730125038
6.958793891121681,4.662487082896436,2.057887930278294,-5.3413237205462245
7.005418761950645,4.771357118654034,2.0044746930728317,-5.661865063893427
7.053132333137186,4.909530221321573,1.9478560424338973,-6.008358571698534
7.102227635350402,5.080672164445536,1.887772456716912,-6.387666955908811
7.153034356994857,5.2888800004015835,1.823895787157824,-6.807258511085138
7.205923156998873,5.538108027650783,1.7558232020469726,-7.274473700903667
7.261304237275381,5.830675277999062,1.683078465037936,-7.794546297939161
7.319610990055371,6.163852853379575,1.6051330020585444,-8.365989937071674
7.381249518589167,6.522898286606129,1.5214731026878276,-8.971072272521289
7.446478501455228,6.86921745937018,1.4317623799626147,-9.559508168148623
7.51517067604893,7.12773751577156,1.3361672982811283,-10.030985855715684
7.586448051206646,7.194146018745638,1.2358574397239714,-10.245182714111893
7.658389511394102,6.992897416591174,1.1334056125828524,-10.102085601460729
7.728318485560013,6.5539451512583655,1.0323847565682451,-9.64758506032554
7.793857937072597,5.995268051107887,0.9359089059649898,-9.047658521390417
7.853810617583676,5.425277663547333,0.8454323207510857,-8.452756753673164
7.908063394219149,4.896691443515986,0.760904753214354,-7.9352798133130715
7.957030308654309,4.422072075706646,0.6815519550812233,-7.512297984991108
8.001251029411375,3.996896328248752,0.6064289752313122,-7.177835808815132
8.041219992693861,3.6118604027756818,0.5346506171431609,-6.919838108678787
8.077338596721619,3.2575398460811487,0.465452236056373,-6.726477489580735
8.109913995182431,2.9257323022767467,0.39818746116056564,-6.587894789669713
8.139171318205198,2.609624684467353,0.3323085132638685,-6.496343268120771
8.165267565049872,2.3036163089625608,0.2673450805826608,-6.445874180692575
8.188303728139497,2.003086038723934,0.2028863387757351,-6.431949061364453
8.208334588526736,1.7041919677241926,0.13856684816209056,-6.451090690102142
8.225376508203977,1.4037239655883273,0.07405594126106912,-6.500592488705705
8.23941374785986,1.0990082699717239,0.009050016374012065,-6.578278243411121
8.250403830559577,0.7878582232042852,-0.05673276606009914,-6.6822981692135865
8.258282412791619,0.46856501917451887,-0.123555747752235,-6.810948544646935
8.262968062983365,0.13992293803042172,-0.19166523319870438,-6.962505526972473
8.26436729236367,-0.19871648012207938,-0.2612902884684291,-7.135067901133751
8.262380127562448,-0.5473681148161659,-0.3326409674797666,-7.326408202904913
8.256906446414286,-0.905324248066347,-0.4059050495088158,-7.533836942770603
8.247853203933623,-1.2710662570407254,-0.4812434189365218,-7.7540904273339155
8.235142541363215,-1.642195123321345,-0.5587843232098609,-7.983258341541553
8.218720590130001,-2.015403128447214,-0.6386169066252765,-8.216771538516273
8.19856655884553,-2.3865110401648097,-0.7207846220104392,-8.449471382055677
8.174701448443882,-2.7505923260669207,-0.805279335830996,-8.675777130953922
8.147195525183212,-3.102196345085655,-0.8920371071405352,-8.889955434572666
8.116173561732356,-3.4356654714512476,-0.9809366614862618,-9.086476204353556
8.081816907017844,-3.745519001735721,-1.0718014235297972,-9.26041546542581
8.044361717000486,-4.02685522055019,-1.1644055781840554,-9.407845367534222
8.004093164794984,-4.275710032499405,-1.2584840318593977,-9.526143034979214
7.9613360644699895,-4.489312818956252,-1.3537454622091898,-9.614159618670307
7.916442936280427,-4.666199302112646,-1.449887058395893,-9.672218468403274
7.869780943259301,-4.8061718944527945,-1.5466092430799256,-9.701948631095126
7.821719224314774,-4.910129939550423,-1.643628729390877,-9.705994190104013
7.7726179249192695,-4.9798149722248555,-1.740688671291917,-9.687660180197486
7.722819775197021,-5.017523945330252,-1.8375652730938918,-9.650557548618314
7.672644535743718,-5.025837089286184,-1.934070848580075,-9.598296146982861
7.622386164850856,-5.007392155318574,-2.0300538100499037,-9.534253827219702
7.57231224329767,-4.964719845547956,-2.125396348322101,-9.46142926262198
7.52266504484219,-4.900141140131865,-2.2200106409483205,-9.382371089890817
7.4736636334408715,-4.815718138187395,-2.3138343518472286,-9.299167803868928
7.425506452058998,-4.713245823669475,-2.406826029885918,-9.213480481516799
7.378373993822303,-4.59427156613709,-2.498960834701086,-9.126601806988186
7.332431278160932,-4.460130658365327,-2.5902268527709675,-9.039528043744763
7.2878299715772785,-4.3119885631155705,-2.680622133208415,-8.953034163716719
7.244710085946123,-4.150883021373967,-2.7701524748455824,-8.867745542700042
7.203201255732383,-3.9777613807801204,-2.8588299302725826,-8.78420218568008
7.163423641924582,-3.793510307298403,-2.9466719521293836,-8.702913352596175
7.125488538851598,-3.5989764502563806,-3.0337010856553452,-8.62440183108328
7.089498774349034,-3.3949776950261157,-3.119945103966178,-8.549238087828114
7.055548997398772,-3.1823054168795983,-3.205437484844459,-8.478065240737182
7.023725943229977,-2.9617186877132307,-3.290218137251831,-8.411616309653082
6.994108756352844,-2.733931712691075,-3.374334300348362,-8.350725571221751
6.966769439225933,-2.4995959053865455,-3.4578415560605795,-8.296336090872048
6.941773480172068,-2.2592779649795256,-3.5408049169693,-8.249505651325034
6.919180700522273,-2.0134351185256585,-3.6232999734825504,-8.211413364271928
6.899046349337016,-1.7623883621439396,-3.7054141071252698,-8.183369268726581
6.881422465715577,-1.5062941090453985,-3.7872477998125356,-8.166829222738796
6.866359524625123,-1.2451141643926347,-3.8689160920399237,-8.16341742561294
6.853908382981197,-0.9785834339247586,-3.950550266296053,-8.174959003302268
6.844122548641949,-0.7061742786708843,-4.032299856329075,-8.203525271675584
6.8370608058552405,-0.427056018207214,-4.1143351090458316,-8.251494541050125
6.832790245673168,-0.14004788839322202,-4.196850054456333,-8.321631527985492
6.831389766789236,0.15643594424992852,-4.280066369736188,-8.417188278181502
6.832954126231735,0.46444929687471903,-4.364238252518003,-8.542028201369547
6.837598619200483,0.7865808799653022,-4.449658534531698,-8.700770579216703
6.8454644280001355,1.1260117611759375,-4.536666240323865,-8.898941656527212
6.856724545611895,1.4865280465859183,-4.625655656889137,-9.143091023303343
6.871589826077754,1.8724043225592322,-4.717086567122171,-9.440768196136931
6.8903138693033466,2.28796555017379,-4.81149424908354,-9.800110532488182
6.913193524805084,2.7364061925633765,-4.909495354408422,-10.22848239230905
6.940557586730718,3.2169946422329327,-5.011780178331513,-10.728982198907921
6.972727533153048,3.7190637763984276,-5.119070000320592,-11.292607464496704
7.009918170917032,4.210715897989802,-5.23199607496556,-11.883137022487508
7.052025329896931,4.6229570135807485,-5.3508274451904345,-12.415457030582395
7.098254900032738,4.843731565329052,-5.474982015496258,-12.746774353839154
7.146692215686029,4.759181733366846,-5.60244975903465,-12.731474197691222
7.194284033019697,4.349298197040664,-5.729764501011562,-12.348928260486286
7.237777014990104,3.7234579447282377,-5.853253783616426,-11.74797853127508
7.2750115944373865,3.023134545221442,-5.970733568929177,-11.11325182503981
7.305242939889601,2.3339304127781615,-6.081866087179574,-10.549775933971548
7.328582244017382,1.6856297055481522,-6.18736384651929,-10.087583222945165
7.3454385410728635,1.0806431678038364,-6.288239678748742,-9.721735102667026
7.356244972750902,0.5123982545701977,-6.385457029775412,-9.436841828466665
7.361368955296604,-0.027035828287175545,-6.479825448060079,-9.216603665844392
7.361098597013733,-0.5444466610443319,-6.571991484718523,-9.046536550850641
7.355654130403289,-1.0448891798081434,-6.662456850227029,-8.914301339024538
7.345205238605208,-1.531714544839172,-6.751599863617274,-8.809354154944911
7.329888093156816,-2.006761909886845,-6.839693405166724,-8.722498914273604
7.309820474057948,-2.470570763927908,-6.926918394309459,-8.645514666714188
7.285114766418669,-2.9225804277200327,-7.013373540976601,-8.570894749625868
7.255888962141468,-3.3613179264106656,-7.09908248847286,-8.491693188754128
7.222275782877362,-3.7845835262171166,-7.183999420360401,-8.401462564459852
7.1844299476151905,-4.189641797402916,-7.268014046004999,-8.294264953756146
7.142533529641161,-4.5734213947246944,-7.3509566955425605,-8.164736749831519
7.096799315693914,-4.932721401913324,-7.432604063040876,-8.008187615746111
7.047472101674781,-5.264417438763056,-7.512685939198337,-7.820713797161287
6.994827927287151,-5.565657675123334,-7.59089307716995,-7.59930714432498
6.939171350535918,-5.834037942265207,-7.6668861486132,-7.3419438718419805
6.880830971113266,-6.067746303292951,-7.74030558733162,-7.047641182355689
6.820153508080336,-6.265670254809087,-7.810781999155177,-6.716474736294504
6.757496805532245,-6.427463324432348,-7.877946746518122,-6.3495546202891004
6.693222172287921,-6.553571260507065,-7.941442292721013,-5.948961102823028
6.627686459682851,-6.645220577233785,-8.000931903749244,-5.517643656475468
6.561234253910513,-6.704373673191001,-8.056108340314,-5.059287647604133
6.494190517178603,-6.733655312630537,-8.106701216790041,-4.578153391263169
6.426853964052297,-6.736255471575304,-8.152482750702672,-4.0788927256315555
6.3594914093365436,-6.715813935112347,-8.193271677958988,-3.5663494095554373
6.29233326998542,-6.676292859447079,-8.228935172054543,-3.0453514987238313
6.22557034139095,-6.62184466872087,-8.259388687041781,-2.520505865565787
6.1593518947037404,-6.55668370683554,-8.284593745697439,-1.9960063225073215
6.093785057635385,-6.484970463643341,-8.304553808922511,-1.4754665715872297
6.028935352998952,-6.41071654569799,-8.319308474638383,-0.9617870434815742
5.964828187541972,-6.337716796072581,-8.3289263450732,-0.4570608238597128
5.901451019581246,-6.269512372863427,-8.333496953311796,0.03748094502920679
5.838755895852612,-6.2093856861811325,-8.333122143861504,0.5214885205706585
5.7766620389908,-6.160385392799169,-8.327907258655797,0.995485852553005
5.715058185062809,-6.125377471801436,-8.317952400130267,1.4608455362612554
5.653804410344795,-6.107116692872709,-8.303343944767654,1.9197558244397155
5.592733243416068,-6.108330967928812,-8.284146386523258,2.3751859227251995
5.531649933736779,-6.131807854392752,-8.260394527296006,2.830848828522355
5.4703318551928515,-6.180465379831401,-8.232086039010783,3.2911476562086337
5.408527201394538,-6.257373709226045,-8.199174562448697,3.7610659834874243
5.345953464302277,-6.365661134903468,-8.161563902613823,4.245913465713685
5.282296852953243,-6.508171289084183,-8.119104767956687,4.750742564528482
5.217215140062401,-6.686612393895978,-8.071597342311401,5.279074595086123
5.1503490161234415,-6.899727408727972,-8.01880659636054,5.8302767242089795
5.081351742036162,-7.13975640098042,-7.96050382911845,6.394573049561525
5.009954178026358,-7.38652328802289,-7.896558098622834,6.944764032585216
4.936088945146129,-7.600161460186246,-7.827110458296982,7.426099354781362
4.860087330544267,-7.719191007500004,-7.752849464749168,7.753755713038798
4.782895420469266,-7.678499324965628,-7.675311907618781,7.838344265466438
4.70611042721961,-7.451901583566436,-7.596928464964116,7.645862588810425
4.631591411383945,-7.0808284632041785,-7.520469839076012,7.237814977128652
4.560783126751903,-6.645187820904915,-7.448091689304725,6.729796989021407
4.494331248542854,-6.2113969660681185,-7.380793719414511,6.218100905906051
4.432217278882172,-5.813122146289491,-7.31861271035545,5.75252507799785
4.3740860574192775,-5.460096128184406,-7.261087459575472,5.348781371019757
4.319485096137433,-5.150622524484793,-7.207599645865274,5.006141355633871
4.267978870892586,-4.879060738444879,-7.157538232308935,4.718043846866056
4.219188263508137,-4.639138817558706,-7.110357793840275,4.476831378564311
4.17279687533255,-4.425145310249998,-7.065589480054632,4.275489790528914
4.128545422230051,-4.232230819211809,-7.0228345821493425,4.108120539343332
4.086223114037932,-4.0563822090370065,-6.9817533767559095,3.9699397741860687
4.045659291947563,-3.894298781983653,-6.942053979014049,3.857129483483648
4.0067163041277265,-3.7432562816890647,-6.903482684179212,3.7666637011186586
3.9692837413108357,-3.6009870497835537,-6.865816047168026,3.6961510672542235
3.933273870813,-3.465582854797921,-6.828854536495483,3.643703648789342
3.898618042265021,-3.3354193860282253,-6.79241750000759,3.60783071304812
3.865263848404739,-3.2090993921588797,-6.7563391928771095,3.5873527647955887
3.8331728544831503,-3.0854114424482697,-6.7204656652291535,3.5813306423321163
3.8023187400586678,-2.9633019261327327,-6.684652358805832,3.5890048753778943
3.7726857207973405,-2.841858663228977,-6.648762310052053,3.6097411071148686
3.744267134165051,-2.7203051859208958,-6.6126648989809045,3.642977941950035
3.717064082305842,-2.5980052872290633,-6.576235119561404,3.6881740735821844
3.691084029433551,-2.4744777687281463,-6.539353378825582,3.7447520469765228
3.66633925174627,-2.3494213797430503,-6.5019058583558165,3.8120366461088033
3.6428450379488395,-2.2227496185742126,-6.463785491894728,3.8891868604070208
3.6206175417630972,-2.0946342162693297,-6.424893623290658,3.975121890199401
3.599671199600404,-1.9655545842954372,-6.385142404388664,4.068443936513123
3.5800156537574495,-1.83634816301743,-6.344457965023532,4.167363744391529
3.561652172127275,-1.7082535019886276,-6.302784327579617,4.269638975267774
3.5445696371073887,-1.5829344137935017,-6.260087937826939,4.372539978293488
3.5287402929694536,-1.4624705792699508,-6.216362538044004,4.472861234985668
3.514115587176754,-1.3492990863765706,-6.171633925694148,4.566997686007768
3.5006225963129887,-1.2460945390679792,-6.1259639488340705,4.651100804476712
3.488161650922309,-1.1555842738003068,-6.079452940789303,4.721317569364971
3.476605808184306,-1.0803100094484213,-6.032239765095653,4.774096390019516
3.4658027080898215,-1.0223651730382712,-5.984498801195458,4.806521256384756
3.4555790563594386,-0.9831522128300467,-5.93643358863161,4.81661671156707
3.4457475342311383,-0.9632090562899077,-5.888267421515939,4.803561036582874
3.436115443668239,-0.9621435848186964,-5.840231811150111,4.7677592653785945
3.426494007820052,-0.97869092918603,-5.792554218496325,4.710759123874183
3.416707098528192,-1.0108787575473492,-5.745446627257583,4.6350308518117815
3.4065983109527185,-1.0562617554380036,-5.699096318739465,4.543661773541823
3.3960356933983387,-1.1121763955770845,-5.653659701004047,4.44002830664692
3.384913929442568,-1.1759721480612102,-5.609259417937578,4.327500696414291
3.3731542079619556,-1.2451904531835625,-5.565984410973435,4.209215912309688
3.36070230343012,-1.3176805922905628,-5.523892251850338,4.087931432140635
3.347525497507214,-1.3916560785923786,-5.483012937528931,3.965954506831536
3.33360893672129,-1.465703703439944,-5.443353392460616,3.845131077466143
3.318951899686891,-1.5387601915586044,-5.404902081685955,3.726875277209082
3.303564297771305,-1.6100703250130746,-5.367633328913864,3.6122220498591995
3.2874635945211743,-1.6791373821110862,-5.331511108415272,3.501889326088131
3.2706722207000634,-1.7456733027359892,-5.296492215154391,3.3963405545278063
3.2532154876727035,-1.8095529810330933,-5.262528809609113,3.2958421590143994
3.2351199578623726,-1.8707748219878402,-5.229570388018969,3.200513309576687
3.216412209642494,-1.929428185793602,-5.197565254923202,3.1103672643916833
3.197117927784558,-1.9856674449517402,-5.166461582279285,3.0253446450623067
3.1772612533350406,-2.0396919206920487,-5.136208135828662,2.945339568046607
3.15686433412812,-2.091730793005693,-5.106754740148196,2.8702197641859692
3.135947026198063,-2.14203207462667,-5.078052542506336,2.7998418218938017
3.114526705451796,-2.1908548228646754,-5.050054124287398,2.73406258709925
3.0926181572231495,-2.2384638832756862,-5.022713498416406,2.672747606851354
3.070233518390393,-2.2851265861368333,-4.995986022347893,2.615777349545017
3.0473822525290246,-2.331110935060929,-4.969828248852442,2.5630517916655875
3.0240711431784155,-2.376684930002608,-4.9441977309357865,2.5144938367631493
3.0003042938783895,-2.422116752469524,-4.919052792568155,2.4700519289597906
2.976083126353694,-2.4676756095954255,-4.894352273278557,2.42970213932524
2.95140637025774,-2.51363308756871,-4.870055251885304,2.3934499360398678
2.926270039382053,-2.560264905664728,-4.8461207525249055,2.3613317948629877
