th1 (rad),w1 (rad/s),th2 (rad),w2 (rad/s),a1 (rad/s^2),a2 (rad/s^2)
0.33221507298130104,2.5081270148492365,2.690526408869823,0.07537402219054663,-8.385708011109196,-14.652969809326676
0.3572963431297934,2.4242699347381444,2.6912801490917286,-0.07115567590272014,-8.36637139047041,-14.295488100809655
0.38153904247717485,2.34060622083344,2.6905685923327014,-0.2141105569108167,-8.316201520231001,-13.920525954658844
0.40494510468550926,2.2574442056311304,2.6884274867635933,-0.3533158164574052,-8.23802368667504,-13.5328719135735
0.4275195467418206,2.17506396876438,2.6848943285990194,-0.48864453559314014,-8.13468326791936,-13.137179147840591
0.44927018642946437,2.0937171360851865,2.6800078832430883,-0.6200163270715461,-8.008978798098386,-12.737879413089653
0.47020735779031625,2.013627348104203,2.673807719972373,-0.7473951212024426,-7.863604377063866,-12.339114816015234
0.49034363127135827,1.9349913043335643,2.6663337687603486,-0.870786269362595,-7.701102473093107,-11.94468786082116
0.5096935443146939,1.8579802796026332,2.6576259060667224,-0.9902331479708065,-7.523827421598138,-11.558029168092071
0.5282733471107203,1.7827420053866518,2.6477235745870145,-1.1058134396517272,-7.333919301355121,-11.182181425363424
0.5461007671645868,1.7094028123731007,2.636665440190497,-1.2176352539053614,-7.133287394633817,-10.819797559333448
0.5631947952883177,1.6380699384267625,2.6244890876514435,-1.3258332294986959,-6.92360211292237,-10.473150799773597
0.5795754946725854,1.5688339172975387,2.6112307553564564,-1.4305647374964319,-6.706294085085534,-10.144154201512015
0.5952638338455608,1.5017709764466833,2.596925107981492,-1.532006279511552,-6.482559039446705,-9.834387259257579
0.6102815436100276,1.4369453860522163,2.5816050451863766,-1.630350152104128,-6.25336714021114,-9.545127442990966
0.6246509974705498,1.374411714650105,2.5653015436653352,-1.7258014265340376,-6.01947553564352,-9.277384753973209
0.6383951146170508,1.3142169592936697,2.548043529399995,-1.8185752740737697,-5.781443016149427,-9.031937713898808
0.6515372842099875,1.2564025291321754,2.529857776659257,-1.9088946512127578,-5.539645844197878,-8.809369520980269
0.6641013095013092,1.2010060706901966,2.5107688301471294,-1.9969883464225604,-5.294293988629398,-8.610103413663616
0.6761113702082111,1.1480631308039027,2.490798946682904,-2.0830893805591963,-5.045447161660812,-8.434436559735982
0.6875920015162501,1.0976086591872944,2.469968052877312,-2.167433746156556,-4.79303021038386,-8.282572026697904
0.6985680881081231,1.0496783570834558,2.4482937154157463,-2.250259466423535,-4.536847551947069,-8.154648584254968
0.7090648716789577,1.004309881563985,2.425791120751511,-2.331805952266085,-4.276596462056219,-8.050768240851045
0.7191079704945975,0.9615439169434229,2.40247306122885,-2.4123136346745953,-4.011879131425031,-7.97102152450604
0.7287234096640317,0.9214251256291726,2.3783499248821043,-2.4920238499196556,-3.742213497722573,-7.915510585731589
0.7379376609203234,0.8840029906519469,2.3534296863829076,-2.5711789557769715,-3.4670429463472523,-7.884370228472902
0.7467776908268429,0.8493325611884743,2.327717896825138,-2.6500226580617006,-3.1857450584740112,-7.87778696394109
0.7552710164387276,0.8174751106037342,2.301217670244521,-2.7288005277011114,-2.897639677433955,-7.8960161295140034
0.763445767544765,0.7884987138293946,2.27392966496751,-2.807760688996251,-2.6019966749335905,-7.9393970147103055
0.771330754683059,0.7624787470800587,2.2458520580775474,-2.8871546591433543,-2.298043940245492,-8.008365777774099
0.7789555421538596,0.7394983076776038,2.216980511486114,-2.967238316921095,-1.9849763059170356,-8.103465702073622
0.7863505252306356,0.7196485446184335,2.1873081283169027,-3.0482729739418315,-1.6619663864728318,-8.225354004435413
0.79354701067682,0.7030288807537052,2.1568253985774843,-3.1305265139861858,-1.3281786744549868,-8.374803927957036
0.8005772994843571,0.6897470940091553,2.1255201334376226,-3.214274553265756,-0.9827887556516668,-8.552700172202544
0.8074747704244486,0.6799192064526387,2.093377387904965,-3.2998015549877815,-0.6250102342933519,-8.760024751823392
0.814273962488975,0.6736691041097052,2.060379372355087,-3.3874018025060155,-0.25413298450444527,-8.997829014767566
0.8210106535300721,0.6711277742646607,2.026505354330027,-3.477380092653691,0.13042221729454007,-9.267185632412586
0.8277219312727186,0.6724319964376061,1.99173155340349,-3.570051948977817,0.5290256167888374,-9.569111676659256
0.8344462512370947,0.6777222526054945,1.956031033913712,-3.6657430657444094,0.9417271200534044,-9.904450131950897
0.8412234737631497,0.6871395238060285,1.9193736032562678,-3.7647875670639186,1.368097995316273,-10.273691983574984
0.8480948690012099,0.7008205037591912,1.8817257275856287,-3.8675244868996685,1.8070068652150248,-10.676713943579575
0.8551030740388018,0.7188905724113415,1.843050482716632,-3.9742916263354644,2.2563045115403666,-11.112397490775082
0.8622919797629153,0.7414536175267451,1.8033075664532774,-4.0854156012432155,2.712383623503808,-11.578082964474516
0.8697065159381827,0.7685774537617832,1.7624534104408451,-4.20119643088796,3.169569922558117,-12.068798317647376
0.8773922904758006,0.8002731529873643,1.7204414461319655,-4.321884414064434,3.6192916044292924,-12.576187630571614
0.8853950220056742,0.8364660690316572,1.6772226019913212,-4.44764629037015,4.048968638894743,-13.08705458747828
0.8937596826959908,0.8769557554206047,1.6327461390876197,-4.578516836244932,4.44057060489399,-13.581441942625755
0.9025292402501969,0.9213614614695446,1.5869609707251704,-4.71433125567119,4.768827870571902,-14.030211588007486
0.9117428548648924,0.9690497401752636,1.5398176581684584,-4.854633371551264,4.999175024745477,-14.392210476527667
0.921433352266645,1.0190414904227183,1.4912713244529456,-4.9985554763165405,5.085702322007718,-14.611366820772894
0.9316237671708723,1.0698985136427954,1.4412857696897803,-5.144669144524269,4.96974585763101,-14.61453578069537
0.9423227523073002,1.1195959722191056,1.3898390782445376,-5.290814502331223,4.580294816665273,-14.311655076136942
0.9535187120294912,1.1653989203857582,1.3369309332212254,-5.433931053092593,3.8380616345340206,-13.60068525146588
0.9651727012333489,1.2037795367310984,1.2825916226902994,-5.569937905607252,2.6655046507882574,-12.380434920488112
0.9772104966006598,1.230434583238981,1.2268922436342269,-5.693742254812133,1.004522979567405,-10.57363508507207
0.9895148424330497,1.240479813034655,1.1699548210861055,-5.799478605662853,-1.1591643571445127,-8.15899299963956
1.001919640563396,1.22888816946321,1.111960035029477,-5.8810685356592485,-3.7712909281515605,-5.20373468116625
1.0142085222580282,1.1911752601816943,1.0531493496728845,-5.933105882470911,-6.696237504020014,-1.8801402958527276
1.026120274859845,1.124212885141494,0.9938182908481754,-5.951907285429438,-9.729297664640095,1.5515137761894429
1.0373624037112599,1.026919908495093,0.934299217993881,-5.936392147667544,-12.637477655703545,4.797922855701879
1.0476316027962107,0.9005451319380576,0.8749352965172056,-5.888412919110525,-15.21496922402381,7.606485360942146
1.0566370541155914,0.7483954396978195,0.8160511673261004,-5.812348065501104,-17.328141114719784,9.823747968912283
1.0641210085125696,0.5751140285506217,0.7579276866710893,-5.714110585811981,-18.931162903141345,11.413640278685374
1.0698721487980758,0.3858023995192082,0.7007865808129695,-5.599974183025127,-20.051986248394716,12.43610796425819
1.0737301727932678,0.18528253703526104,0.6447868389827183,-5.475613103382545,-20.762980951595036,13.00617673507612
1.0755829981636205,-0.022347272480689323,0.5900307079488928,-5.345551336031784,-21.152029902024633,13.254866835038245
1.0753595254388135,-0.23386757150093565,0.5365751945885749,-5.213002667681402,-21.30267091687135,13.303134113068648
1.073020849723804,-0.44689428066964915,0.4844451679117609,-5.079971326550716,-21.284319820998537,13.249701618129068
1.0685519069171077,-0.6597374788796345,0.43364545464625376,-4.947474310369425,-21.14978679382419,13.16863824066082
1.0619545321283113,-0.8712353468178764,0.3841707115425595,-4.815787927962817,-20.936751502003116,13.112013161866136
1.0532421786601325,-1.0806028618379075,0.3360128322629313,-4.684667796344156,-20.6707652842881,13.114323733117653
1.0424361500417534,-1.2873105146807886,0.2891661542994898,-4.553524559012979,-20.368423148219165,13.19691733045157
1.0295630448949455,-1.4909947461629802,0.24363090870936,-4.421555385708464,-20.04011618154387,13.371683754044048
1.0146530974333157,-1.6913959079784189,0.19941535485227535,-4.287838548168024,-19.692203305864734,13.643867151876353
0.9977391383535315,-1.8883179410370663,0.1565369693705951,-4.15139987664926,-19.32863576212454,14.014095344017699
0.9788559589431608,-2.081604298658312,0.1150229706041025,-4.011258923209083,-18.95213326054063,14.479799494464148
0.9580399159565777,-2.2711256312637182,0.07491038137201167,-3.8664609282644418,-18.565016488017545,15.036194113252122
0.9353286596439405,-2.456775796143894,0.03624577208936725,-3.7160989871319208,-18.16978411332307,15.676956936528658
0.9107609016825016,-2.6384736372771247,-0.0009152177819519575,-3.559329417766634,-17.769501104633143,16.394713203716645
0.8843761653097303,-2.816168648323456,-0.0365085119596183,-3.3953822857294678,-17.368045998715864,17.181397738386874
0.8562144788264957,-2.9898491083106147,-0.07046233481691298,-3.223568308345599,-16.97024963601604,18.028542992633795
0.8263159877433895,-3.1595516046707752,-0.10269801790036898,-3.043282878419261,-16.58194657972039,18.927521185779234
0.7947204716966818,-3.325371070467979,-0.1331308466845616,-2.8540076665614684,-16.20995196732801,19.86975238984097
0.7614667609920021,-3.487470590141259,-0.1616709233501763,-2.6553101426630588,-15.861969651442191,20.84687626686972
0.7265920550905894,-3.646090286655681,-0.1882240247768069,-2.4468413799943614,-15.546430821602607,21.850871512896248
0.6901311522240327,-3.801554594871707,-0.2126924385767505,-2.2283326648653987,-15.272254368921175,22.87409215141333
0.6521156062753156,-3.9542771385609186,-0.23497576522540448,-1.9995917433512653,-15.048509295164903,23.909171531842976
0.6125728348897064,-4.104762231512567,-0.2549716826589171,-1.7605000280328356,-14.883943258984862,24.948720464836523
0.5715252125745807,-4.253601664102416,-0.2725766829392455,-1.5110128233844704,-14.786317036802167,25.98471168216647
0.5289891959335565,-4.401464834470438,-0.2876868111730902,-1.2511657065628057,-14.761448685404243,27.007394047658348
0.48497454758885217,-4.549079321324481,-0.30019846823871826,-0.9810917660862222,-14.811819600625546,28.00351152129891
0.4394837543756074,-4.6971975173307365,-0.3100093858995805,-0.701056650873233,-14.934524750225217,28.953510540119733
0.3925117792023,-4.846542764832988,-0.3170199524083128,-0.4115215454720356,-15.118264164418587,29.827310539883378
0.3440463515539701,-4.997725406477175,-0.3211351678630332,-0.11324844007320184,-15.338992388821103,30.578115936700385
0.29406909748919835,-5.151115330365386,-0.3222676522637652,0.192532719293802,-15.55382899904786,31.133754368002542
0.2425579441855445,-5.306653620355864,-0.32034232507082716,0.5038702629738274,-15.693038150360545,31.38535363983395
0.18949140798198585,-5.46358400185947,-0.3153036224410889,0.8177237993721669,-15.65062444498988,31.174269079788036
0.13485556796339115,-5.620090246309369,-0.30712638444736723,1.1294664901700473,-15.275908360337045,30.28081002690227
0.07865466550029747,-5.772849329912739,-0.2958317195456668,1.4322745904390701,-14.371973034840286,28.42337308714838
0.02092617220117008,-5.916569060261142,-0.2815089736412761,1.7165083213105539,-12.7120318459921,25.283902429021552
-0.03823951840144134,-6.043689378721063,-0.2643438904281705,1.9693473456007693,-10.088563352551086,20.580825396963967
-0.09867641218865197,-6.144575012246574,-0.24465041697216283,2.175155599570409,-6.403679837220242,14.201116416836268
-0.1601221623111177,-6.208611810618777,-0.22289886097645875,2.3171667637387716,-1.7804253965163273,6.361539257017682
-0.22220828041730548,-6.22641606458394,-0.19972719333907105,2.3807821563089484,3.3726509254915404,-2.2989386873911033
-0.2844724410631449,-6.192689555329025,-0.17591937177598155,2.3577927694350373,8.42938732978529,-10.819414299754794
-0.3463993366164351,-6.108395682031172,-0.15234144408163117,2.249598626437489,12.757064322774912,-18.225857347792132
-0.40748329343674683,-5.980825038803423,-0.12984545781725626,2.067340052959568,15.94907588713534,-23.873485537902386
-0.46729154382478105,-5.82133427993207,-0.10917205728766058,1.8286051975805442,17.923731189319447,-27.597027772997812
-0.5255048866241018,-5.642096968038875,-0.09088600531185514,1.552634919850566,18.85536408519227,-29.61679751446945
-0.5819258563044906,-5.453543327186953,-0.07535965611334948,1.2564669447058714,19.03128195334968,-30.33315597587931
-0.6364612895763601,-5.263230507653456,-0.06279498666629077,0.9531353849470783,18.734998318344445,-30.15492809617635
-0.6890935946528947,-5.075880524470012,-0.053263632816819985,0.6515861039853148,18.19016085370675,-29.41385607325562
-0.7398523998975948,-4.893978915932944,-0.04674777177696684,0.3574475432527586,17.550634035010237,-28.34614276047929
-0.7887921890569242,-4.718472575582842,-0.043173296344439255,0.07398611564796576,16.912029240865568,-27.106241754234706
-0.8359769148127526,-4.549352283174186,-0.0424334351879596,-0.1970763018943813,16.328215528396644,-25.78907109119151
-0.8814704376444945,-4.386070127890219,-0.04440419820690341,-0.4549670128062964,15.825679598948208,-24.449984593810147
-0.9253311389233967,-4.227813331900737,-0.04895386833496637,-0.699466858744398,15.413984098425544,-23.119606169409877
-0.9676092722424041,-4.073673490916482,-0.05594853692241035,-0.9306629204384967,15.09273131310802,-21.8138539059918
-1.0083460071515689,-3.9227461777854016,-0.06525516612679531,-1.1488014594984146,14.855967287414074,-20.540347488589557
-1.047573468929423,-3.7741865049112606,-0.07674318072177946,-1.35420493438431,14.694880067217497,-19.30234929819337
-1.0853153339785355,-3.6272377042390858,-0.09028523006562257,-1.5472284273662438,14.599418949855728,-18.101107860137517
-1.1215877110209265,-3.4812435147405285,-0.10575751433928501,-1.728239505967619,14.559252533370465,-16.93719642317731
-1.1564001461683318,-3.335650989406824,-0.1230399093989612,-1.897611470199392,14.564329694775063,-15.811231433257305
-1.1897566560624,-3.1900076924590732,-0.14201602410095512,-2.055723784531965,14.605205078789307,-14.724214402763343
-1.2216567329869907,-3.04395564167118,-0.16257326194627478,-2.2029659285595984,14.673225617673333,-13.67764953348886
-1.2520962894037024,-2.897223385494447,-0.18460292123187078,-2.339742423894487,14.760634564569129,-12.673532143352048
-1.281068523258647,-2.7496170398487556,-0.20800034547081564,-2.466477745328007,14.860625419693545,-11.714267300825925
-1.3085646936571345,-2.60101078565182,-0.23266512292409572,-2.5836204183362663,14.96736391490205,-10.80255589982829
-1.3345748015136527,-2.4513371465027998,-0.2585013271074584,-2.691645977334549,15.075988046571362,-9.941271487501556
-1.3590881729786808,-2.3005772660370862,-0.2854177868808039,-2.791058692209565,15.182591606295995,-9.133342252470264
-1.3820939456390517,-2.1487513499741264,-0.3133283738028995,-2.8823921147342673,15.28419426508963,-8.381646723862076
-1.403581459138793,-1.9959094073232302,-0.3421522949502422,-2.966208581972888,15.378700097168743,-7.688927737303524
-1.4235405532120253,-1.8421224063515427,-0.3718143807699711,-3.0430978593459233,15.464845908943454,-7.057726382371301
-1.4419617772755406,-1.687473947262108,-0.4022453593634303,-3.1136751231696365,15.542140505391346,-6.490335524593486
-1.4588365167481618,-1.5320525422081945,-0.43338211059512666,-3.1785784784155715,15.610795847413781,-5.9887708199348255
-1.4741570421702437,-1.3759445837340567,-0.4651678953792824,-3.23846618661492,15.671650775941167,-5.5547557190786865
-1.4879164880075844,-1.219228075974645,-0.49755255724543157,-3.294013743805707,15.72608749114906,-5.189715635703952
-1.500108768767331,-1.0619672010631545,-0.5304926946834887,-3.3459109001627465,15.775940187574477,-4.894775073679874
-1.5107284407779624,-0.9042077991874097,-0.5639518036851161,-3.394858650899545,15.823394068890968,-4.670749900752559
-1.5197705187698365,-0.7459738584985,-0.5979003901941116,-3.4415661499070707,15.870871296938512,-4.51812491524168
-1.5272302573548215,-0.5872651455291148,-0.6323160516931823,-3.4867473990594875,15.920898141536124,-4.437004128332924
-1.5331029088101127,-0.4280561641137536,-0.6671835256837771,-3.531117440342817,15.975944536223308,-4.427017484583915
-1.5373834704512501,-0.2682967187515205,-0.7024947000872053,-3.575387615188656,16.038223240071055,-4.487162749732984
-1.5400664376387654,-0.10791448635080994,-0.7382485762390918,-3.620259242685986,16.109430714703684,-4.6155547287621514
-1.5411455825022735,0.053179820796226906,-0.7744511686659517,-3.6664147899736075,16.19040564249969,-4.80904574907784
-1.5406137842943113,0.21508387722122382,-0.8111153165656877,-3.714505247464386,16.280674097461386,-5.062671875643613
-1.538462945522099,0.3778906181958377,-0.8482603690403315,-3.765131966220822,16.377843913281467,-5.368870180439144
-1.5346840393401406,0.5416690573286523,-0.8859116887025398,-3.818820668025213,16.476807587336435,-5.716407419534698
-1.5292673487668542,0.7064371332020167,-0.9240998953827919,-3.87598474222056,16.568718920956684,-6.088967733607665
-1.522202977434834,0.8721243224115836,-0.9628597428049975,-3.9368744195566365,16.639734312460902,-6.4633815675837
-1.513481734210718,1.0385216655361926,-1.002228487000564,-4.001508235232474,16.669573224574602,-6.80756528090944
-1.5030965175553561,1.2052173977819387,-1.0422435693528886,-4.069583888041568,16.630080021809437,-7.0784179884384795
-1.4910443435775367,1.371518198000033,-1.0829394082333044,-4.1403680679259525,16.484190437804724,-7.220231105510892
-1.4773291615975364,1.5363601023780804,-1.1243430889125638,-4.212570378981061,16.186032639481013,-7.164625933203592
-1.4619655605737556,1.6982204287728906,-1.1664687927023745,-4.284216638313097,15.683271777399254,-6.833573558705973
-1.4449833562860266,1.8550531465468831,-1.2093109590855053,-4.352552373900157,14.923037431866033,-6.14739193747731
-1.4264328248205578,2.0042835208655436,-1.2528364828245069,-4.41402629327493,13.862435319410544,-5.039170947494706
-1.4063899896119023,2.142907874059649,-1.296976745757256,-4.464418002749877,12.483180774333277,-3.4750636330619895
-1.384960910871306,2.267739681802982,-1.341620925784755,-4.499168639080497,10.807076077989361,-1.4759704922509407
-1.362283514053276,2.375810442582875,-1.3866126121755598,-4.5139283440030065,8.905857667874177,0.8683329034708448
-1.3385254096274473,2.464869019261617,-1.43175189561559,-4.505245014968298,6.897984183569367,3.4029738185131984
-1.313876719434831,2.5338488610973107,-1.4768043457652729,-4.471215276783166,4.928991629918176,5.9344647205965115
-1.288538230823858,2.5831387773964924,-1.5215164985331044,-4.4118706295772006,3.1405053398583824,8.272991018133096
-1.2627068430498931,2.614543830795076,-1.5656352048288764,-4.32914071939587,1.6402290725085802,10.273568690416695
-1.2365614047419424,2.6309461215201617,-1.6089266120228352,-4.226405032491702,0.4849511588962805,11.8594739407343
-1.2102519435267407,2.6357956331091246,-1.6511906623477521,-4.107810293084359,-0.31920806414535874,13.022102361112042
-1.1838939871956495,2.632603552467671,-1.6922687652785957,-3.977589269473239,-0.8039012847969826,13.803551055262712
-1.157567951670973,2.6245645396197013,-1.7320446579733282,-3.8395537589206117,-1.0213781928027608,14.27338699066545
-1.131322306274776,2.614350757691674,-1.7704401955625344,-3.696819889013957,-1.0296756092573904,14.508677534128795
-1.1051787986978592,2.6040540015991,-1.807408394452674,-3.551733113672669,-0.8829750761856633,14.581071947283041
-1.079138258681868,2.5952242508372434,-1.8429257255894007,-3.4059223941998384,-0.6269277006968385,14.55062070808159
-1.0531860161734956,2.588954973830275,-1.876984949531399,-3.2604161871190227,-0.297457141189055,14.464277777414507
