th1 (rad),w1 (rad/s),th2 (rad),w2 (rad/s)
3.3295588354307784,-0.7676832469331772,1.947559023882619,-0.06887149551151349
3.3218820029614466,-0.7409147504717912,1.946870308927504,-0.15923300342001317
3.314472855456729,-0.7146265349467472,1.9452779788933037,-0.25011348733676037
3.3073265901072615,-0.688929044837363,1.942776844019936,-0.34146397609744283
3.300437299658888,-0.6639352816663915,1.9393622042589616,-0.43323445757687173
3.2937979468422243,-0.6397605811837532,1.9350298596831927,-0.5253746160624062
3.287400341030387,-0.6165223930133388,1.9297761135225686,-0.6178345679116514
3.2812351171002536,-0.5943400673455417,1.9235977678434522,-0.7105655882734483
3.275291716426798,-0.5733346529617619,1.9164921119607177,-0.8035208217708103
3.2695583698971804,-0.553628710553702,1.9084569037430095,-0.8966559701867169
3.2640220827916435,-0.5353461449580684,1.8994903440411424,-0.9899299503397637
3.258668621342063,-0.5186120595673072,1.8895910445377446,-1.0833055154746238
3.2534825007463897,-0.5035526357930487,1.8787579893829984,-1.1767498336170372
3.248446974388459,-0.49029504003843755,1.866990491046828,-1.2702350164553546
3.2435440239880746,-0.4789673601609665,1.8542881408822744,-1.3637385924152219
3.238754350386465,-0.4696985728583085,1.8406507549581221,-1.4572439176969483
3.2340573646578816,-0.46261854276451864,1.8260783157811527,-1.5507405191514048
3.2294311792302364,-0.45785805328260953,1.8105709105896386,-1.6442243629810946
3.22485259869741,-0.4555488682845455,1.7941286669598278,-1.7376980433636833
3.2202971100145645,-0.455823822768024,1.776751686526191,-1.8311708851940114
3.2157388717868844,-0.45881693936279205,1.7584399776742508,-1.9246589552082243
3.2111507023932564,-0.4646635662244832,1.7391933881221686,-2.0181849757641426
3.2065040667310116,-0.47350053034248457,1.7190115383645272,-2.111778135474211
3.2017690614275867,-0.4854662986254383,1.6978937570097852,-2.205473790687468
3.1969143984413324,-0.5007011373219056,1.6758390191029104,-2.2993130514615716
3.191907387068113,-0.5193472583949099,1.6528458885882946,-2.3933422451257007
3.186713914484164,-0.5415489394097357,1.6289124661370376,-2.4876122497885973
3.1812984250900667,-0.5674526013287239,1.6040363436391516,-2.582177689183563
3.1756238990767796,-0.5972068263522147,1.578214566747316,-2.6770959790699322
3.1696518308132573,-0.6309622956238209,1.5514436069566166,-2.7724262140542324
3.1633422078570193,-0.6688716242620246,1.5237193448160744,-2.868227882203215
3.156653491614399,-0.7110890688328517,1.4950370659940422,-2.9645593932720367
3.1495426009260705,-0.7577700801030505,1.465391472061322,-3.0614764048723577
3.14196490012504,-0.8090706717982215,1.4347767080125984,-3.159029929600845
3.133874193407058,-0.8651465742572214,1.40318640871659,-3.257264205221912
3.125222727664486,-0.9261521404854037,1.3706137666643707,-3.3562143096758947
3.115961206259632,-0.9922389713760262,1.3370516235676118,-3.455903503237254
3.1060388165458717,-1.0635542270577196,1.3024925885352392,-3.5563402818947245
3.0954032742752946,-1.1402385927614698,1.2669291857162919,-3.65751512932742
3.08400088834768,-1.2224238706667103,1.2303540344230177,-3.7593969601030146
3.071776649641013,-1.3102301743174876,1.1927600648219876,-3.8619292543397075
3.058674347897838,-1.4037627098650876,1.1541407722785906,-3.9650258944576717
3.044636720799187,-1.5031081390662435,1.114490513334014,-4.068566728154365
3.029605639408525,-1.6083305330780109,1.0738048460524703,-4.172392898622937
3.0135223340777446,-1.7194669439674706,1.0320809170662408,-4.276302003367244
2.99632766463807,-1.8365226426315975,0.9893178970325684,-4.380043166555109
2.9779624382117538,-1.959466097340178,0.9455174653670173,-4.483312136126082
2.958367777238352,-2.0882237958010537,0.9006843440057565,-4.585746544784362
2.9374855392803414,-2.222675044399907,0.8548268785579128,-4.686921501941349
2.915258788836342,-2.3626469093516205,0.8079576635384993,-4.786345709370458
2.891632319742826,-2.507909493492713,0.7600942064447948,-4.88345831391655
2.8665532248078986,-2.6581717662529236,0.7112596233056292,-4.977626722660288
2.8399715071453695,-2.813078179349202,0.6614833560790263,-5.068145605796765
2.8118407253518773,-2.97220630309234,0.6108019000210586,-5.154237296608127
2.7821186623209537,-3.1350657042614065,0.5592595270549774,-5.235053763473403
2.75076800527834,-3.301098253525946,0.5069089894202433,-5.309680274494544
2.7177570227430805,-3.4696799972438113,0.4538121866752979,-5.377140801894608
2.6830602227706426,-3.6401246563963996,0.4000407786563518,-5.4364051246959235
2.6466589762066786,-3.811688728756586,0.34567672740939254,-5.486397491589034
2.608542088919113,-3.983578076819468,0.2908127524935022,-5.526006612100544
2.5687063081509183,-4.154955794484803,0.23555268637249674,-5.5540966667503575
2.5271567502060703,-4.324951073286939,0.18001171970499316,-5.569518980915077
2.483907239473201,-4.49266874832682,0.1243165298958424,-5.5711240069798
2.438980551989933,-4.657199207916192,0.06860528982604439,-5.5577733160860685
2.3924085599107707,-4.817628408468399,0.013027556665183702,-5.528351419060426
2.3442322758260867,-4.973047850234116,-0.04225595752542056,-5.481777411549599
2.2945017973237456,-5.1225645345355915,-0.09707373164091654,-5.417016655480037
2.2432761519783897,-5.265311123918323,-0.1512438981957169,-5.333092940143591
2.1906230407392067,-5.400456737895819,-0.20457482759715281,-5.229101772441251
2.1366184733602487,-5.52721900464849,-0.2568658453215653,-5.10422557882356
2.081346283313764,-5.644878112760491,-0.30790810110980094,-4.957751607945984
2.024897502186159,-5.752793624192133,-0.35748561718926075,-4.789093151058662
1.9673695659442376,-5.850424681128588,-0.40537654869984735,-4.597814304973957
1.9088653191329517,-5.9373539374471775,-0.4513546917495869,-4.38365787021319
1.8494917797584798,-6.013315063710731,-0.49519127045171885,-4.146575120207944
1.7893586291213726,-6.078223037979843,-0.5366570216537982,-3.8867551610436353
1.728576398741574,-6.132205709647057,-0.5755245732642346,-3.6046505489840297
1.6672543416451036,-6.175634421547873,-0.6115710787540749,-3.300994927038551
1.6054979974296248,-6.209150947525783,-0.6445810280244604,-2.9768079042902222
1.543406487954367,-6.233687817152444,-0.6743491070673626,-2.6333824537452006
1.4810696097828426,-6.250479406181727,-0.7006829316048147,-2.272250904189305
1.4185648157210253,-6.261062054271311,-0.7234054406467078,-1.895127173465651
1.3559541951783123,-6.2672629049916555,-0.7423567123813642,-1.503825070446013
1.2932815661283956,-6.271178991989154,-0.7573949630858243,-1.1001549162577782
1.2305697762085042,-6.27515005365434,-0.7683965122484021,-0.6858028899195079
1.1678182756719608,-6.281730332986535,-0.7752545411475972,-0.2621988438426496
1.1050009723420955,-6.293665938515108,-0.7778765295860237,0.16962157406923772
1.0420643129569445,-6.313885065129127,-0.7761803138453314,0.609156013172113
0.9789254623056531,-6.345508536437753,-0.7700887537136103,1.056573966088445
0.9154703769412756,-6.391887924763517,-0.7595230140527258,1.5128567218921698
0.8515514976936405,-6.4566781758473,-0.7443944468338041,1.979944821017512
0.7869847159351675,-6.543951306247176,-0.724594998623629,2.460902864995286
0.7215452028726957,-6.6583569119503405,-0.6999859699736761,2.9601135626459567
0.6549616337531924,-6.80533214033956,-0.6703848343472165,3.4835102861504965
0.5869083123497968,-6.99135336572392,-0.6355497314857116,4.038842984233446
0.5169947786925576,-7.224190883131374,-0.5951613016433771,4.635927727488003
0.44475286986124385,-7.513043067230095,-0.5488020243684971,5.286708854150175
0.3696224391889429,-7.868204604276966,-0.4959349358269954,6.004648546516942
0.29094039314617326,-8.299368318047886,-0.43588845036182594,6.80217688905029
0.2079467099656944,-8.810371655990405,-0.36786668147132306,7.683125977804074
0.11984299340579034,-9.385743338073592,-0.29103542169328234,8.623630778703822
0.02598556002505442,-9.962540183400181,-0.2047991139062441,9.532394732150525
-0.07363984180894739,-10.393354528824196,-0.10947516658473885,10.198748243816386
-0.17757338709718934,-10.465484630847287,-0.007487684146574997,10.320240871246085
-0.2822282334056622,-10.079642645451115,0.09571472456588585,9.755308473374663
-0.38302465986017337,-9.408163401337765,0.1932678092996325,8.746942133603353
-0.477106293873551,-8.706224004878646,0.280737230635666,7.65722425906982
-0.5641685339223375,-8.101004364955935,0.3573094732263642,6.669483885085338
-0.6451785775718968,-7.61405084831827,0.42400431207721756,5.818063849224374
-0.7213190860550794,-7.230473658297824,0.4821849505694613,5.08498715547868
-0.7936238226380576,-6.929954737945224,0.5330348221242481,4.443701237631934
-0.8629233700175098,-6.695084936142591,0.5774718345005675,3.8711282697044362
-0.9298742193789358,-6.5124197686209,0.6161831171976119,3.34944107558333
-0.9949984170651448,-6.371804293541833,0.6496775279534451,2.865339812987387
-1.0587164600005632,-6.26550847808529,0.678330926083319,2.4090112663625303
-1.121371544781416,-6.187517205721371,0.7024210387469443,1.9732700052321641
-1.1832467168386298,-6.133006020333001,0.7221537387992659,1.5529336346505414
-1.2445767770419598,-6.097967388497532,0.7376830751457714,1.1443847464335328
-1.305556450926935,-6.0789489158267,0.7491269226101067,0.7452628681940427
-1.366345940085202,-6.072874258319873,0.7565795512920471,0.35424001659030946
-1.4270746826684009,-6.076926599232111,0.7601219514579503,-0.029154591102980965
-1.487843948660722,-6.088480925188205,0.7598304055469205,-0.40468504538612077
-1.5487287579126041,-6.105074975700475,0.7557835550930593,-0.7715505827984193
-1.6097795076696089,-6.124410302827186,0.7480680492650751,-1.1285277847358097
-1.6710236106978806,-6.144375121856335,0.736782771417717,-1.4741159585489203
-1.732467361916444,-6.163080323238894,0.7220416118322278,-1.8066832857834358
-1.7940981651488328,-6.1788998474232795,0.7039747789743934,-2.124607451535711
-1.8558871636230656,-6.190507125039143,0.6827287044590363,-2.426402406758813
-1.917792234873457,-6.196900705754423,0.6584646803914482,-2.7108228943407107
-1.9797612419310013,-6.197414461721073,0.6313564514480411,-2.9769402361837223
-2.041735386548212,-6.191710492226051,0.6015870490862039,-3.2241860733731422
-2.1036524914704726,-6.179755561621761,0.5693451883524725,-3.4523644546787393
-2.1654500470866904,-6.16178408518485,0.5348215438056851,-3.6616360388200246
-2.227067887938539,-6.138252020679607,0.4982051834174849,-3.8524805807958793
-2.288450408145335,-6.109786446426898,0.45968037760952607,-4.025645020011397
-2.3495482726096037,-6.0771352408892705,0.4194239274094121,-4.1820844275224225
-2.4103196250184964,-6.041120384249244,0.3776030831341879,-4.322902093408254
-2.470730828860989,-6.002597270414869,0.33437406220010535,-4.449293537821453
-2.5307568015651376,-5.962421294832418,0.2898811268218908,-4.562497585299674
-2.590381014513462,-5.921422032844795,0.24425615096889408,-4.663756131067559
-2.6495952348419096,-5.880384621753157,0.1976185896582185,-4.75428301126932
-2.7083990810594414,-5.840037515150227,0.1500757595455253,-4.835241522101354
-2.7667994562109435,-5.801045555596734,0.10172334432451174,-4.9077295974091335
-2.824809911766911,-5.764007257402512,0.05264604835042041,-4.972771391643954
-2.882449984340936,-5.729455249346674,0.0029183344339808667,-5.031313952518955
-2.939744536834403,-5.697858949651174,-0.047394805091208685,-5.084227736168018
-2.9967231263309144,-5.66962869609699,-0.09823708245288887,-5.132309860290742
-3.053419413291884,-5.645120708242673,-0.1495601810557963,-5.176289165754737
-3.109870620374311,-5.62464240150831,-0.20132307271334365,-5.216832336412066
-3.1661170443893942,-5.608457696995413,-0.2534913960774643,-5.254550493711815
-3.2222016213593485,-5.596792073846255,-0.3060369010145824,-5.290005828536213
-3.278169542097811,-5.589837193240743,-0.35893695929994457,-5.323717954559753
-3.3340679140302187,-5.587754986925091,-0.4121741388455421,-5.356169765716904
-3.3899454638994695,-5.590681151268791,-0.46573583650271116,-5.387812657287815
-3.4458522754121574,-5.598728023152268,-0.5196139630755893,-5.4190710287027
-3.5018395556436803,-5.611986839178881,-0.5738046733626163,-5.450346029629099
-3.5579594240354693,-5.630529397110284,-0.6283081336589073,-5.4820185422711685
-3.614264718006572,-5.654409149986637,-0.683128319081619,-5.514451414765444
-3.6708088095064384,-5.683661770693456,-0.7382728332292734,-5.547990975400546
-3.727645427213373,-5.718305229042694,-0.7937527429832788,-5.5829678670371194
-3.7848284795038,-5.7583394257572165,-0.84958242165365,-5.619697247139127
-3.842411873761372,-5.803745428890318,-0.9057793941250414,-5.6584784025419435
-3.900449328050275,-5.854484358818129,-0.9623641781504608,-5.699593830532481
-3.9589941716384565,-5.910495968525878,-1.0193601164557857,-5.743307839859434
-4.018099131323715,-5.971696966874207,-1.07679319485438,-5.7898647276168855
-4.077816100992457,-6.037979134188877,-1.134691842130549,-5.839486591090093
-4.1381958923343465,-6.109207282084698,-1.19308670804145,-5.8923708380125746
-4.199287965155193,-6.185217113038074,-1.2520104164215757,-5.948687464507731
-4.261140136285574,-6.265813039888626,-1.3114972910666531,-6.00857617737155
-4.32379826668446,-6.350766031097576,-1.3715830528403687,-6.072143446224106
-4.387305926995436,-6.4398115540202685,-1.4323044873026098,-6.139459581164221
-4.451704042535639,-6.532647695338823,-1.493699083114252,-6.210555942457092
-4.517030519489028,-6.628933544695263,-1.555804642538823,-6.285422399819864
-4.58331985493598,-6.728287933885122,-1.6186588665370216,-6.364005169194606
-4.650602734274831,-6.830288629018161,-1.6822989182289676,-6.446205163473723
-4.718905620565013,-6.934472076030938,-1.7467609698637048,-6.531876999274184
-4.788250341325322,-7.040333799984624,-1.8120797398564465,-6.620828803241479
-4.858653679325169,-7.147329554818914,-1.8782880278888614,-6.712822957163795
-4.930126974873358,-7.2548773118135195,-1.9454162574604994,-6.807577910109272
-5.002675747991493,-7.362360161189068,-2.0134920365615923,-6.9047711667486436
-5.076299349603383,-7.469130181492595,-2.082539748229079,-7.004043533163419
-5.150990651418309,-7.574513305343075,-2.1525801835607132,-7.105004664348925
-5.22673578447174,-7.677815177765805,-2.2236302302042024,-7.207239911411327
-5.303513936249398,-7.778327965107195,-2.2957026293183156,-7.310318411855939
-5.38129721590047,-7.8753380291999,-2.368805813436875,-7.413802304773645
-5.460050596192469,-7.968134334281886,-2.4429438364846114,-7.517256886238195
-5.5397319395352875,-8.056017404817187,-2.5181164053469933,-7.620261451546234
-5.620292113583459,-8.138308602838817,-2.5943190198624557,-7.722420503298167
-5.701675199611847,-8.214359446029219,-2.6715432248954376,-7.823374941306295
-5.783818794072139,-8.283560644919245,-2.7497769743085008,-7.922812795611035
-5.866654400521331,-8.345350501781564,-2.829005102264611,-8.020479021008313
-5.950107905539147,-8.399222287325946,-2.9092098924746943,-8.116183843510331
-6.0341001284124065,-8.444730196169992,-2.9903717309097977,-8.209809138413615
-6.1185474303741065,-8.481493479810325,-3.0724698222939337,-8.301312327498797
-6.20336236517221,-8.509198367470148,-3.1554829455689215,-8.390727309579841
-6.288454348846911,-8.527597411215133,-3.23939021866472,-8.478161983250992
-6.373730322959062,-8.536505932125452,-3.3241718384972296,-8.563791981338023
-6.459095382280317,-8.535795298890323,-3.40980975831061,-8.647850310687605
-6.54445333526922,-8.525382838949675,-3.496288261417486,-8.730612675921899
-6.629707163658717,-8.505218266022153,-3.583594388176705,-8.812378359868223
-6.714759346318938,-8.475266608840453,-3.6717181717753875,-8.89344663673161
-6.799512012407343,-8.435487748881425,-3.7606526381427035,-8.974088810214901
-6.883866889896157,-8.385812827832536,-3.8503935262448525,-9.054516105998122
-6.967725018174482,-8.326117980445966,-3.9409386873048335,-9.134843820719187
-7.050986197978942,-8.256196101362535,-4.032287125512026,-9.215052359380447
-7.133548158992567,-8.175727684653129,-4.12443764910583,-9.294946108399031
-7.215305435839098,-8.084252201770001,-4.21738711018982,-9.374111525584315
-7.296147957856798,-7.981142021494138,-4.311128225445663,-9.451876413815523
-7.375959378071739,-7.865581523348238,-4.405646989583818,-9.527273103825136
-7.454615193305221,-7.736554783023023,-4.50091972062207,-9.5990091971913
-7.531980741135452,-7.592845934503963,-4.596909812593983,-9.66545055535118
-7.607909200480491,-7.4330568876290215,-4.693564318147495,-9.72462222433439
-7.682239769356781,-7.255647262711083,-4.790810540390839,-9.774233707536334
-7.754796241983891,-7.059000869809729,-4.888552877466203,-9.811735065491417
-7.825386250681989,-6.841521435060894,-4.986670228121117,-9.834409257771686
-7.893801465032598,-6.601757233992357,-5.085014320698834,-9.839503464116062
-7.9598190373725215,-6.3385497176344385,-5.183409355339995,-9.824397513283731
-8.023204534548865,-6.0511954182245855,-5.281653330472833,-9.786801110356356
-8.083716488731111,-5.739604305716178,-5.379521341576396,-9.724964058842549
-8.141112531788274,-5.404432868780448,-5.476770982164822,-9.63787668235594
-8.195156860476079,-5.047168408625474,-5.5731497489883814,-9.525433315620747
-8.245628544562333,-4.670144007027554,-5.668404082144589,-9.388532205991954
-8.292329984632609,-4.27647195802873,-5.762289404204508,-9.229091692851314
-8.335094704212896,-3.869896049693743,-5.854580321133021,-9.049974629435582
-8.373793664709833,-3.45457714938698,-5.9450800674273765,-8.85482819965214
-8.408339436203702,-3.034838359428786,-6.033628349423898,-8.647860708763481
-8.43868781979799,-2.614902284556236,-6.120106956511533,-8.4335867326973
-8.464836842643551,-2.198652134973683,-6.204442823838506,-8.216574810029194
-8.486823363993288,-1.789441205561849,-6.286608571938798,-8.00122757769197
-8.504717776048906,-1.3899642738877447,-6.366620847715717,-7.79161492434462
-8.518617418787784,-1.002192874549376,-6.4445369969591635,-7.591369487544325
-8.528639347533277,-0.6273669367101158,-6.520450691834607,-7.403643610243354
-8.534913016900378,-0.266029370847283,-6.5944871279370405,-7.231119610381967
-8.53757331060885,0.0819120024711032,-6.66679832404086,-7.076061517027637
-8.536754190584139,0.41711005768894,-6.737558939211136,-6.940395866099257
-8.53258309000725,0.740703879472854,-6.806962897872129,-6.825810763102587
-8.525176051212522,1.0542533766225535,-6.875221005503155,-6.7338651485228835
-8.514633517446297,1.3596890631612113,-6.942559656988384,-6.6661031523275165
-8.501036626814685,1.659280376461543,-7.009220688511659,-6.624170940466654
-8.48444382305007,1.955623584972695,-7.075462397916326,-6.609935016654901
-8.464887587200343,2.2516479562200806,-7.141561748082875,-6.62560092461119
-8.442371107638142,2.550635418399736,-7.2078177573289866,-6.673828565934271
-8.416864753454144,2.85624251045571,-7.274556042988329,-6.757832528446565
-8.388302328349587,3.172500156582491,-7.342134368272794,-6.881437897825254
-8.356577326783762,3.5037392060051027,-7.410948747251047,-7.049023739980301
-8.321539934723711,3.8543333741927492,-7.48143898465085,-7.2652077764029475
-8.282996600981784,4.228041104395484,-7.55409106241488,-7.533971363695061
-8.24071618993783,4.626530488978773,-7.629430776051831,-7.856645935708487
-8.194450885048042,5.046386113018352,-7.707997235408916,-8.22777713977165
-8.143987023917859,5.473743670008543,-7.790275006806633,-8.627654100947506
-8.089249587217774,5.876662460770646,-7.876551547816108,-9.011611005760363
-8.030482962610067,6.199787569696221,-7.966667657873712,-9.302382427343787
-7.968485086913105,6.374498806245673,-8.05969148214715,-9.403871865924556
-7.904740098850649,6.35642974233083,-8.153730200806395,-9.252934453810806
-7.84117580142734,6.165548576445491,-8.246259545344502,-8.874743287429025
-7.779520315662885,5.875302615331642,-8.335006978218793,-8.367619617836251
-7.720767289509569,5.560565098666267,-8.418683174397156,-7.831286486997444
-7.665161638522906,5.266489180880034,-8.496996039267131,-7.32448707281271
-7.612496746714106,5.011091902156442,-8.570240909995258,-6.869028050408929
-7.562385827692541,4.7976051815597955,-8.638931190499347,-6.466894638364308
