th1 (rad),w1 (rad/s),th2 (rad),w2 (rad/s)
3.5966768296743514,1.103124410524197,2.434615456178412,1.9924450797116837
3.6077080737795932,1.1414421897875797,2.454539906975529,1.9247273779685703
3.6191224956774692,1.1820878680553024,2.4737871807552145,1.8579932513922484
3.630943374358022,1.2249543397138174,2.492367113269137,1.792340179297064
3.6431929177551603,1.2699360114777463,2.5102905150621075,1.727875308930744
3.655892277869938,1.3169289891908016,2.527569268151415,1.6647151880718174
3.6690615677618457,1.365831297263069,2.544216420032133,1.6029854694126142
3.6827198807344765,1.4165431275911946,2.5602462747262593,1.5428205918753877
3.6968853120103886,1.4689671148021484,2.5756744806450134,1.4843634433431516
3.71157498315841,1.523008634607959,2.590518115078445,1.427765008716008
3.7268050695044894,1.5785761218901697,2.604795765165605,1.373184006795848
3.7425908307233913,1.6355814047926318,2.6185276052335635,1.320786519308503
3.7589466447713176,1.6939400505509148,2.6317354704266487,1.2707456154190861
3.7758860452768266,1.7535717180088457,2.6444429265808393,1.2232409753788533
3.793421762456915,1.8144005107737047,2.656675336334628,1.1784585174219455
3.8115657675646517,1.8763553237706188,2.6684599215088474,1.1365900326355003
3.830329320802358,1.9393701746230272,2.6798258218352022,1.097832833154543
3.8497230225485883,2.003384509874002,2.6908041501667475,1.0623894195583674
3.8697568676473284,2.0683434746449842,2.701428044362331,1.030467173628959
3.8904403023937784,2.134198132976456,2.711732716098621,1.0022780825333404
3.911782283723543,2.2009056248734784,2.7217554969239544,0.9780384998790013
3.9337913399722777,2.2684292450366064,2.731535881922744,0.9579689478538794
3.9564756324226438,2.336738427423141,2.741115571401283,0.9422939627183786
3.9798430166968752,2.405808619158133,2.750538511028467,0.9312419832213671
4.003901102888457,2.4756210268775147,2.7598509308606807,0.9250452780586511
4.028657313157232,2.5461622182936647,2.7691013836412672,0.9239399043132515
4.054118935340168,2.6174235615668664,2.7783407826843995,0.9281656839792057
4.080293170955836,2.68940048487684,2.7876224395241915,0.9379661802714121
4.107187175804604,2.7620915383514846,2.7970021013269055,0.9535886495831525
4.134808091188119,2.8354972401734213,2.806537987822737,0.9752839388074297
4.163163063589853,2.909618688222505,2.8162908272108114,1.0033062914381026
4.192259250472079,2.9844559180343655,2.8263238901251926,1.037913019573806
4.222103809652422,3.0600059872184247,2.8367030203209307,1.0793639928380931
4.252703869524606,3.136260765896838,2.8474966602493117,1.1279208895009132
4.284066477183575,3.2132044123748846,2.858775869144321,1.1838461499697206
4.3161985213073235,3.2908105133786587,2.870614330644018,1.2474015685904585
4.3491066264411105,3.3690388691147777,2.883088346329923,1.3188464567002132
4.382797015132258,3.4478319055090063,2.896276810896925,1.3984353085258339
4.417275334187348,3.527110699725642,2.910261163982183,1.4864149023430464
4.452546441184604,3.606770610978473,2.9251253130056134,1.5830207729207917
4.488614147294389,3.6866765172862097,2.9409555207348212,1.6884729984052198
4.525480912467251,3.7666576707947295,2.9578402507188732,1.8029712562737095
4.563147489175198,3.846502200171766,2.9758699632816104,1.9266891197096483
4.601612511176915,3.925951308909276,2.995136854478707,2.0597675886381883
4.640872024266008,4.0046932435628175,3.015734530365089,2.202307879605936
4.680918956701636,4.082357136243428,3.0377576091611482,2.354363536436862
4.721742528064071,4.158506861001798,3.061301244525517,2.5159319696624394
4.763327596674088,4.232635083667588,3.086460564222141,2.6869455872411603
4.8056539475107645,4.304157728291421,3.1133300200945526,2.867262741669036
4.848695524793679,4.372409129033626,3.142002647511243,3.0566587881957754
4.892419616084015,4.436638181880599,3.1725692353932007,3.25481762366627
4.936785997902821,4.496005852857361,3.2051174116298635,3.461324152770202
4.981746056431395,4.549584434463948,3.2397306531575656,3.6756582045006803
5.027241900776034,4.596358964984247,3.2764872352025725,3.8971904916955817
5.0732054904258765,4.635231230265666,3.315459140119528,4.125181264985935
5.119557802728533,4.665026747863911,3.3567109527693875,4.358782352723143
5.166208070207172,4.684505081733807,3.400298776296619,4.597043293154545
5.21305312102451,4.692373744236039,3.446269209228164,4.83892224639398
5.25997685846687,4.687305803684786,3.494658431692104,5.083302313615704
5.306849916503718,4.667961123734846,3.545491454828261,5.329013782025222
5.353529527741067,4.633010911919073,3.598781592648513,5.574862650953314
5.399859636860257,4.581164949339725,3.654530219158046,5.8196655748569475
5.4456712863536545,4.511200519272446,3.7127268749066156,6.062291087037936
5.490783291546379,4.421991665522482,3.773349785776995,6.301706656321176
5.535003208201603,4.312537018573937,3.836366852340207,6.537030802350996
5.578128578387343,4.1819840664131025,3.9017371603637168,6.767589191934694
5.6199484190514735,4.029647463457806,3.9694130522830635,6.992973411075677
5.660244893686052,3.8550188147898465,4.039342786393821,7.213101017348983
5.698795081833951,3.6577653890213986,4.111473796567311,7.428275589801626
5.735372735724165,3.437715433755309,4.185756552465327,7.6392458628448745
5.769749890061719,3.1948282060265325,4.262149011093776,7.8472636824685456
5.801698172121984,2.9291474841937886,4.340621647918461,8.054141431084995
5.830989646963922,2.640738202084286,4.4211630622293105,8.262310618177247
5.857397028984765,2.329607008570057,4.503786168411083,8.4748842678981
5.8806930990704664,1.9956092559976062,4.588535011090064,8.69572602316346
5.900649191630443,1.6383478297117384,4.675492271321699,8.929527461356688
5.91703266992756,1.257074923161094,4.764787545935265,9.181889772416714
5.9296034191591716,0.8506198129475742,4.856606443659432,9.459392015723283
5.938109617288648,0.4173913246935401,4.951200363816665,9.769595674637426
5.942283530535583,-0.044441500653169264,5.048896320563039,10.120863069807376
5.941839115529052,-0.5363720795382212,5.150104951261113,10.52171243485502
5.9364753947336695,-1.058133195999662,5.255322075609663,10.97911619032292
5.925894062773673,-1.6045616685700816,5.365113237512892,11.494565107159419
5.909848446087972,-2.159322230780883,5.4800588885844865,12.055905987796015
5.888255223780163,-2.6841069191440807,5.600617948462447,12.622905739966061
5.861414154588722,-3.1056675494945933,5.7268470058621075,13.109402530406848
5.830357479093776,-3.3163103189943675,5.857941031166176,13.382832942633684
5.797194375903833,-3.2186185005642587,5.991769360592513,13.32257430048085
5.7650081908981905,-2.8072435686655286,6.124995103597321,12.927088241764613
5.736935755211535,-2.186941501675233,6.254265986014968,12.334224295960883
5.715066340194783,-1.4860636513683856,6.377608228974577,11.704241711376081
5.700205703681099,-0.7851629305191659,6.4946506460883375,11.128805724446238
5.692354074375907,-0.11650480581269695,6.6059387033328,10.635321820227347
5.6911890263177805,0.5127896947653987,6.712291921535074,10.219687424599565
5.696316923265434,1.10477764319038,6.814488795781069,9.867401715936415
5.707364699697338,1.6635419938195244,6.913162812940434,9.562410127332972
5.724000119635534,2.192607802508134,7.008786914213764,9.289976241323126
5.745926197660615,2.694228204182301,7.101686676626995,9.037302290876996
5.772868479702438,3.169359002266436,7.192059699535765,8.79344885252387
5.804562069725102,3.6178669913528023,7.2799941880610035,8.549113091756192
5.84074073963863,4.038807518762674,7.365485318978566,8.296441590877743
5.881128814826257,4.430713902315011,7.448449734887343,8.028915398127278
5.925435953849407,4.791877705331658,7.528738888868616,7.741297654755954
5.973354730902724,5.120609317684209,7.606151865416176,7.429619937999403
6.024560824079566,5.415470195465185,7.6804480647961695,7.0911814424603925
6.078715526034218,5.675468206621164,7.751359879220773,6.7245380070294365
6.135470208100429,5.900208294754676,7.8186052592910675,6.329463153752534
6.194472291047976,6.0899927604430975,7.881899890828593,5.906869575785017
6.255372218652407,6.245868686388977,7.940968586586443,5.458686122003622
6.3178309055162964,6.369623867464778,7.995555447806479,4.987691625312312
6.381527144190944,6.463736447880444,8.045432364059602,4.497312368480428
6.4461645086697485,6.5312868006411975,8.090405487744405,3.991394168163347
6.511477376676161,6.575842640997376,8.13031942942604,3.473962710251183
6.577235803086134,6.601329722629062,8.165059056528552,2.948986734028425
6.643249100312425,6.611900625506097,8.194548923868837,2.420157916592051
6.709368106567486,6.611813127363263,8.218750503034757,1.890699006182456
6.775486237841118,6.605327593437743,8.237657493096581,1.3632082724217205
6.841539513775496,6.596629959074651,8.251289575820799,0.8395443002543772
6.907505813366242,6.589783492521504,8.259685018823342,0.32075136841960705
6.973403648291457,6.588708800598889,8.262892532507538,-0.19297692320328785
7.039290736297446,6.597187395868618,8.260962763275504,-0.7022983853686506
7.1052626102561325,6.6188789664049255,8.253939779421819,-1.208686494867163
7.171451399920182,6.657334748724875,8.241852914473148,-1.7143479684186325
7.23802474740743,6.715976042816872,8.224709434788961,-2.222064214062538
7.305184507835599,6.79798238983732,8.202488792648335,-2.7348909745085583
7.373164331733972,6.905989171468267,8.175139882903249,-3.255585244313746
7.442224223448655,7.04141734287019,8.142584030460112,-3.7855183088584834
7.512638396877357,7.20314344163772,8.104728847371527,-4.3226723234777
7.584669831293734,7.385110306880834,8.06150212413675,-4.858169388299824
7.658520934362542,7.572602422061939,8.012920430253752,-5.370964756718524
7.734246958583162,7.737918617171667,7.959210782686567,-5.8217725416539405
7.811626144754879,7.8390942280413425,7.9009930572700275,-6.1514213400755064
7.890017087035292,7.8292462567674885,7.839478843869273,-6.2943485417653156
7.968309549602967,7.680677332869992,7.7765353584516195,-6.21299371193927
8.045116322931667,7.407830243525197,7.714405421332227,-5.930414015844672
8.11919462536692,7.06101884926405,7.65510128117378,-5.521251975142714
8.18980481385956,6.695080455309708,7.599888761422354,-5.0669175194408735
8.256755618412656,6.3466479104700575,7.549219586227945,-4.622875293675328
8.320222097517357,6.032305506787438,7.502990833291192,-4.2156650686115595
8.380545152585231,5.755973200064536,7.460834182605076,-3.853245652662718
8.438104884585877,5.515633084782574,7.422301726078449,-3.5345763167661057
8.493261215433703,5.307180862032315,7.386955962910788,-3.2551853351965248
8.546333024054027,5.1262029113951275,7.354404109558823,-3.009798809126318
8.597595053167979,4.968667665701132,7.3243061214675595,-2.7934101026433127
8.64728172982499,4.831126430849984,7.296372020441126,-2.601631373531801
8.69559299413349,4.710715288155708,7.270355706705808,-2.430744500390542
8.742700147015046,4.605087864773779,7.246048261701903,-2.2776400770834537
8.788751025662783,4.512332846262619,7.223271860931068,-2.139724766840647
8.83387435412541,4.430896627278859,7.201874613262662,-2.014828856702064
8.878183320398199,4.359517374345687,7.181726324695641,-1.9011250044684311
8.921778494141655,4.29717114924366,7.162715074650957,-1.797060590282587
8.964750205634092,4.243028742074523,7.144744468748131,-1.7013028351350836
9.007180493054836,4.196421353547886,7.12773144039678,-1.6126948537126224
9.049144706590315,4.156813325248683,7.111604491859654,-1.5302207235164085
9.090712839842801,4.123780356221273,7.09630228462449,-1.4529778970975176
9.131950643405014,4.096991907646103,7.081772505653515,-1.3801556184186805
9.172920562481476,4.076196727689463,7.067970949469328,-1.3110183339974912
9.21368252975837,4.061210610423014,7.054860766129353,-1.2448933836415432
9.254294635862601,4.051905637354538,7.042411832292938,-1.1811625083828907
9.294813692236147,4.048200245183859,7.030600207209109,-1.119256927037705
9.335295694687986,4.050049528887368,7.019407637938732,-1.0586559105965963
9.37579618997686,4.057435236521196,7.008821078832766,-0.9988889251559955
9.416370542342072,4.070354954234649,6.998832189581206,-0.9395415138652387
9.457074091884419,4.088810032213897,6.989436774442553,-0.8802651344562717
9.497962192206558,4.112791882742662,6.980634123097991,-0.8207911424481038
9.539090111033984,4.1422664109892935,6.972426211673509,-0.7609489858940093
9.580512775143877,4.177156539295671,6.964816721814569,-0.7006884267829548
9.622284340536833,4.21732307592607,6.95780983754674,-0.6401052002911147
9.664457571296094,4.262544569996957,6.951408785543829,-0.5794689512920879
9.707083016996064,4.312497278701209,6.945614096030908,-0.5192515589736731
9.750207989783076,4.366736916264476,6.940421580441171,-0.46015312841220524
9.793875358945721,4.424684385173279,6.93582004915705,-0.40312210272868637
9.838122202797454,4.485618099162497,6.931788828129763,-0.3493653034974124
9.882978383789078,4.548675655411405,6.928295175094789,-0.3003434622103907
9.928465140343192,4.612867358943932,6.925291740472685,-0.25774819416864053
9.974593813932632,4.677103343023895,6.922714258530998,-0.223457566650834
10.021364847362872,4.740234749760459,6.92047968286449,-0.19946947306357204
10.068767194860476,4.801107742391399,6.918484988133854,-0.18781479669113973
10.116778272284389,4.858627249932302,6.916606840166943,-0.19045547048771563
10.165364544783712,4.911825622275972,6.914702285462066,-0.2091754849710707
10.214482801006472,4.959930144126462,6.912610530612355,-0.24547507872267543
10.264082102447738,5.002422898070948,6.9101557798251285,-0.3004792614009365
10.314106331428446,5.039086926426029,6.907150987211119,-0.3748711710489026
10.364497200692707,5.070034001270306,6.90340227550063,-0.46885854094696516
10.41519754070541,5.095711400251643,6.89871369009116,-0.5821780239438378
10.466154654707926,5.116887607617681,6.892891909851722,-0.714137820484787
10.517323530784104,5.134619443160011,6.885750531646874,-0.8636946709590259
10.568669725215704,5.1502053721362095,6.877113584937284,-1.0295575405577349
10.620171778937067,5.165131319392967,6.866818009531706,-1.2103078869213904
10.671823092130996,5.181015976473083,6.854714930662492,-1.4045256600513745
10.723633251895727,5.199562311557988,6.840669674061979,-1.6109112038279039
10.775628875011307,5.2225209318594406,6.8245605620236995,-1.8283957213303061
10.827854084329902,5.25166943287808,6.806276604810397,-2.056236385824551
10.880370778658682,5.288810301147418,6.785714240952151,-2.2940958901631903
10.933258881670156,5.335788694864583,6.762773282050519,-2.5421096869053645
10.986616768618802,5.394530789307692,6.737352185181465,-2.8009470619589703
11.040562076511879,5.467103493801734,6.709342714561876,-3.071874458814962
11.095233111449897,5.555797267102489,6.678623969973726,-3.356831314369428
11.150791084120922,5.66323544650713,6.645055656830032,-3.658530402133276
11.207423438585993,5.792515865360094,6.608470352808699,-3.9805966130689576
11.265348597239594,5.947393311717895,6.56866438667801,-4.327760285941376
11.324822530356773,6.132513827235804,6.525386783818596,-4.706122866196943
11.38614766862913,6.3537117165447,6.478325555156626,-5.123510845320948
11.449684785794577,6.618370984875391,6.427090446703417,-5.5899196318078745
11.515868495643332,6.935816762905639,6.371191250385339,-6.117997015847767
11.585226663272389,7.317589889789143,6.310011280226861,-6.723357175323867
11.65840256217028,7.777137058053232,6.242777708473622,-7.4240653998059125
11.736173932750813,8.327580895187877,6.168537054475563,-8.23741545439722
11.819449741702691,8.97406386114765,6.086162899931591,-9.169075556575724
11.909190380314167,9.692766586752446,5.994472144365834,-10.183512162815923
12.00611804618169,10.385772105694075,5.8926370227376745,-11.140494683639718
12.10997576723863,10.829660282205365,5.781232075901277,-11.72287105159052
12.218272370060683,10.753151457237962,5.664003365385372,-11.545876921656113
12.325803884633062,10.15295912358908,5.548544596168811,-10.601096895553752
12.427333475868954,9.357411251982125,5.442533627213273,-9.346163911760245
12.520907588388775,8.634495580503526,5.3490719880956705,-8.155817591889226
12.60725254419381,8.059185021670746,5.267513812176778,-7.1355998815443185
12.687844394410519,7.620947485329959,5.196157813361335,-6.271256450947924
12.764053869263819,7.292980695275418,5.133445248851856,-5.525176693781475
12.836983676216573,7.051612418950438,5.078193481914041,-4.8636066613925735
12.907499800406077,6.8790237940096866,5.029557415300115,-4.260685371498414
12.976290038346175,6.762245563645751,4.986950561585131,-3.697297358733678
13.043912493982631,6.691758645690241,4.949977587997794,-3.159382918793687
13.110830080439534,6.660357276087516,4.918383758809857,-2.6366321025917894
13.17743365320041,6.66231284319876,4.892017437783939,-2.121618704271504
13.244056781632398,6.692768358778834,4.8708012507412235,-1.6092683696598382
13.310984465220187,6.747299717603273,4.854708567044625,-1.0965492108398873
13.37845746239622,6.821604365134304,4.843743074936226,-0.5822918942251397
13.446673506047564,6.911299064209704,4.837920155993975,-0.06706221942710167
13.51578649668966,7.0118216831474465,4.837249533799704,0.4469782464427584
13.585904713521135,7.118436343361093,4.841719316264132,0.9562741610261911
13.657089076954746,7.226336953809452,4.851282057874394,1.456172342607418
13.72935244649284,7.33083280802867,4.865843781300468,1.9413166760678693
13.802660774573127,7.427585519200858,4.885256948061146,2.4061170655352244
13.876936629765135,7.5128549563471605,4.909318118716499,2.8452413014103506
13.952065179328606,7.583708673147987,4.937770531730602,3.2540648472021596
14.027902266060087,7.6381573284568836,4.970311180202624,3.6290174589280104
14.104283839344657,7.67519593579669,5.006601354791904,3.9677861600657756
14.181035798702624,7.694751743236304,5.046279216392562,4.269363953374808
14.257983316134986,7.697557402966814,5.08897285592631,4.533962518573997
14.334958890164653,7.684978195970149,5.13431248111205,4.762826746467863
14.411808672124355,7.658823422670144,5.181940748576729,4.957995979277792
14.488396906351056,7.62116675178213,5.231520708369507,5.12205289366286
14.564608573868878,7.574191791773587,5.282741237306135,5.257890494075297
14.640350491786613,7.520070535452691,5.335320142246888,5.3685153563114945
14.71555119714114,7.4608755356440595,5.389005295810003,5.456894401191666
14.79015995249758,7.398522337495442,5.44357423982192,5.525844646908413
14.864145175872535,7.334736594522954,5.498832686291004,5.57796075365384
14.937492541817765,7.271039818378376,5.554612293827542,5.615573136806182
15.010202940001548,7.208748203564005,5.610768025195604,5.640729148152261
15.082290422037188,7.148979907820047,5.667175316677127,5.655190546574711
15.153780221115388,7.092667213730562,5.723727222142874,5.660441638206213
15.224706893252694,7.040570958120153,5.780331638524936,5.657703706798518
15.295112602833896,6.993295412301652,5.836908675592921,5.647952488180926
15.365045556956913,6.951302412690519,5.893388200474731,5.631936389460703
15.434558581083818,6.914923995547171,5.949707564369338,5.610193900928068
15.50370782103929,6.884373112585778,6.005809503378619,5.583069216865374
15.572551552165148,6.859752228850305,6.061640195547272,5.550725504600591
15.64114907445365,6.841059760439284,6.117147450593278,5.513155575765283
15.709559672058043,6.828194422404261,6.172279006350931,5.4701899537689505
15.777841616282085,6.82095764678559,6.22698090588862,5.42150252639055
15.846051192749941,6.819054313675641,6.281195931152526,5.366614146680105
15.914241735886698,6.82209212772541,6.334862072619327,5.304894719053555
15.982462657163952,6.829580079464106,6.387911019809862,5.235564496131112
16.050758457958594,6.840926563628989,6.4402666647711735,5.157695526261501
16.119167723594884,6.855437890884144,6.491843620033788,5.070214436378586
16.187722102503727,6.872318125889788,6.542545764397574,4.9719080057569265
16.256445283762623,6.890671407772718,6.592264844455143,4.8614332667155935
16.32535199784035,6.909508142185116,6.640879177122299,4.737334124021127
16.3944470792622,6.927756665795089,6.688252518362511,4.598066657858816
