th1 (rad),w1 (rad/s),th2 (rad),w2 (rad/s)
3.1026394349119393,-2.1458126532398865,4.80917898012748,-1.0096193036019667
3.0811813083795405,-2.1410224033042358,4.79908278709146,-0.9570512950215079
3.0597710843464982,-2.1385502779657446,4.789512274141245,-0.9044016657151024
3.038385581566841,-2.138360501072009,4.780468257484094,-0.8518204248856767
3.017001976556121,-2.140419109189491,4.771950053235238,-0.7994550505371912
2.995597785464226,-2.144694523029478,4.763955502729866,-0.747451024555438
2.974150840233931,-2.1511581249538536,4.756480992484311,-0.6959523754838886
2.9526392589843926,-2.159784842588479,4.749521468729473,-0.6451022332691265
2.9310414105585076,-2.170553738833967,4.743070446396781,-0.595043400637458
2.909335873170168,-2.183448608757442,4.737120012390407,-0.5459189460082539
2.887501387082594,-2.1984585839687445,4.7316608229303245,-0.497872822932076
2.865516801242906,-2.215578745118866,4.726682094701004,-0.4510505209390857
2.8433610137917174,-2.234810743088576,4.722171589491613,-0.4055997523648281
2.821012906360832,-2.2561634292342303,4.7181155919679645,-0.3616711791457409
2.7984512720684895,-2.279653494688916,4.714498880176507,-0.31941918269260516
2.7756547371216005,-2.305306118132013,4.71130468834958,-0.2790026786875562
2.7526016759402805,-2.333155620576956,4.708514661562704,-0.2405859769200204
2.729270119734511,-2.3632461245074654,4.706108801793504,-0.20433968396508215
2.705637658489436,-2.395632213020119,4.7040654049538535,-0.17044164347029347
2.681681336359235,-2.43037958238789,4.702360988519151,-0.13907790487403235
2.657377540535356,-2.467565678502898,4.700970209470411,-0.11044370630875475
2.632701883750327,-2.5072803038184377,4.699865772407323,-0.08474445097726521
2.607629080712143,-2.5496261764937156,4.699018327897551,-0.062196648109420966
2.5821328189472057,-2.594719417225526,4.698396361416457,-0.04302877933739037
2.5561856247749506,-2.6426899314815997,4.697966073623083,-0.027482038546659093
2.529758725460135,-2.6936816452678256,4.6976912532376165,-0.015810877505302367
2.5028219090074564,-2.7478525409051295,4.697533144462564,-0.008283270367451342
2.475343383598405,-2.8053744253302635,4.697450311758889,-0.005180587035071801
2.4472896393451027,-2.8664323470104676,4.697398505888538,-0.006796937983142479
2.418625315874998,-2.931223558655377,4.697330536508707,-0.013437821337578069
2.3893130802884444,-2.999955901731005,4.697196158295331,-0.025417866912341214
2.3593135212711345,-3.072845465893562,4.696941979626208,-0.04305743227318602
2.3285850666121988,-3.1501133529402385,4.696511405303476,-0.06667776421928266
2.2970839330827966,-3.2319813524969216,4.695844627661283,-0.09659439801880569
2.264764119557827,-3.3186663181198575,4.694878683681095,-0.1331084304816598
2.2315774563766286,-3.410373021588498,4.693547599376278,-0.17649527760598668
2.1974737261607435,-3.5072852649863555,4.691782646600219,-0.22699052146616794
2.16240087351088,-3.609555051064205,4.689512741385557,-0.28477247502637026
2.126305323000238,-3.717289659770221,4.686665016635294,-0.34994116072929926
2.0891324264025357,-3.8305365605886723,4.683165605028001,-0.4224935235917622
2.050827060796649,-3.9492662136905907,4.678940669792083,-0.5022948966379075
2.011334398659743,-4.0733529828018025,4.673917720825704,-0.5890470176777186
1.9706008688317251,-4.202554599588637,4.668027250648927,-0.6822532673109226
1.9285753228358389,-4.336490876812862,4.661204717975818,-0.7811822536637598
1.8852104140677102,-4.474622650151639,4.653392895439181,-0.884831390004771
1.8404641875661938,-4.616232211371386,4.644544581539133,-0.9918926596650102
1.7943018654524798,-4.760406745365787,4.634625654942483,-1.100723283933907
1.7466977979988219,-4.906026464037867,4.623618422103144,-1.209324435931537
1.6976375333584433,-5.051759209542923,4.611525177743829,-1.3153314082678038
1.647119941263014,-5.196063261065566,4.598371863661151,-1.4160186887143407
1.5951593086523583,-5.337199929056142,4.584211676774007,-1.5083231971709645
1.5417873093617969,-5.473257289552671,4.569128444802297,-1.5888884940355865
1.48705473646627,-5.602186145433768,4.553239559861941,-1.6541321168340453
1.4310328750119323,-5.721849040890767,4.536698238693601,-1.700337372287389
1.3738143846030246,-5.830082899795427,4.519694864970727,-1.7237698993326096
1.3155135556050703,-5.924775533911791,4.502457165977401,-1.7208180381328395
1.2562658002659524,-6.003955707247439,4.485248985596073,-1.6881543036050912
1.196226243193478,-6.065895408669738,4.468367442560022,-1.6229128155667962
1.1355672891067807,-6.109221234214943,4.452138314404354,-1.5228741716498857
1.0744750767646314,-6.133029198734901,4.436909572687855,-1.3866449890708283
1.0131447847772823,-6.13699406459032,4.423043122797147,-1.2138146779669925
0.9517748441313791,-6.12146101659977,4.410904976017478,-1.005068068713558
0.8905602339653814,-6.087505320275196,4.400854295330342,-0.7622310171739017
0.8296851807626294,-6.036945831291458,4.393231985158603,-0.48822895864808535
0.7693157224497148,-5.9723020115997025,4.3883496955721215,-0.1869468599852091
0.7095927023337177,-5.896691702277506,4.386480226972269,0.13700716703392601
0.6506257853109427,-5.8136771534359974,4.387850298642609,0.4786156773357162
0.5924890137765828,-5.7270771863632,4.392636455415966,0.8328091134513252
0.5352182419129508,-5.6407707332900054,4.400964546550479,1.1948236878305882
0.4788105345800507,-5.558518935675291,4.4129127834287845,1.5605180087917185
0.4232253452232978,-5.483828893124792,4.428517963516701,1.9266169216500084
0.3683870562920499,-5.41987358709697,4.447784132733202,2.290867708212083
0.3141883204210802,-5.369472392928002,4.470692809815323,2.652111697268154
0.26049359649180015,-5.335127953731948,4.497213926788004,3.0102888639625376
0.20714231695448068,-5.319109986784853,4.527316815427629,3.3664015829168257
0.15395121708663215,-5.323575325659429,4.560980831256797,3.722466259706317
0.10071546383003785,-5.350715475415671,4.598205493853861,4.081479760764664
0.04720830907588113,-5.4029268750861155,4.639020291461508,4.447423623258692
-0.006820959674980025,-5.483003477395339,4.683494527694094,4.825324659901394
-0.06165099444893342,-5.594354583635312,4.731747774293108,5.221386079058219
-0.11759454028528654,-5.741250633122324,4.78396163508369,5.643196376367979
-0.1750070466165098,-5.929090319522417,4.84039359884737,6.100006601430983
-0.23429794981173396,-6.164650071470849,4.901393664861679,6.6030205771725115
-0.29594445052644247,-6.456186045768651,4.967423870633405,7.165517414926385
-0.360506310984129,-6.813020243032847,5.039079044782668,7.8022966861530065
-0.42863651341445747,-7.243644473300354,5.1171020116441985,8.527107675238511
-0.501072958147461,-7.749988849900499,5.202373088396584,9.344791693054939
-0.578572846646466,-8.312891698859136,5.2958210053271335,10.231213596349082
-0.6617017636350574,-8.862129423629444,5.398133141290624,11.091673228905028
-0.7503230578713518,-9.239290212800855,5.5090498735796745,11.709271223209571
-0.8427159599993603,-9.227106780062186,5.62614258581177,11.785928253745876
-0.9349870277999822,-8.74514586665888,5.744001868349229,11.214932899044772
-1.022438486466571,-7.989248732790817,5.856151197339677,10.27293396238675
-1.102330973794479,-7.21186196176152,5.9588805369635445,9.311931706492917
-1.1744495934120942,-6.527648327390083,6.051999854028474,8.490742030072749
-1.239726076685995,-5.951473963658875,6.136907274329202,7.829976241594828
-1.2992408163225837,-5.46633189328753,6.21520703674515,7.306767191766613
-1.353904135255459,-5.051396907374335,6.288274708662817,6.893481946108541
-1.4044181043292023,-4.689122994781103,6.357209528123902,6.567360928863332
-1.4513093342770134,-4.365939891747647,6.422883137412535,6.311366627608729
-1.4949687331944899,-4.071516048900942,6.485996803688622,6.113095491472308
-1.5356838936834993,-3.797920769080619,6.547127758603345,5.963567150976352
-1.5736631013743054,-3.538966675567102,6.606763430113109,5.8562587716501575
-1.6090527681299764,-3.2897471328238623,6.66532601782961,5.786389171891761
-1.641950239458215,-3.0463310290145755,6.723189909548528,5.750387015227168
-1.6724135497483608,-2.805578169300038,6.780693779700799,5.745478641471811
-1.700469331441361,-2.5650489541965382,6.8381485661155175,5.769345539320783
-1.7261198209833264,-2.3229909812308356,6.8958420215087255,5.8198156546035875
-1.7493497307956347,-2.0783900776115263,6.954040178054761,5.894565406521437
-1.77013363157175,-1.8310731925376948,7.012985832119975,5.990822322961326
-1.788444363497127,-1.5818448917262362,7.072894055349589,6.105073991326948
-1.8042628124143893,-1.3326276214658543,7.133944795262858,6.232809133590856
-1.817589088629048,-1.0865597076286317,7.196272886598766,6.368340215470528
-1.8284546857053343,-0.8479888502344507,7.259956288753472,6.504778665812142
-1.8369345742076788,-0.622292157699343,7.325004075411593,6.634241853490495
-1.8431574957846721,-0.415469901228128,7.391346493946498,6.748349175391609
-1.8473121947969535,-0.233510119436831,7.458829985700414,6.839000373268248
-1.849647295991322,-0.08160179136469337,7.527219989433097,6.899328461310487
-1.8504633139049689,0.03664190194484618,7.596213274046201,6.9246187799992756
-1.8500968948855203,0.11974812889993114,7.665459461846194,6.912943169268781
-1.848899413596521,0.1685748905527452,7.7345888935388825,6.865318222841306
-1.8472136646909936,0.1860811309654361,7.803242075767296,6.785347003336119
-1.8453528533813393,0.176766296070835,7.871095545800657,6.678471973375171
-1.8435851904206308,0.1459574024864095,7.9378802655344085,6.551068497967761
-1.8421256163957667,0.09912797810255378,8.003390950514087,6.409605677133575
-1.841134336614741,0.041374407975051014,8.067487007285422,6.260020874263041
-1.8407205925349905,-0.022904526917560078,8.130087216028052,6.107353421900516
-1.840949637804166,-0.09014222747265946,8.191160750247057,5.95560709122866
-1.8418510600788927,-0.15760221777884925,8.250716821159344,5.807775341034772
-1.8434270822566812,-0.22329393292279529,8.308794574569692,5.665960441606546
-1.8456600215859091,-0.2858510822745947,8.365454178985757,5.531531881305829
-1.848518532408655,-0.3444029140374315,8.420769497798815,5.405288245014365
-1.8519625615490294,-0.398455647273989,8.474822380248959,5.287603019387415
-1.8559471180217693,-0.4477918317860584,8.527698410442833,5.178546234342216
-1.8604250363396297,-0.4923894714563132,8.579483872786255,5.077980757345458
-1.8653489310541929,-0.5323595714131872,8.63026368035971,4.985635598280109
-1.8706725267683246,-0.5678993984602972,8.68012003634251,4.901159981707335
-1.8763515207529275,-0.5992584183690061,8.729131636159583,4.824162142335906
-1.8823441049366176,-0.6267140770696125,8.777373257582942,4.7542364190225195
-1.8886112457073139,-0.6505550132958126,8.824915621773167,4.690981627365474
-1.895116795840272,-0.6710697574986745,8.871825438046821,4.634013073038128
-1.9018274934152586,-0.6885394038079559,8.918165568777203,4.582970015038026
-1.9087128874533381,-0.7032331066803447,8.963995268927583,4.537519929816641
-1.9157452185201416,-0.7154055459278876,9.00937046822575,4.497360564688194
-1.9228992739794204,-0.7252957293284296,9.054344073872633,4.4622204903804255
-1.9301522312727046,-0.7331266715505865,9.098966278776437,4.4318586526242205
-1.9374834979882105,-0.7391056127249681,9.143284865302679,4.406063266104988
-1.9448745541154602,-0.7434245295058001,9.18734549796373,4.384650277695932
-1.9523087994105182,-0.7462607539771,9.23119200074069,4.3674615388280955
-1.9597714069502892,-0.747777557571733,9.27486661612897,4.354362760541485
-1.9672491825260066,-0.7481245830327149,9.318410243734384,4.34524127252824
-1.9747304283563336,-0.7474380208242999,9.361862656459666,4.340003564176843
-1.9822048085645767,-0.7458404297979621,9.405262692101434,4.338572547325897
-1.9896632128625564,-0.7434400971721593,9.448648417574693,4.34088444421178
-1.997097613834278,-0.7403298214814225,9.49205726201681,4.346885167950704
-2.0045009120490924,-0.7365849855895938,9.535526113696317,4.35652602586405
-2.0118667619049884,-0.7322607671198011,9.579091373954958,4.369758538420698
-2.0191893695761864,-0.7273883138110779,9.622788959339164,4.386528130891652
-2.026463252714297,-0.7219696964240122,9.66665424064808,4.406766426337975
-2.0336829496785374,-0.7159714500864766,9.71072190491146,4.430381857091686
-2.040842664179402,-0.7093165392145971,9.755025723482378,4.457248333650857
-2.047935829571548,-0.7018746504128641,9.799598206818887,4.487191789699716
-2.054954576075677,-0.6934508585721599,9.844470124715883,4.519974594955706
-2.0618890846613986,-0.6837729574706826,9.88966987066544,4.555278139102739
-2.0687268142361055,-0.6724781345603567,9.935222652056467,4.592684390739516
-2.075451595581709,-0.6591002297064515,9.981149495963862,4.631657966371065
-2.0820425978787735,-0.6430595492061292,10.027466075627572,4.671531208559906
-2.088473193370835,-0.6236580434639173,10.074181387713171,4.711495884503716
-2.0947097738054743,-0.6000834207986973,10.121296346558209,4.7506061406245275
-2.100710608013461,-0.5714261309013515,10.168802407964455,4.7877978447060885
-2.1064248693224745,-0.5367126373390169,10.216680386411516,4.821928781747546
-2.1117919956958646,-0.49495651410592456,10.264899674228992,4.851841678352176
-2.1167415608369238,-0.44522540160588814,10.313418091012514,4.8764473868374205
-2.1211938148529828,-0.3867171276681,10.362182564880888,4.894819290515301
-2.1250609861296637,-0.31883362462273074,10.41113075778604,4.906283836683218
-2.128249322375891,-0.24123865448314857,10.460193596152873,4.91048875831263
-2.1306617089207225,-0.15388665253117806,10.509298483736,4.907432488219055
-2.1322005754460345,-0.05701571083877241,10.558372808618191,4.897446100797999
-2.1327707325544223,0.04889376739628867,10.607347269626171,4.881130574629977
-2.1322817948804595,0.163185092513729,10.656158575372471,4.859262907347133
-2.1306499439553224,0.28510168579325407,10.704751204445943,4.832690523328502
-2.12779892709739,0.4138596415135174,10.753078109679228,4.802232870910415
-2.1236603306822546,0.5487061630506657,10.801100438388332,4.7686035093691475
-2.118173269051748,0.6889590794232218,10.848786473482024,4.732358447339829
-2.1112836782575157,0.8340275710867768,10.896110057955422,4.693869924139024
-2.102943402546648,0.9834173989405199,10.943048757196813,4.653320757118391
-2.0931092285572426,1.1367252063820894,10.989581964767996,4.610712906240701
-2.0817419764934217,1.2936263510539128,11.035689093830403,4.56588428946694
-2.0688057129828827,1.4538598784863002,11.081347936725072,4.5185291963045415
-2.0542671141980198,1.6172132001025137,11.126533228688118,4.468219174970496
-2.0380949821969945,1.7835080909759615,11.171215420437823,4.414422604461977
-2.020259901287235,1.952588901971496,11.215359646482444,4.356522153831538
-2.00073401226752,2.1243133961854,11.25892486802076,4.293829976889947
-1.979490878305666,2.2985463280994614,11.301863167789659,4.225600857991704
-1.9565054150246712,2.475155729043906,11.344119176369576,4.151043694424071
-1.9317538577342321,2.6540117931646243,11.385629613313817,4.069331743943564
-1.905213739802586,2.8349882344924446,11.426322930753253,3.979612035518854
-1.8768638574576615,3.0179659798621454,11.466119051108441,3.881014274676921
-1.84668419765904,3.2028390552412573,11.50492919385521,3.7726594979040167
-1.8146558071066274,3.3895225012037087,11.54265578883425,3.65366866291184
-1.7807605820945904,3.5779621062191156,11.579192475463367,3.5231713213249893
-1.7449809610323992,3.7681456632173718,11.614424188676617,3.3803145285563603
-1.7072995044002255,3.9601153210162,11.648227333962181,3.224272231087913
-1.6676983511900634,4.1539803953365295,11.68047005627306,3.0542555762324404
-1.6261585472366982,4.349929688199233,11.711012612035384,2.8695249770123055
-1.582659250354706,4.548241881008757,11.739707861805508,2.6694054305393466
-1.5371768315446184,4.749291822204319,11.766401916110901,2.453307675619454
-1.4896839133225752,4.953549379782716,11.790934992867095,2.2207594965108677
-1.440148419524748,5.1615657552864045,11.813142587832203,1.9714541394606566
-1.388532761971884,5.373939455448212,11.83285712922681,1.7053268171689886
-1.3347933674174017,5.5912501166891655,11.8499103973985,1.4226761142738733
-1.27888086625051,5.8139427481007795,11.864137158541238,1.124355139888178
-1.2207414387695021,6.042137797589735,11.87538070994012,0.8120671815415692
-1.1603200607936048,6.2753352576567965,11.883501381755536,0.48880995445388353
-1.0975667082170368,6.511978887341749,11.888389481300075,0.1595136185958707
-1.0324469193436194,6.7488621089508944,11.889984617486034,-0.16810797582996795
-0.9649582982541105,6.980415091598364,11.888303537727735,-0.48256185570758864
-0.8951541473381268,7.198048608140151,11.883477919170659,-0.7677074212242696
-0.8231736612567253,7.389961621624675,11.875800844958416,-1.0026241674225316
-0.7492740450404786,7.5420556115933834,11.86577460328419,-1.163164199733029
-0.6738534889245448,7.640520314077916,11.854142961286861,-1.2260126696351266
-0.5974482857837656,7.675818183408515,11.84188283459051,-1.1748430444033602
-0.5206901039496805,7.646326707197206,11.830134404146477,-1.00599134476316
-0.4442268368777085,7.559213835945695,11.820074490698845,-0.7300386336627491
-0.36863469851825154,7.427682540455623,11.812774104362218,-0.3679335744867236
-0.2943578731136953,7.266381882293982,11.809094768617351,0.055798197835515984
-0.2216940542907555,7.087666291410699,11.809652750595706,0.5188106029435133
-0.1508173913766485,6.899969063655785,11.81484085662514,1.0036881607416364
-0.08181770074009066,6.707898075543323,11.824877738232557,1.4981478219151132
-0.014738719984657436,6.513115122923013,11.839859216451709,1.994013752932343
0.0503924312445727,6.315319774068871,11.859799353981032,2.4859655664309677
0.11354562898526141,6.1130500852800385,11.884659009645341,2.970510191389953
0.1746761298380618,5.904250944603885,11.914364111559241,3.4452764761458687
0.23371863928410064,5.686651725306108,11.9488168763207,3.9085878052008485
0.2905851565371617,5.458009958899327,11.987902754372708,4.359235472682564
0.345165256126155,5.216266585395764,12.031495109099534,4.79638421777958
0.39732792198011263,4.959643279104821,12.07945895127733,5.219558691295968
0.4469243547711608,4.68670056981243,12.13165453819029,5.628674666739312
0.4937913604692851,4.396368169669907,12.187941284857683,6.02408934103805
0.5377550421659842,4.0879555263993606,12.248182178268063,6.4066515546195335
0.5786345974299778,3.7611504576518713,12.312248693814258,6.777735911261502
0.6162461020064965,3.4160164443442285,12.380026052926873,7.1392447376008175
0.6504062664499388,3.0530049721780745,12.45141850030288,7.493557879025646
0.6809363161717196,2.673009047042356,12.526354079093137,7.843400773589036
0.7076664066421431,2.277499137446637,12.604788086829027,8.191583379238805
0.7304413980166095,1.8688048679303744,12.686703920621415,8.54053335384352
0.7491294466959132,1.4506340835218359,12.77210925415985,8.891506186029522
0.7636357875311316,1.0289451221395032,12.861024316020146,9.243315102630472
0.7739252387525266,0.6132701333508435,12.95345746704645,9.590434365654092
0.780057940086035,0.2184272670936096,13.04936181070299,9.920525516973083
0.7822422127569711,-0.1339280936254441,13.14856706587272,10.212072925030446
0.7809029318207167,-0.4154226957098762,13.250687795123024,10.43410319317758
0.7767487048636179,-0.595213443467163,13.3550288270548,10.551272281421543
0.7707965704289463,-0.6497769825143455,13.460541549869015,10.536267753265719
0.7642988006038028,-0.5745125471092475,13.565904227401672,10.384646180503351
0.7585536751327103,-0.3880181066770211,13.669750689206706,10.120079125419133
0.7546734940659401,-0.12399312368303478,13.770951480460898,9.783599186670402
0.7534335628291098,0.18249358910095165,13.868787472327602,9.416043364102181
0.7552584987201193,0.5042093064892244,13.962947905968624,9.046936431447568
0.7603005917850115,0.823713599778794,14.0534172702831,8.6928778334624
0.7685377277827995,1.1312950010846525,14.140346048617724,8.360845048274946
0.779850677793646,1.4221769875554782,14.223954499100474,8.052094489765885
0.7940724476692008,1.694367281794916,14.304475443998133,7.765002258204279
