th1 (rad),w1 (rad/s),th2 (rad),w2 (rad/s),a1 (rad/s^2),a2 (rad/s^2)
1.4851913562950778,-2.4005164325033865,4.770749967133653,0.8499751203431758,-8.947419353471012,1.7551969572794446
1.461186191970044,-2.4899906260380966,4.779249718337084,0.8675270899159703,-8.650106835266135,2.350796834211132
1.436286285709663,-2.576491694390758,4.787924989236243,0.8910350582580816,-8.315987927895216,3.0229622747604212
1.4105213687657554,-2.65965157366971,4.796835339818824,0.9212646810056858,-7.950769726405868,3.765071749665343
1.3839248530290582,-2.7391592709337687,4.806047986628881,0.9589153985023392,-7.561948034051588,4.568026422938406
1.3565332603197204,-2.8147787512742846,4.815637140613904,1.0045956627317232,-7.158626936396161,5.420585116690583
1.3283854728069775,-2.8863650206382463,4.825683097241222,1.058801513898629,-6.751229352009875,6.30987981696885
1.2995218226005951,-2.953877314158345,4.836271112380208,1.1219003120683175,-6.3511158010720905,7.222085117243312
1.2699830494590116,-3.017388472169066,4.847490115500891,1.1941211632407507,-5.97014002596887,8.143196846288635
1.239809164737321,-3.0770898724287545,4.859431327133299,1.275553131703637,-5.6201789903708175,9.059861322406817
1.2090382660130334,-3.133291662332463,4.872186858450335,1.3661517449277052,-5.312679647447739,9.960189799760919
1.1777053493897087,-3.18641845880694,4.885848375899612,1.4657536429253144,-5.058264738645636,10.834494329700561
1.1458411648016393,-3.2370011061933965,4.900505912328865,1.57409858622232,-4.866434626954255,11.675891637363415
1.1134711537397053,-3.285665452462939,4.916246898191088,1.6908575025959542,-4.745392584680968,12.480739337203442
1.080614499215076,-3.333119378309749,4.933155473217047,1.8156648959679886,-4.702008674156812,13.248891178422637
1.0472833054319783,-3.380139465051317,4.951312122176727,1.948153807752215,-4.741924517794795,13.983781573731356
1.0134819107814652,-3.4275587102292646,4.970793660254249,2.0879916234895286,-4.869790049536984,14.692371006096437
0.9792063236791726,-3.4762566107246347,4.991673576489144,2.234915333550493,-5.0896155826262,15.385000400333652
0.9444437575719262,-3.5271527665508966,5.014022729824649,2.3887653375538296,-5.405219319336797,16.07521286903739
0.9091722299064172,-3.5812049597442646,5.037910383200187,2.5495174662442035,-5.820752047189148,16.779605536746846
0.8733601803089746,-3.639412480216156,5.063405557862629,2.717313521611672,-6.341286775930214,17.517773803712256
0.836966055506813,-3.702825347975458,5.090578693078746,2.8924912596487946,-6.973470559016848,18.312407596237808
0.7999378020270584,-3.7725600535656265,5.119503605675234,3.0756153356111726,-7.726247591244641,19.189596201390202
0.7622122014914021,-3.849822529478073,5.150259759031346,3.2675112976250746,-8.611675687320067,20.179397066639652
0.7237139761966214,-3.9359392863512737,5.182934872007597,3.469305268291471,-9.645870997887888,21.316725110183057
0.6843545833331086,-4.032397996330152,5.217627924690512,3.682472519393302,-10.850125916751724,22.642620885456125
0.6440306033698071,-4.140899255497669,5.254452649884445,3.908898728247863,-12.252247352912356,24.205951762123664
0.6026216108148305,-4.263421729026793,5.293541637166923,4.1509582458690994,-13.888144552460444,26.065573013513397
0.5599873935245625,-4.402303174551397,5.335051219625614,4.411613976004233,-15.803628317809865,28.292884605572457
0.5159643617790486,-4.560339457729496,5.379167359385656,4.694542822059957,-18.056198677761248,30.974469716300813
0.47036096720175363,-4.7409014445071085,5.426112787606256,5.004287519222966,-20.71613777257032,34.21387281968812
0.42295195275668257,-4.948062822232812,5.476155662798485,5.3464262474198465,-23.865123899131568,38.1300604780984
0.37347132453435444,-5.186714061224127,5.529619925272684,5.72772685220083,-27.588005602944808,42.84654113843213
0.32160418392211315,-5.462594117253575,5.586897193794692,6.156192263585152,-31.94745684366797,48.45689359007921
0.2669782427495774,-5.782068685690255,5.648459116430543,6.640761199485944,-36.91810264447385,54.93413384682838
0.20915755589267482,-6.151249712134993,5.714866728425402,7.190102537954227,-42.22986476819981,61.91378004823633
0.1476450587713249,-6.573548359816991,5.786767753804945,7.809240338436591,-47.02697517477457,68.21959024787441
0.08190957517315497,-7.043818111564737,5.864860157189311,8.491436240915334,-49.23531208248386,70.98066619950468
0.011471394057507606,-7.5361712323895755,5.949774519598464,9.201242902910382,-44.814658118652176,64.58418857199818
-0.06389031826638815,-7.984317813576097,6.041786948627569,9.847084788630363,-28.37161029099317,41.5252813897943
-0.1437334964021491,-8.26803391648603,6.140257796513872,10.262337602528307,1.5515406159425167,-0.21071207293668529
-0.2264138355670094,-8.252518510326604,6.242881172539155,10.26023048179894,34.68764222076491,-46.295549663478376
-0.30893902067027545,-7.905642088118955,6.345483477357145,9.797274985164156,55.21123119618452,-74.73306790770889
-0.38799544155146504,-7.35352977615711,6.443456227208786,9.049944306087067,59.364129847738845,-80.41106830838474
-0.4615307393130361,-6.759888477679722,6.533955670269657,8.24583362300322,54.38224847706092,-73.4575378873596
-0.5291296240898333,-6.216065992909113,6.6164140064996895,7.511258244129624,46.88031095684315,-63.050150502702614
-0.5912902840189245,-5.747262883340682,6.691526588940985,6.880756739102598,39.74958247440312,-53.16864754188302
-0.6487629128523313,-5.34976705859665,6.760334156332012,6.3490702636837675,33.76902996884906,-44.86740629570502
-0.7022605834382979,-5.01207675890816,6.823824858968849,5.900396200726718,28.95346569075776,-38.150950361451834
-0.7523813510273795,-4.722542102000582,6.882828820976116,5.518886697112199,25.11734861015286,-32.75266605336311
-0.7996067720473853,-4.4713686158990535,6.938017687947238,5.191360036578568,22.05920951582261,-28.38736359235659
-0.8443204582063758,-4.2507765207408275,6.989931288313024,4.907486400655002,19.609857477184764,-24.81621294299484
-0.8868282234137841,-4.0546779459689795,7.0390061523195735,4.659324271225054,17.637904439182304,-21.85343562047251
-0.9273750028734739,-3.8782989015771565,7.085599395031824,4.4407899150203285,16.044003653604943,-19.357896514355087
-0.9661579918892454,-3.717858865041107,7.130007294182028,4.247210949876777,14.753505282767833,-17.222811992426998
-1.0033365805396566,-3.5703238122134286,7.1724794036807955,4.074982829952507,13.710133311470802,-15.367061750870546
-1.0390398186617908,-3.4332224790987205,7.21322923198032,3.9213122124438016,12.871090930751741,-13.72861017101615
-1.073372043452778,-3.304511569791203,7.252442354104758,3.78402611073364,12.203400616162043,-12.259741918485206
-1.1064171591506902,-3.1824775636295826,7.290282615212095,3.661428691548788,11.681182557748048,-10.923687868244125
-1.138241934786986,-3.065665738052102,7.326896902127583,3.5521918128663468,11.283612406046672,-9.69227140144511
-1.168898592167507,-2.9528296139916357,7.362418820256247,3.4552690988518955,10.993363654225325,-8.544288703447613
-1.1984268883074234,-2.8428959774493823,7.396971511244765,3.3698262118174194,10.795399427091162,-7.464407211391779
-1.2268558480819172,-2.7349419831784707,7.43066977336294,3.2951821397035017,10.67602664500825,-6.442416199299373
-1.254205267913702,-2.6281817167283883,7.463621594759975,3.2307579777105078,10.622163207230779,-5.472695425437999
-1.2804870850809857,-2.5219600846560803,7.49592917453708,3.1760310234561278,10.62079769508279,-4.553787272254531
-1.3057066859275466,-2.4157521077052526,7.527689484771641,3.1304931507335825,10.658641917025529,-3.6879709377662033
-1.3298642070045992,-2.309165688534997,7.558994416278977,3.0936134413559206,10.721988919087131,-2.8807501040598926
-1.352955863889949,-2.201945799344126,7.589930550692536,3.064805940315322,10.79679145315202,-2.140183877030487
-1.3749753218833902,-2.0939778848126056,7.620578610095689,3.043404101545017,10.868966838315629,-1.4760192076773115
-1.3959151007315163,-1.9852882164294494,7.651012651111139,3.028643909468244,10.924913327410803,-0.898623397262525
-1.4157679828958107,-1.8760390831553413,7.681299090205822,3.0196576754956186,10.952192674547678,-0.41776538286852005
-1.4345283737273642,-1.7665171564098645,7.7114956669607775,3.0154800216669333,10.940299218702338,-0.04134682551706811
-1.452193545291463,-1.657114164222841,7.741650467177447,3.0150665534117627,10.881406362296913,0.22577350913620048
-1.4687646869336914,-1.548300100599872,7.771801132711564,3.017324288503125,10.770967190299771,0.38269983293895626
-1.4842476879396902,-1.4405904286968743,7.801974375596596,3.0211512868325143,10.608055574899788,0.4330173467444973
-1.4986535922266588,-1.3345098729478764,7.832185888464921,3.025481460299959,10.395370108667567,0.3848141955603437
-1.5119986909561376,-1.2305561718612008,7.862440703067921,3.0293296022555625,10.138880043227298,0.2501936444395263
-1.5243042526747497,-1.1291673714289279,7.892733999090476,3.031831538699958,9.847156894342708,0.04435141466609799
-1.5355959263890389,-1.0306958024855009,7.923052314477475,3.032275052846619,9.530490752890021,-0.21563330259028815
-1.5459028844138938,-0.9353908949566007,7.953375065005941,3.0301187198207162,9.199922296731083,-0.5121053565566772
-1.5552567933634598,-0.8433916719892898,7.983676252204148,3.0249976662551497,8.866323334146173,-0.8280548982444862
-1.5636907100833526,-0.754728438647828,8.0139262288667,3.0167171172727048,8.539633251872525,-1.1481076421091805
-1.571237994469831,-0.6693321061291028,8.044093400039426,3.0052360408516128,8.228316284590765,-1.4592011302707069
-1.5779313155311219,-0.5870489432831951,8.074145760447943,2.9906440295489056,7.939058207258309,-1.7509289607767482
-1.5838018049639537,-0.507658361210612,8.104052200743432,2.973134739941138,7.676682099203557,-2.015587890072823
-1.5888783885760598,-0.43089154021857645,8.133783548142842,2.95297886104041,7.444237626915141,-2.247995529313777
-1.5931873039782456,-0.35644916394942505,8.163313336753246,2.9304989057472723,7.243207955795754,-2.4451582639944163
-1.59675179561774,-0.2840170843914675,8.192618325810718,2.906047323107328,7.0737801880735285,-2.6058644382801206
-1.5995919664616547,-0.2132792825107322,8.221678799041792,2.879988678724527,6.935134640311019,-2.7302633075969114
-1.601724759286762,-0.143927936107622,8.250478685829037,2.8526860456485577,6.825720879461757,-2.8194719902660803
-1.6031640386478383,-0.07567072731300442,8.279005546285523,2.824491325745897,6.743500891662465,-2.875235161147972
-1.6039207459209683,-0.008235718396379765,8.307250459542983,2.795738974134417,6.686150121846871,-2.899648036530761
-1.6040031031049322,0.05862578282208894,8.335207849284327,2.7667424937691094,6.651214659915682,-2.8949431371136924
-1.6034168452767112,0.12513792942124574,8.362875274222018,2.7377930623979725,6.636227638035717,-2.863335134842526
-1.6021654659824989,0.1915002058016029,8.390253204845997,2.7091597110495473,6.638790442176926,-2.806915005708847
-1.6002504639244828,0.25788811022337216,8.417344801956492,2.681090560992459,6.656625257391889,-2.727583805278707
-1.597671582822249,0.32445436279729106,8.444155707566416,2.653814722939672,6.687605345214477,-2.6270168301527637
-1.594427039194276,0.3913304162494358,8.470693854795813,2.627544554638144,6.729768756593859,-2.5066500875796756
-1.5905137350317817,0.4586281038153744,8.496969300342196,2.6024780537623475,6.78132024232133,-2.3676824265739653
-1.585927453993628,0.5264413062385876,8.522994080879819,2.578801229496608,6.840625142642127,-2.2110881155356084
-1.580663040931242,0.594847557665009,8.548782093174784,2.556690348341252,6.906198135123131,-2.0376359376425253
-1.574714565354592,0.6639095390162403,8.574348996658196,2.5363139889648267,6.976688948613202,-1.847911954711227
-1.5680754699644295,0.7336764285023722,8.599712136547845,2.5178348694177144,7.050866525846953,-1.642343952643724
-1.5607387056794058,0.8041850937608418,8.624890485242023,2.5014114298912773,7.1276026305190445,-1.4212262444903287
-1.5526968547417974,0.8754611200660323,8.649904599540935,2.487199167446374,7.20585552867255,-1.1847440002155276
-1.5439422435411372,0.9475196753527577,8.6747765912154,2.475351727444219,7.28465410781345,-0.9329966280231916
-1.5344670467876096,1.0203662164308922,8.699530108489842,2.466021761163987,7.363082609670425,-0.6660199810748134
-1.5242633846233007,1.0939970425275964,8.724190326101482,2.459361561353239,7.440266025819047,-0.38380733181346743
-1.5133234141980247,1.1683997027857869,8.748783941715015,2.4555234880351042,7.515356124483432,-0.08632916512757913
-1.5016394171701668,1.2435532640306213,8.773339176595366,2.4546601963838284,7.58751802984958,0.22644809223523885
-1.4892038845298605,1.319428444329117,8.797885778559204,2.456924677306181,7.655917253107618,0.5545442528800056
-1.4760096000865695,1.3959876168601932,8.822455025332266,2.4624701198349808,7.719707070460527,0.8979482932457485
-1.4620497239179675,1.4731846875647985,8.847079726530616,2.4714496027674384,7.778016152639971,1.2566018549642795
-1.4473178770423196,1.5509648490911982,8.87179422255829,2.484015621317081,7.8299363696536926,1.6303831686593564
-1.4318082285514075,1.6292642127877353,8.896634378771461,2.5003194530036748,7.874510721237631,2.0190912660456783
-1.4155155864235303,1.7080093200001116,8.921637573301497,2.5205103656641317,7.910721376284522,2.4224303733231203
-1.3984354932235292,1.7871165337629569,8.94684267695814,2.544734669397363,7.937477842417888,2.8399944121516274
-1.3805643278858997,1.8664913121871358,8.972290023652112,2.5731346135188793,7.953605329307488,3.271251573810668
-1.3618994147640282,1.9460273654802107,8.9980213697873,2.605847129256986,7.957833415944573,3.7155289777307132
-1.342439141109226,2.0256056996396565,9.024079841079871,2.643002419034293,7.948785182695786,4.171997477868639
-1.3221830841128295,2.1050935514666143,9.050509865270215,2.6847223938129794,7.92496702332891,4.639656739891313
-1.3011321485981633,2.1843432216999035,9.077357089208345,2.7311189612118927,7.884759410073953,5.117320779300091
-1.2792887163811641,2.263190815800643,9.104668278820464,2.7822921690048936,7.82640894570778,5.603604225805701
-1.2566568082231577,2.3414549052577205,9.132491200510513,2.8383282112629504,7.748022099939078,6.096909662556553
-1.2332422591705805,2.4189351262571113,9.160874482623143,2.899297307888516,7.647561091988588,6.59541648002968
-1.2090529079080095,2.4954107371769974,9.189867455702029,2.9652514726888124,7.522842445720858,7.097071782902848
-1.1840988005362394,2.570639161634206,9.219519970428916,3.036222190517841,7.371538805931404,7.5995839929231535
-1.1583924089198974,2.64435454969352,9.249882192334095,3.112218030447073,7.191184661647737,8.100419899920473
-1.1319488634229622,2.7162663963099973,9.281004372638565,3.1932222294462775,6.979186670895781,8.596806024144643
-1.1047861994598622,2.786058263018955,9.312936594933028,3.279190289687724,6.732839316548252,9.085735262503297
-1.0769256168296726,2.853386656184438,9.345728497829905,3.3700476423127568,6.449346638522413,9.563979894269513
-1.0483917502678282,2.9178801225696622,9.379428974253033,3.4656874412554517,6.125850776069347,10.028112112080404
-1.0192129490421316,2.9791386303303558,9.414085848665588,3.5659685623762556,5.759468005738967,10.474533313299592
-0.989421562738828,3.0367333103877456,9.44974553428935,3.6707138955092513,5.347332864380932,10.899513424493176
-0.9590542296349505,3.090206639031555,9.486452673244443,3.779709029754183,4.8866507888279385,11.299241524634166
-0.9281521632446349,3.1390731469198343,9.524249763541984,3.8927014450005246,4.374759469519949,11.669888964622356
-0.8967614317754365,3.182820741615034,9.56317677799199,4.009400334646748,3.809198787992517,12.007686033002553
-0.8649332243592862,3.220912729494959,9.603270781338457,4.129477194976774,3.1877887717719204,12.309012969615512
-0.8327240970643366,3.252790617212678,9.644565553288224,4.252567324672929,2.5087144409602082,12.57050575914191
-0.8001961908922098,3.27787776162228,9.687091226534953,4.378272382264348,1.7706157301343157,12.789176626239488
-0.767417413275987,3.295583918923623,9.730873950357596,4.506164148526743,0.9726798479778175,12.962548490818907
-0.7344615740867507,3.305310717403401,9.775935591842863,4.635789633434932,0.11473250046537657,13.088801825629389
-0.7014084669127167,3.306458042408055,9.822293488177213,4.766677651691226,-0.8026766138158642,13.166931407378359
-0.6683438864886362,3.298431276269896,9.869960264694125,4.898346965765009,-1.7781996663399755,13.196909412224215
-0.6353595737259372,3.2806492796064965,9.918943734351775,5.030316059887252,-2.8096345231222797,13.17985025516795
-0.6025530809298723,3.2525529343752737,9.969246894950647,5.162114562438931,-3.893893930194469,13.118171626987461
-0.5700275515861195,3.213613995073329,10.020868040575037,5.293296278708805,-5.027007942370699,13.015745495931851
-0.5378914116353862,3.163343915649622,10.073801003362124,5.423453733668124,-6.204167506788383,12.87803259896722
-0.50625797247889,3.101302240581738,10.128035540698805,5.552234059657796,-7.419816559267723,12.71219434819486
-0.47524495007307266,3.0271040749890608,10.183557881295384,5.679356003139745,-8.667798766802923,12.527177311257825
-0.44497390932318204,2.9404260873210317,10.240351441326782,5.804627776252323,-9.941563135052208,12.333767636947591
-0.41556964844997174,2.8410104559705096,10.298397719089305,5.927965452621799,-11.234430174603514,12.144616058170966
-0.38715954389026663,2.7286661542244746,10.357677373615523,6.0494116132035085,-12.539917376737812,11.974238373831872
-0.3598728823480219,2.6032669804570965,10.418171489747559,6.169153996941827,-13.852119690198403,11.83900141737995
-0.3338402125434509,2.4647457835551125,10.479863029716977,6.287544011115627,-15.166137891823155,11.757110151530231
-0.3091927547078998,2.313084404636881,10.542738469828134,6.40511511263093,-16.478545585537812,11.748617237905105
-0.28606191066153097,2.1482989487815027,10.606789620954443,6.522601285009981,-17.7878843114807,11.835481629198291
-0.26457892117371595,1.9704201056666957,10.672015633804543,6.640956101301963,-19.0951758750367,12.04170664418203
-0.244874720117049,1.7794683469163286,10.738425194817562,6.761373167743784,-20.40444093341848,12.393589479287328
-0.2270800366478857,1.5754239375821437,10.806038926495,6.885309062536657,-21.723211535840683,12.920111259749126
-0.21132579727206427,1.3581918222237368,10.874892017120366,7.0145101751341485,-23.063019371362323,13.65348585313375
-0.1977438790498269,1.1275616285101135,10.945037118871708,7.151045033665486,-24.43982435818436,14.629859282689319
-0.18646826276472578,0.88316338492827,11.016547569208363,7.297343626492379,-25.874307122311638,15.890094276150574
-0.17763662891544307,0.6244203137051536,11.089521005473287,7.456244569253885,-27.391858884601294,17.48045453088374
-0.17139242577839153,0.35050172485914066,11.164083451165826,7.631049114562722,-29.02191409563213,19.45275571106709
-0.16788740852980014,0.060282583902819376,11.240393942311453,7.825576671673393,-30.795887542900463,21.863043236844856
-0.16728458269077195,-0.24767629152618525,11.318649709028186,8.044207104041842,-32.742207810275666,24.76682736797102
-0.16976134560603381,-0.5750983696289419,11.399091780068604,8.291875377721553,-34.87541963136243,28.20684509387705
-0.17551232930232324,-0.9238525659425663,11.48201053384582,8.573943828660322,-37.173417798147085,32.18531264857416
-0.1847508549617489,-1.2955867439240372,11.567749972132424,8.895796955146064,-39.53165644714868,36.60533294207807
-0.19770672240098927,-1.6909033083955238,11.656707941683884,9.261850284566846,-41.67523084332551,41.15474968496162
-0.21461575548494452,-2.107655616828779,11.749326444529553,9.673397781416462,-43.00320375481167,45.09559911221228
-0.23569231165323232,-2.537687654376896,11.846060422343717,10.124353772538585,-42.3575007218089,46.94455651511593
-0.26106918819700126,-2.9612626615949846,11.947303960069103,10.593799337689745,-37.82561420805332,44.186861493347756
-0.2906818148129511,-3.3395188036755177,12.053241953446001,11.035667952623223,-27.027220518144706,33.63256155909637
-0.32407700284970625,-3.609791008856965,12.163598632972233,11.371993568214187,-8.721932777237491,13.56062975873451
