th1 (rad),w1 (rad/s),th2 (rad),w2 (rad/s),a1 (rad/s^2),a2 (rad/s^2)
2.7911371246591488,-0.1927778203550594,3.504030885653814,-2.8153676980927242,-2.91036127301889,5.651942540849203
2.789209346455598,-0.2218814330852483,3.4758772086728866,-2.758848272684232,-3.1399117512118218,5.6123953505440145
2.7869905321247455,-0.25328055059736654,3.4482887259460444,-2.7027243191787917,-3.357060165129761,5.568702596109143
2.784457726618772,-0.28685115224866414,3.4212614827542565,-2.6470372932177004,-3.56177511020675,5.51990670150747
2.7815892150962855,-0.32246890335073164,3.3947911098220795,-2.5918382262026256,-3.7541166075677133,5.465226321105653
2.778364526062778,-0.3600100694264088,3.368872727560053,-2.537185962991569,-3.934250058472817,5.404070618235584
2.774764425368514,-0.39935257001113694,3.3435008679301377,-2.4831452568092134,-4.102455205416661,5.336047055401276
2.7707708996684026,-0.44037712206530355,3.3186694153620455,-2.4297847862552007,-4.25912968118687,5.260962135073299
2.7663671284477496,-0.48296841887717223,3.2943715674994936,-2.3771751649044677,-4.404787059189973,5.178814970913871
2.7615374442589777,-0.527016289469072,3.270599815850449,-2.325387015195329,-4.540049652111672,5.0897840142169075
2.7562672813642872,-0.5724167859901887,3.2473459456984957,-2.27448917505316,-4.6656366085076755,4.994207664333613
2.7505431135043854,-0.6190731520752655,3.224601053947964,-2.2245470984098237,-4.78234810017243,4.892559816655062
2.744352381983633,-0.6668966330769898,3.202355582963866,-2.175621500243273,-4.891046557696533,4.785421620914253
2.737683415652863,-0.7158070986539551,3.1805993679614333,-2.1277672840341304,-4.9926359887710765,4.673450824306776
2.730525344666323,-0.7657334585416659,3.159321695121092,-2.0810327757910625,-5.088040405633174,4.557350061136718
2.7228680100809064,-0.8166138625979976,3.1385113673631815,-2.0354592751796954,-5.178182305957539,4.437835338932494
2.7147018714549263,-0.868395685657573,3.1181567746113847,-1.9910809217903704,-5.263962013402527,4.315605784674024
2.7060179145983505,-0.9210353057915982,3.098245965393481,-1.9479248639436302,-5.346238511091939,4.191315482751162
2.6968075615404343,-0.9744976909025176,3.078766716754045,-1.9060117091161186,-5.425812214836213,4.065547987448447
2.687062584631409,-1.0287558130508798,3.0597065996628836,-1.8653562292416341,-5.503409951713601,3.938793852681467
2.6767750265009003,-1.083789912568016,3.0410530373704674,-1.8259682907148194,-5.579672248498098,3.811431310354906
2.66593712737522,-1.1395866350529968,3.022793354463319,-1.7878539776112703,-5.655142903271701,3.6837100594604726
2.6545412610246903,-1.1961380640857138,3.0049148146872064,-1.7510168770166656,-5.730260717573829,3.5557380078073817
2.6425798803838334,-1.253440671261452,2.9874046459170396,-1.715459496938592,-5.805353206670664,3.427470738400192
2.6300454736712187,-1.3114942033281587,2.9702500509476537,-1.68118478955459,-5.880632079819305,3.2987034499350627
2.616930531637937,-1.3703005241263517,2.953438203052108,-1.6481977550552394,-5.956190286396484,3.169065139675534
2.6032275263966738,-1.4298624269903166,2.9369562255015556,-1.616507103658484,-6.032000451789232,3.0380148493091337
2.5889289021267707,-1.490182431508209,2.9207911544649705,-1.5861269551653927,-6.107914572719625,2.904839871629488
2.5740270778116887,-1.5512615772354053,2.9049298849133165,-1.5570785564490979,-6.183664898756923,2.7686559091176814
2.5585144620393345,-1.6130982262229745,2.8893590993488254,-1.529391997357921,-6.25886598880087,2.628409275812893
2.5423834797771048,-1.6756868861109833,2.874065179375246,-1.5031079045997922,-6.333017992097558,2.4828813324468326
2.525626610915995,-1.7390170660319588,2.8590341003292483,-1.4782790912753239,-6.405511256797968,2.330695432857305
2.5082364402556756,-1.8030721785999386,2.844251309416495,-1.4549721369467508,-6.475632409189826,2.170326728303148
2.490205718469676,-1.8678285026918369,2.8297015880470275,-1.4332688696637192,-6.542572067616993,2.000115216515378
2.4715274334427577,-1.9332542233680068,2.8153688993503905,-1.4132677174985655,-6.6054343510728915,1.8182824253239145
2.4521948912090776,-1.9993085668787356,2.801236222175405,-1.3950848932453264,-6.6632483084146825,1.6229520783302553
2.43220180554029,-2.0659410499628823,2.787285373242952,-1.3788553724620238,-6.71498132612673,1.4121749956789007
2.4115423950406614,-2.1330908632241496,2.7734968195183316,-1.364733622505235,-6.759554468514881,1.183958332501557
2.39021148640842,-2.2006864079092985,2.759849483293279,-1.3528940391802193,-6.795859564944014,0.9362990511382921
2.368204622329327,-2.2686450035587384,2.746320542901477,-1.3435310486688363,-6.822777688881849,0.667221266417779
2.34551817229374,-2.336872780447557,2.7328852324147888,-1.3368588360046585,-6.839198482386039,0.374816808592669
2.3221494444892645,-2.405264765271417,2.719516644054742,-1.333110667918732,-6.844039581660836,0.05728803601276584
2.29809679683655,-2.4737051610880254,2.706185537375555,-1.3325377875586042,-6.83626521365637,-0.2870083734018364
2.2733597452256697,-2.5420678132245893,2.692860159499969,-1.3354078712926225,-6.814902883347611,-0.6595181833386172
2.247939067093424,-2.6102168420580654,2.6795060807870428,-1.3420030531260088,-6.779056980843591,-1.06144862676208
2.2218368986728434,-2.6780074118665014,2.6660860502557826,-1.3526175393936295,-6.727918129864659,-1.4937314844677663
2.1950568245541784,-2.745286593165148,2.652559874861846,-1.3675548542383071,-6.660767192211164,-1.9569919312770574
2.167603958622527,-2.8118942650872594,2.638884326319463,-1.3871247735510777,-6.576973045530406,-2.4515246473885357
2.1394850159716543,-2.8776639955425636,2.6250130785839523,-1.411640020024963,-6.475983560938931,-2.977278325669618
2.1107083760162286,-2.942423831151953,2.6108966783837024,-1.441412803281659,-6.357309606420675,-3.5338492155056196
2.081284137704709,-3.0059969272161595,2.5964825503508857,-1.4767512954367152,-6.220502362145143,-4.120483773554883
2.0512241684325474,-3.068201950837611,2.5817150373965188,-1.517956133172264,-6.0651247158520025,-4.736089899830357
2.0205421489241715,-3.128853197996131,2.566535476064796,-1.5653170321705676,-5.890717966336792,-5.379255690205411
1.98925361694421,-3.1877603776594987,2.5508823057430905,-1.6191095890726217,-5.696765458395976,-6.048274198524428
1.957376013167615,-3.2447280322434584,2.5346912098523644,-1.679592331057866,-5.482655068626541,-6.741172426727047
1.9249287328451805,-3.2995545829297237,2.5178952865417856,-1.7470040553251365,-5.247642636286798,-7.4557426844073245
1.8919331870158833,-3.352031009292592,2.5004252459885343,-1.8215614821692097,-4.99081848062813,-8.189574590604437
1.8584128769229573,-3.401939194098873,2.482209631166842,-1.903457228075254,-4.711079074852495,-8.940086315859036
1.8243934849819685,-3.449049984847398,2.4631750588860895,-1.9928580912338443,-4.407105779129046,-9.704554144899276
1.7899029851334944,-3.4931210426386885,2.443246477973751,-2.089903632682837,-4.0773523011056785,-10.480140026444174
1.7549717747071076,-3.5338945656497454,2.422347441646923,-2.1947050329472786,-3.720042284989608,-11.263917403871975
1.7196328290506102,-3.5710949884996412,2.40040039131745,-2.307344206985998,-3.3331781600709736,-12.052896223859818
1.6839218791656139,-3.604426770100351,2.37732694924759,-2.4278731692245965,-2.9145621309710097,-12.844048537553851
1.6478776114646103,-3.6335723914100613,2.3530482175553438,-2.556313654600135,-2.461829981686321,-13.634336484376393
1.6115418875505096,-3.6581906912269244,2.3274850810093426,-2.6926570194438986,-1.9724982035931085,-14.420744632477357
1.5749599806382404,-3.6779156732628553,2.300558510814904,-2.836864465768672,-1.4440248502267383,-15.20031859632387
1.5381808239056118,-3.6923559217651225,2.272189866157217,-2.9888676517319106,-0.8738844768313345,-15.970211514826287
1.5012572646879607,-3.7010947665334357,2.242301189639898,-3.1485697668801733,-0.25965755739528285,-16.727739300070304
1.4642463170226263,-3.7036913421073887,2.210815491971096,-3.3158471598808763,0.40086507857527365,-17.470444490365193
1.4272094036015524,-3.699682691321636,2.1776570203722874,-3.490551604784528,1.1095619181836076,-18.196166971294858
1.390212576688336,-3.6885870721398,2.1427515043244423,-3.6725132744974767,1.8678430582546413,-18.903117637524993
1.353326705966938,-3.6699086415572535,2.1060263715794676,-3.8615444508727266,2.676492559903583,-19.589948074739304
1.3166276195513655,-3.643143715958218,2.0674109270707404,-4.05744393162012,3.535486530750257,-20.25580528444938
1.2801961823917833,-3.6077888506507154,2.0268364877545393,-4.260001984464614,4.443779772318742,-20.900354979712816
1.2441182938852762,-3.563351052927528,1.9842364679098932,-4.469005534261742,5.3990494647318,-21.52374951232554
1.2084847833560008,-3.50936055828021,1.9395464125672757,-4.684243029384997,6.397377821628707,-22.12650630372892
1.1733911777731987,-3.445386780063923,1.8927039822734257,-4.905508092422286,7.43284613758156,-22.70924873496744
1.1389373099725595,-3.371058318688107,1.8436489013492028,-5.13260057977196,8.496999257275517,-23.27224254211487
1.1052267267856783,-3.286088326115352,1.7923228955514832,-5.365323005193109,9.578121378794346,-23.814635500104995
1.072365843524525,-3.1903071123274085,1.7386696654995522,-5.603469360194159,10.660240979327916,-24.333275632512233
1.0404627724012507,-3.0837047025341295,1.6826349718976106,-5.846802116519282,11.721755934671567,-24.82094423864288
1.0096257253759093,-2.966487143187414,1.6241669507324177,-6.095011558905711,12.73354513665123,-25.26380046403304
0.9799608539440352,-2.8391516918209017,1.5632168351433606,-6.347649563546041,13.656424575995343,-25.63781097184861
0.9515693370258261,-2.702587446060948,1.4997403395079003,-6.604027673264527,14.43784608183805,-25.903971534164288
0.9245434625652167,-2.5582089852425676,1.433700062775255,-6.86306738860617,15.007889266641332,-26.00229929200645
0.898961372712791,-2.408130092576154,1.3650693888891934,-7.123090381526235,15.27497327908916,-25.845033602818134
0.8748800717870294,-2.2553803597852626,1.293838485073931,-7.381540717554416,15.122478703272352,-25.310454794900313
0.8523262681891768,-2.104155572752539,1.220023077898387,-7.634645265503419,14.40878386231881,-24.240449865256288
0.8312847124616514,-1.960067734129351,1.1436766252433528,-7.8770497641559825,12.975032555308701,-22.44739283367229
0.8116840351203578,-1.8303174085762641,1.064906127601793,-8.101523692492705,10.666499264973906,-19.738105729482026
0.7933808610345952,-1.7236524159265252,0.983890890676866,-8.298904749787525,7.37253031853285,-15.96178065237728
0.7761443368753299,-1.6499271127411967,0.9009018431789907,-8.458522556311298,3.0831478403431567,-11.080021621633627
0.7596450657479179,-1.6190956343377652,0.8163166176158777,-8.569322772527634,-2.0545383499299557,-5.237797654247812
0.7434541094045403,-1.6396410178370646,0.7306233898906014,-8.621700749070113,-7.7135733859652555,1.2075583248529762
0.7270576992261696,-1.7167767516967172,0.6444063823999002,-8.609625165821583,-13.431175084356871,7.741553293002827
0.7098899317092024,-1.851088502540286,0.5583101307416843,-8.532209632891556,-18.719486967263766,13.830664556771746
0.6913790466837996,-2.0382833722129234,0.47298803441276877,-8.39390298732384,-23.193916396938658,19.078757141739207
0.6709962129616703,-2.27022253618231,0.3890490045395304,-8.203115415906447,-26.652505239059362,23.316873829508033
0.6482939875998472,-2.536747588572904,0.3070178503804659,-7.969946677611367,-29.076132409318017,26.59129280926003
0.6229265117141182,-2.827508912666084,0.22731838360435225,-7.704033749518767,-30.57215438935647,29.083204031416884
0.5946514225874573,-3.1332304565596485,0.15027804610916456,-7.413201709204598,-31.305527666815863,31.018262842182402
0.5633191180218609,-3.446285733227807,0.07614602901711859,-7.103019080782774,-31.447524476373864,32.60332460902568
0.5288562606895828,-3.760760977991546,0.005115838209290846,-6.776985834692518,-31.149209116672218,33.997061496719176
0.49124865090966735,-4.072253069158268,-0.06265402013763433,-6.437015219725326,-30.533505133214913,35.30464572872434
0.4505261202180847,-4.377588120490417,-0.12702417233488758,-6.083968762438082,-29.697075040342156,36.58441595354181
0.4067502390131805,-4.674558870893838,-0.1878638599592684,-5.718124602902664,-28.715580600649425,37.85820303914379
0.3600046503042421,-4.961714676900332,-0.24504510598829504,-5.339542572511227,-27.64885035941133,39.1210764307939
0.3103875035352388,-5.2382031804944456,-0.2984405317134073,-4.948331808203288,-26.544504321708622,40.348862681253216
0.25800547173029437,-5.503648223711532,-0.34792384979544017,-4.544843181390756,-25.4396225043889,41.50299641428168
0.20296898949317904,-5.758044448755421,-0.39337228160934773,-4.129813217247939,-24.36044286146812,42.53264523259984
0.14538854500562481,-6.001648877370102,-0.43467041378182714,-3.7044867649219406,-23.32014597768554,43.37405319560808
0.08537205623192379,-6.234850337146957,-0.4717152814310466,-3.27074623296586,-22.31473488043368,43.946957376667854
0.02302355286045421,-6.457997685951294,-0.5044227437607052,-2.8312766591991814,-21.317004512240135,44.14796125000821
-0.041556423999058734,-6.671167731073695,-0.532735510352697,-2.3897970466990994,-20.26880673192292,43.84115815585327
-0.1082681013097957,-6.873855798392925,-0.556633480819688,-1.9513854651405667,-19.072560976428495,42.84751386313999
-0.17700665929372494,-7.06458140815721,-0.5761473354710936,-1.5229103265091668,-17.584702614182024,40.93717784279587
-0.24765247337529706,-7.24042843429903,-0.5913764387361853,-1.1135385480812081,-15.616948298842933,37.83358474238271
-0.32005675771828734,-7.396597917287459,-0.6025118242169973,-0.7352027006573809,-12.955536874447224,33.24431988265028
-0.39402273689116196,-7.526153286031931,-0.6098638512235711,-0.4027595018308781,-9.41097637762045,26.936793995557228
-0.4692842697514813,-7.620263049808136,-0.6138914462418799,-0.13339156187530582,-4.903603642065665,18.86561307123488
-0.5454869002495627,-7.669299086228793,-0.6152253618606329,0.05526456883704298,0.4359747756796801,9.319645331396714
-0.6221798911118506,-7.664939338471996,-0.6146727161722625,0.14846102215101012,6.212476491391151,-1.001780027434302
-0.6988292844965706,-7.602814573558084,-0.6131881059507523,0.1384432218766671,11.831301231133102,-11.092508745275637
-0.7748574302321514,-7.484501561246753,-0.6118036737319856,0.027518134423910726,16.69165657628933,-19.935168490352517
-0.849702445844619,-7.31758499548386,-0.6115284923877465,-0.17183355047961446,20.40170921191323,-26.832681555966285
-0.9228782957994576,-7.113567903364728,-0.6132468278925427,-0.44016036603927733,22.876797858896236,-31.567836217298563
-0.9940139748331048,-6.884799924775765,-0.6176484315529355,-0.755838728212263,24.282954406012095,-34.3296381471293
-1.0628619740808625,-6.6419703807156445,-0.6252068188350581,-1.099135109683556,24.904023433555192,-35.518175441725006
-1.1292816778880188,-6.392930146380093,-0.6361981699318937,-1.454316864100806,25.02626748091324,-35.567859360190646
-1.1932109793518197,-6.14266747157096,-0.6507413385729017,-1.8099954577027124,24.87861338066401,-34.84977257744741
-1.2546376540675293,-5.89388133776432,-0.6688412931499289,-2.1584931834771863,24.619028901889717,-33.64286103905936
-1.3135764674451724,-5.647691048745423,-0.6904262249847007,-2.49492179386778,24.344268343499248,-32.1419579189667
-1.3700533779326267,-5.404248365310431,-0.7153754429233785,-2.816341373057447,24.106254866732716,-30.477899083905058
-1.424095861585731,-5.163185816643104,-0.743538856653953,-3.1211203638964977,23.927159022231056,-28.737346810794435
-1.475727719752162,-4.923914226420793,-0.774750060292918,-3.4084938320044422,23.810819882768232,-26.97818216367712
-1.52496686201637,-4.68580602759311,-0.8088349986129625,-3.6782756536412133,23.750610153107576,-25.240154199668243
-1.5718249222923013,-4.448299926062035,-0.8456177551493747,-3.930677195637896,23.734564824852118,-23.55173893436041
-1.6163079215529217,-4.210954277813514,-0.8849245271057536,-4.1661945849815,23.74860041552348,-21.9343158453007
-1.6584174643310567,-3.9734682736582787,-0.9265864729555686,-4.385537743434506,23.77845636975716,-20.404564643707314
-1.6981521470676395,-3.735683709960707,-0.9704418503899137,-4.58958338987158,23.81078730700647,-18.975725444586853
-1.7355089841672466,-3.4975758368906424,-1.0163376842886296,-4.779340644317449,23.833678612766363,-17.658147474602483
-1.770484742536153,-3.2592390507629787,-1.064131090731804,-4.955922119063474,23.836750664105566,-16.45939031867384
-1.8030771330437827,-3.020871544121923,-1.1136903119224388,-5.120516022250213,23.810947071274917,-15.384028031668974
-1.8332858484850019,-2.782762073409174,-1.164895472144941,-5.274356302566902,23.748057644429753,-14.433227341745853
-1.8611134692190936,-2.5452814969648765,-1.21763903517061,-5.418688575984361,23.639998902992392,-13.604116997887962
-1.8865662841887423,-2.3088815079349527,-1.2718259209304534,-5.5547297459632405,23.47785991532922,-12.888931554067748
-1.9096550992680918,-2.0741029087816605,-1.327373218390086,-5.683619061503918,23.250720184017055,-12.273901160266325
-1.9303961283559083,-1.8415957069414899,-1.3842094090051251,-5.806358073106581,22.94426619894305,-11.737878533458963
-1.9488120854253232,-1.6121530449520594,-1.442272989736191,-5.9237368584411705,22.539288359129742,-11.250764215490342
-1.9649336158748438,-1.3867601613607619,-1.5015103583206026,-6.036244500596074,22.010251799131893,-10.771941030502967
-1.9788012174884515,-1.1666576433694429,-1.5618728033265634,-6.143963910901103,21.32432765843155,-10.249192870089637
-1.990467793922146,-0.9534143667851274,-1.6233124424355745,-6.246455839602,20.441555650460547,-9.618978511483663
-2.0000019375899973,-0.7489988102805218,-1.6857770008315944,-6.342645624716837,19.317139392424274,-8.809401955206159
-2.0074919256928028,-0.5558274163562791,-1.749203457078763,-6.430739644268898,17.907082472526984,-7.747540612789697
-2.0130501998563655,-0.3767565916310093,-1.813510853521452,-6.508215050396795,16.178091277535177,-6.3724679521251115
-2.0168177657726756,-0.2149756788556575,-1.87859300402542,-6.571939729918046,14.121392301327308,-4.653639041642343
-2.018967522561232,-0.0737617558423844,-1.9443124013246005,-6.61847612033447,11.76756268666857,-2.610899969500271
-2.019705140119656,0.04391387102430132,-2.0104971625279453,-6.644585120029473,9.196385896099498,-0.32819911295754756
-2.019266001409413,0.1358777299852963,-2.07694301372824,-6.647867111159048,6.534425586911219,2.0487719304466325
-2.01790722410956,0.20122198585440848,-2.14342168483983,-6.627379391854582,3.9362797237018743,4.336471425539022
-2.015895004251016,0.24058478309142722,-2.209695478758376,-6.584014677599192,1.5534621619932456,6.353743273988438
-2.0134891564201016,0.2561194047113597,-2.275535625534368,-6.520477244859308,-0.4973021031683032,7.962767172065386
-2.010927962372988,0.2511463836796767,-2.340740397982961,-6.440849573138654,-2.1535209288681108,9.093786605205999
-2.0084164985361914,0.22961117439099557,-2.4051488937143475,-6.349911707086594,-3.408372939442561,9.746254813624793
-2.0061203867922814,0.19552744499656996,-2.4686480107852136,-6.252449158950347,-4.297822802199996,9.971554322188704
-2.004165112342316,0.15254921697457,-2.531172502374717,-6.15273361572846,-4.882042315255332,9.848807380724033
-2.00263962017257,0.10372879382201666,-2.5926998385320017,-6.05424554192122,-5.2286938884362035,9.463627523296802
-2.00160233223435,0.05144185493765463,-2.6532422939512137,-5.959609266688251,-5.401663810930979,8.894278366255623
-2.0010879136849735,-0.0025747831716551664,-2.7128383866180963,-5.870666483025695,-5.455374165765256,8.205154980694111
-2.00111366151669,-0.05712852482930773,-2.7715450514483533,-5.788614933218754,-5.433147441101283,7.4454216752814855
-2.001684946764983,-0.11145999924032055,-2.8294312007805407,-5.714160716465939,-5.3678809606395586,6.650459751831522
-2.002799546757386,-0.16513880884671614,-2.8865728079452,-5.647656118947624,-5.283718232181951,5.844414385097568
-2.004450934845853,-0.21797599116853567,-2.9430493691346764,-5.5892119750966485,-5.197932745523664,5.042855492319797
