th1 (rad),w1 (rad/s),th2 (rad),w2 (rad/s),a1 (rad/s^2),a2 (rad/s^2)
3.888636116923934,0.9026518752264532,5.29581433625359,-2.8566581365110904,10.21950800657322,5.710345104990601
3.8976626356761988,1.0048469552921855,5.267247754888479,-2.7995546854611844,10.029952599218516,5.335858237312857
3.9077111052291205,1.1051464812843705,5.239252208033867,-2.7461961030880557,9.872226123414203,4.944938068218554
3.9187625700419644,1.2038687425185126,5.211790247002987,-2.6967467224058703,9.747249414260875,4.536574556647517
3.9308012574671496,1.3013412366611214,5.184822779778928,-2.651380976839395,9.655974545639923,4.10944248059566
3.9438146698337606,1.3979009821175206,5.158308970010534,-2.610286552033439,9.599411395114759,3.6619258498543283
3.957793679654936,1.493895096068668,5.1322061044902,-2.5736672935348954,9.578646909769219,3.192147047132411
3.9727326306156225,1.5896815651663603,5.106469431554851,-2.541745823063571,9.59485470086244,2.6980049321498116
3.988629446267286,1.6856301121749846,5.081051973324215,-2.514765773742073,9.649291297004329,2.1772281024221485
4.005485747389036,1.782123025145028,5.055904315586795,-2.4929934927178516,9.743273496847435,1.6274522780558778
4.023306977640487,1.8795557601135022,5.030974380659616,-2.4767189699372927,9.878128555439538,1.0463346992724734
4.0421025352416216,1.9783370456678977,5.006207190960243,-2.466255622944568,10.055105114234726,0.43172392556095324
4.0618859056983005,2.078888096810245,4.981544634730797,-2.4619383836889583,10.275227476587062,-0.21808897406295755
4.082674786666403,2.1816403715761155,4.9569252508939075,-2.464119273429588,10.539068644576705,-0.9040015969058458
4.104491190382165,2.2870310580218827,4.9322840581596115,-2.4731592893986467,10.846408173019583,-1.625564197443172
4.127361500962383,2.3954951397520787,4.907552465265625,-2.4894149313730782,11.195729464417889,-2.38021075919728
4.151316452359904,2.5074524343962574,4.882658315951894,-2.513217038965051,11.583498767393973,-3.1621740409064873
4.176390976703867,2.623287422070197,4.857526145562244,-2.5448387793741163,12.003158293111838,-3.9609879140972275
4.202623850924569,2.7433190050013154,4.832077757768503,-2.5844486585150888,12.443766523932503,-4.759482029891536
4.230057040974582,2.8677566702406403,4.806233271183352,-2.632043478814004,12.888246087810316,-5.531213985265568
4.258734607676989,2.9966391311187435,4.779912836395212,-2.6873556186666594,13.31128240885343,-6.237404006730176
4.288700998988177,3.129751955207278,4.7530392802085455,-2.749729658733961,13.677099564729442,-6.823700721860559
4.31999851854025,3.266522950854572,4.725541983621206,-2.8179666659525666,13.937677939991431,-7.217591607427667
4.352663748048796,3.4058997302544864,4.69736231696168,-2.890142582026843,14.032502041050881,-7.328021931263683
4.38672274535134,3.546224750664995,4.668460891141412,-2.96342280133948,13.891554653322288,-7.049685499962503
4.42218499285799,3.685140297198218,4.638826663128017,-3.0339196563391053,13.443656524032876,-6.2750031999324545
4.459036395829973,3.819576862438547,4.608487466564626,-3.0966696883384297,12.631637269270465,-4.915941510156435
4.497232164454358,3.9458932351312517,4.577520769681242,-3.145829103439994,11.433250191416985,-2.9341691745036056
4.53669109680567,4.060225737045421,4.546062478646842,-3.17517079518503,9.882014736044935,-0.3713136884008179
4.577293354176125,4.15904588440587,4.514310770694992,-3.178883932069038,8.077478844558227,2.6356444793758165
4.618883813020184,4.239820672851453,4.482521931374302,-3.1525274872752798,6.174621092852965,5.868587222960301
4.661282019748699,4.301566883779983,4.45099665650155,-3.093841615045677,4.350938767371682,9.074408327996794
4.704297688586498,4.345076271453699,4.420058240351093,-3.003097531765709,2.7633477572868856,12.026147571681731
4.747748451301035,4.372709749026568,4.390027265033436,-2.882836056048892,1.5142928926311472,14.571661502729466
4.7914755487913006,4.38785267795288,4.361198904472947,-2.7371194410215973,0.6402837375327133,16.650884178526876
4.835354075570829,4.394255515328207,4.333827710062731,-2.5706105992363284,0.12209389265416934,18.28238888709612
4.879296630724111,4.395476454254749,4.308121604070368,-2.387786710365367,-0.09404206099354138,19.53405613399636
4.923251395266659,4.394536033644814,4.284243736966714,-2.1924461490254035,-0.07544264795954801,20.493612830887635
4.967196755603107,4.393781607165218,4.26231927547646,-1.987510020716527,0.11175461957986778,21.247658833038752
5.011134571674759,4.394899153361017,4.242444175269295,-1.7750334323861394,0.41023649494953,21.870504676071977
5.0550835632083695,4.399001518310512,4.2246938409454335,-1.5563283856254198,0.7738859184397394,22.420371816838195
5.099073578391475,4.406740377494909,4.209130557089179,-1.3321246674570377,1.1671577445721772,22.939819535439774
5.143140982166424,4.418411954940631,4.195809310414609,-1.10272647210264,1.5631811065315573,23.458003785822303
5.18732510171583,4.434043766005947,4.1847820456935825,-0.868146434244417,1.9415992185709317,23.993354980122618
5.231665539375889,4.453459758191656,4.176100581351139,-0.6282128844431908,2.286623522369449,24.556005350016946
5.276200136957806,4.47632599341535,4.169818452506707,-0.3826528309430213,2.5854652673184333,25.149738124389525
5.32096339689196,4.502180646088535,4.165991924197277,-0.13115544969912607,2.827154477583287,25.773449968965668
5.365985203352845,4.530452190864367,4.164680369700286,0.1265790499905306,3.001696867110645,26.42220672065304
5.411289725261489,4.560469159535474,4.165946160200192,0.390801117197061,3.099506494286831,27.08799537094279
5.456894416856844,4.591464224478343,4.169854171372163,0.6616810709064889,3.111058616453446,27.760269965129947
5.502809059101628,4.6225748106428775,4.176470982081227,0.9392837705577883,3.0267195654929884,28.426374358248154
5.549034807208057,4.652842006297807,4.185863819786805,1.2235475141402699,2.8367223655801923,29.07190875161039
5.595563227271034,4.681209229953609,4.198099294928208,1.5142666016563737,2.5312659208660993,29.68109240925646
5.64237531957057,4.7065218891622695,4.213241960944772,1.8110775257489382,2.1007213271365,30.23716229520172
5.689440538462193,4.7275291024336346,4.231352736202261,2.1134491487009552,1.5359313426735663,30.72283605908353
5.7367158294865295,4.74288841586037,4.2524872276892705,2.4206775092917905,0.8285886985601334,31.120857140754957
5.784144713645134,4.751174302845971,4.276694002782189,2.73188608069934,-0.028323746870582926,31.414629233422396
5.831656456673593,4.750891065377266,4.304012863589182,3.046032373033564,-1.040052422335728,31.588936697454866
5.879165367327365,4.740490541153909,4.334473187319517,3.3619217400081127,-2.209578958888425,31.630736826766828
5.926570272738904,4.718394751565024,4.368092404719598,3.678229108275781,-3.537145451653243,31.529999501683967
5.973754220254555,4.683023297048492,4.404874695802356,3.993529103292621,-5.019837445272001,31.28056031897879
6.020584453225039,4.632824922595772,4.444809986835282,4.306334706482408,-6.6512673352098535,30.880945548022208
6.066912702450997,4.566312249243673,4.487873333900106,4.615144161962631,-8.421403094652142,30.335122113908096
6.112575824943434,4.482098218297152,4.5340247755197325,4.918495383101712,-10.316586462171784,29.653124211658035
6.157396807126406,4.378932353675434,4.58320972935075,5.215026625218292,-12.319780112961757,28.851511078933193
6.20118613066316,4.255734552545816,4.635359995602933,5.503541736007624,-14.411074209277825,27.95361878645585
6.243743476188619,4.111623810453038,4.690395412963009,5.783077923872183,-16.56846876414449,26.989583284035596
6.284859714293149,3.945939122811593,4.748226192201731,6.052973756712539,-18.768929729546556,25.996132478314546
6.324319105521265,3.7582498255161276,4.808755929768856,6.312935081495684,-20.989694706009253,25.01617102978215
6.361901603776426,3.548352878456035,4.871885280583813,6.563096791793506,-23.209780557322176,24.09821073881755
6.397385132560986,3.316255072882813,4.937516248501748,6.804078899181682,-25.411622369159666,23.29572802458478
6.430547683289814,3.0621388491912165,5.005557037493564,7.037036179427529,-27.582753008470316,22.666552138654907
6.461169071781726,2.786311319106513,5.075927399287839,7.263701700814078,-29.717414653997796,22.272394604552012
6.489032184972792,2.489137172566535,5.14856441629598,7.486425646859598,-31.817972440136586,22.17860846141418
6.513923556698457,2.1709574481651694,5.223428672764577,7.708211731473741,-33.895959845601446,22.454192338090646
6.535633131180109,1.831997849709155,5.300510790079314,7.932753654854647,-35.97249041199825,23.1718858096548
6.553953109677201,1.4722729455891723,5.37983832662786,8.164472512951194,-38.07754887551463,24.40785073910579
6.568675839133093,1.091497456834026,5.461483051757372,8.408551020342252,-40.247183641755186,26.239715140717983
6.579590813701433,0.6890256204164742,5.545568561960795,8.670948171749432,-42.516579613251885,28.74029408463217
6.586481069905598,0.2638598242839553,5.632278043678289,8.958351112595754,-44.90485436832234,31.96134693584142
6.589119668148437,-0.18518871939926806,5.721861554804247,9.277964581954167,-47.38323193513373,35.89591531211505
6.587267780954445,-0.6590210387506054,5.814641200623789,9.636923735075317,-49.810670130435426,40.39712746576096
6.580677570566939,-1.1571277400549596,5.911010437974542,10.040895009732926,-51.80981228775003,45.0151711737718
6.5691062931663895,-1.67522586293246,6.011419388071872,10.491046721470644,-52.54974015619009,48.70333415770423
6.552354034537065,-2.2007232644943606,6.116329855286578,10.978080063047686,-50.44356480779169,49.397033769893056
6.530346801892121,-2.7051589125722773,6.226110655917055,11.472050400746618,-42.987470765461225,43.76452285238443
6.503295212766399,-3.1350336202268894,6.340831159924521,11.909695629270463,-27.5139867582763,28.176810747690222
6.47194487656413,-3.4101734878096526,6.459928116217226,12.191463736747364,-3.8800073662048216,2.2963943606242956
6.4378431416860336,-3.4489735614717008,6.5818427535846995,12.214427680353607,22.470532246927355,-26.8285092812018
6.403353406071316,-3.224268239002427,6.703987030388236,11.946142587541589,42.91168861778179,-48.06877622067077
6.371110723681292,-2.7951513528246092,6.823448456263652,11.46545482533488,53.180606566209505,-56.28762741073657
6.343159210153045,-2.2633452871625144,6.938103004517001,10.902578551227515,55.3729102505956,-54.6989554215325
6.32052575728142,-1.7096161846565583,7.0471287900292765,10.355588997012191,53.4424824038742,-48.665903123619245
6.303429595434854,-1.1751913606178164,7.150684679999398,9.868929965776,50.09404045704792,-41.674068213948615
6.291677681828675,-0.6742509560473372,7.249373979657158,9.452189283636512,46.59233713633754,-35.2440148107531
6.284935172268202,-0.2083275846839618,7.3438958724935235,9.099749135528981,43.387297055974244,-29.84048772390594
6.282851896421363,0.22554538587578066,7.434893363848813,8.801344258289921,40.572135123317885,-25.495958447706144
6.2851073502801205,0.6312667371089595,7.522906806431712,8.54638467381286,38.10746294828748,-22.10084646625648
6.29142001765121,1.0123413665918344,7.608370653169841,8.325376209150294,35.91531940845303,-19.517236293325034
6.301543431317128,1.3714945606763647,7.6916244152613436,8.130203846217043,33.915195891099906,-17.617176645927366
6.315258376923892,1.7106465195873637,7.772926453723514,7.954032079757769,32.03641951965372,-16.29192946396526
6.332364842119766,2.0310107147839007,7.852466774521091,7.791112785118116,30.221437128031152,-15.451095270907025
6.352674949267605,2.3332250860642123,7.930377902372273,7.636601832409046,28.42583320738696,-15.018900010481566
6.376007200128248,2.617483418138082,8.006743920696364,7.4864128323042305,26.617317280974394,-14.93029239310628
6.402182034309629,2.883656590947826,8.081608049019406,7.337109908373168,24.77447155068244,-15.127714086161335
6.431018600219107,3.1314013064546504,8.154979148103138,7.185832767511554,22.885488245849302,-15.558736845183693
6.462332613283654,3.3602561889131435,8.226837475778254,7.030245399059718,20.946925223544547,-16.17452100928092
6.495935175172786,3.569725441148589,8.297139929768852,6.868500188966908,18.962454066114116,-16.92896954214471
6.531632429584271,3.75934998180973,8.365824931658521,6.699210493545461,16.941578163303284,-17.77842889543381
6.569225929402369,3.9287657634427626,8.432817036593976,6.5214262045911235,14.89832058438981,-18.68178601217168
6.608513587036796,4.07774896928666,8.498031298639887,6.334608344469407,12.849905449758184,-19.6008184475464
6.649291076729663,4.206248023784243,8.561377382084581,6.138600159993943,10.815473927084822,-20.500669075404936
6.691353556967506,4.3144027630550905,8.62276338368452,5.933593469239893,8.814883782641404,-21.350337247516325
6.734497584598057,4.402551600881504,8.682099318376919,5.72009009676473,6.867639575775236,-22.123103123464652
6.778523100606872,4.471227996639257,8.739300219344566,5.498859065530084,4.991991057923225,-22.796828788910002
6.823235380573265,4.52114790721849,8.794288809999866,5.270890777640984,3.204223161829463,-23.354105853860798
6.8684468596454495,4.553190138836785,8.846997717776276,5.037349719102376,1.5181453785664991,-23.782241854227482
6.9139787610338175,4.56837159262245,8.897371214967299,4.799527300560101,-0.055225950000139835,-24.073095207173125
6.959662476960042,4.567819333122448,8.9453664879729,4.55879634848837,-1.5078100502806493,-24.22278005138742
7.005340670291266,4.552741232619641,8.990954451457783,4.316568547974495,-2.834453757150032,-24.231268430710834
7.050868082617463,4.524396695048141,9.034120136937528,4.074255863667387,-4.032801620628873,-24.10191905222806
7.096112049567944,4.484068678841853,9.074862695574202,3.8332366731451066,-5.103073009754937,-23.840960652436404
7.140952736356363,4.433037948744303,9.113195062305653,3.5948270666207427,-6.047773508683193,-23.45695513974103
7.185283115843806,4.372560213657471,9.14914333297186,3.3602575152233323,-6.871365034427056,-22.960262137755212
7.22900871798038,4.303846563313201,9.182745908124094,3.1306548938457803,-7.5799157026814,-22.36252293288446
7.2720471836135125,4.228047406286387,9.214052457062552,2.907029664516936,-8.180746972831692,-21.676178392828177
7.314327657676376,4.14623993655807,9.243122753707722,2.690267880588654,-8.682092243990612,-20.914032207271976
7.355790057041957,4.059419014118164,9.270025432513608,2.4811275585159343,-9.092777933419423,-20.08886774860401
7.396384247183138,3.9684912347839694,9.294836708098767,2.280238881029894,-9.421935158905809,-19.213123901595537
7.436069159530978,3.8742718831949112,9.317639096909065,2.088107642013939,-9.67874746525216,-18.298632364926238
7.474811878362926,3.7774844085423895,9.338520173329204,1.9051213183646765,-9.872237595234186,-17.356416247617783
7.51258672244835,3.678762032590048,9.35757138651285,1.7315571558884986,-10.011094141851919,-16.396547377309606
7.54937434277425,3.578651091171529,9.374886958071736,1.5675916821154026,-10.103537077712566,-15.428057721964404
7.585160853685966,3.477615720394403,9.39056287489289,1.4133111048957585,-10.157219681342301,-14.458898796048858
7.61993701088991,3.37604352358098,9.404695985941848,1.2687221169352698,-10.179163293766493,-13.495941925634297
7.65369744612572,3.274251890643315,9.4173832071112,1.1337626976789268,-10.175720640844892,-12.54501178075552
7.686439965032153,3.172494684234866,9.42872083408799,1.0083125798713717,-10.15256312002357,-11.610945596490925
7.718164911874502,3.0709690530346303,9.438803959886704,0.8922031239064624,-10.114687424820797,-10.69767091049363
7.7488746024048485,2.9698221787864223,9.447725991125768,0.7852264148015261,-10.066437102843391,-9.808295339534608
7.778572824192713,2.8691578077579885,9.455578255273783,0.68714346140618,-10.011535044357212,-8.945202793558678
7.807264402270293,2.7690424573144163,9.462449689887846,0.5976914334705932,-9.953123411592557,-8.110151484751833
7.834954826843437,2.6695112231984908,9.468426604222552,0.5165899186230748,-9.893808085114484,-7.304370050382082
7.861649939075422,2.570573142347346,9.473592503408783,0.443546218119254,-9.83570527493272,-6.528649011707414
7.887355670498895,2.4722160895980188,9.478027965589975,0.37825972800217983,-9.780488485032823,-5.783425597867728
7.912077831394875,2.3744112047476906,9.481810562869997,0.3204254720235026,-9.72943450690475,-5.06886065268713
7.935821943442352,2.2771168596786433,9.485014817590232,0.2697368654966313,-9.683467536870266,-4.3849069078278085
7.958593112039138,2.1802821843099407,9.487712186245197,0.22588779641835321,-9.64320085819388,-3.731368352652834
7.980395933882238,2.083850175728002,9.489971064209382,0.18857411289182488,-9.608975802794976,-3.1079507713086283
8.001234435639518,1.987760417700052,9.4918568053383,0.1574946051787386,-9.580897913690881,-2.514303766441667
8.021112039816519,1.8919514385631433,9.493431751390087,0.13235156751432192,-9.558870375458087,-1.9500547632664944
8.04003155420215,1.7963627348085625,9.49475526706523,0.11285101988165698,-9.542624874676358,-1.4148356033782095
8.057995181550236,1.7009364860617988,9.495883777264046,0.09870266384787489,-9.531750104623773,-0.9083024089044698
8.075004546410854,1.605618985015561,9.496870803902524,0.0896196397588302,-9.525718147361896,-0.43014943604584666
8.09106073626101,1.5103618035419422,9.497767000300113,0.08531814539837172,-9.523908960193761,0.019882348121951065
8.10616435429643,1.4151227139400047,9.498620181754097,0.08551696887959123,-9.525633169928778,0.4420012338657119
8.12031558143583,1.3198663822407168,9.499475351442893,0.08993698121824835,-9.53015334417154,0.8363645649331807
8.133514245258239,1.2245648487990015,9.500374721255076,0.09830062686758015,-9.536703869687376,1.2030816697393008
8.145759893746229,1.1291978101021278,9.501357727523752,0.11033144356497315,-9.544509528438594,1.542219266848525
8.15705187184725,1.033752714817742,9.502461041959402,0.1257536362334584,-9.552802825677285,1.853808722942913
8.167389398995427,0.938224686560969,9.503718578321736,0.14429172346288752,-9.56084009395109,2.1378545863510294
8.176771645861036,0.8426162856214581,9.505161495556365,0.1656702693263978,-9.56791637337191,2.394343869032552
8.18519780871725,0.746937121887739,9.50681819824963,0.18961370801672334,-9.573379052367498,2.6232556033344157
8.192667179936128,0.6512033313640639,9.508714335329797,0.2158462640500675,-9.576640243897636,2.8245702551502703
8.199179213249769,0.5554369289250876,9.510872797970297,0.24409196660157018,-9.577187868665238,2.9982786303468303
8.20473358253902,0.4596650502384352,9.513313717636313,0.27407475290503847,-9.574595417722847,3.1443899644194144
8.209330233041404,0.3639190960612067,9.516054465165363,0.3055186525492326,-9.568530370522854,3.262938934459983
8.212969424002017,0.26823379235597816,9.519109651690854,0.3381480418938324,-9.558761249528757,3.3539913763124938
8.215651761925576,0.17264617986069059,9.522491132109792,0.37168795565695734,-9.545163298041352,3.4176485276229047
8.217378223724182,0.07719454688027706,9.52620801166636,0.4058644409331864,-9.527722773477707,3.454049649606528
8.218150169192985,-0.018082680854500016,9.530266656075693,0.4404049374292517,-9.506539854115278,3.463372907862265
8.217969342384439,-0.1131480793956528,9.534670705449985,0.47503866650787435,-9.48183016389859,3.4458344173080384
8.216837861590482,-0.20796638103463871,9.539421092115063,0.5094970106809548,-9.453924928220403,3.401685380602388
8.214758197780137,-0.30250563031684274,9.544516062221872,0.5435138644869787,-9.423269784598544,3.331207275668618
8.211733141476968,-0.39673832816282817,9.549951200866742,0.5768259372436648,-9.390422286607832,3.2347050782761957
8.20776575819534,-0.49064255102890647,9.555719460239178,0.6091729880264267,-9.35604815753976,3.112498541537861
8.202859332685051,-0.5842030326043041,9.561811190119442,0.6402979734418053,-9.320916371614276,2.9649115962160355
8.197017302359008,-0.6774121963204468,9.56821416985386,0.6699470894039656,-9.285893163947994,2.7922599834377486
8.190243180395804,-0.7702711279599268,9.5749136407479,0.6978696892383431,-9.251935093932065,2.594837283354967
8.182540469116205,-0.8627904788992474,9.581892337640284,0.7238180620718928,-9.220081307624975,2.3728995572713374
