th1 (rad),w1 (rad/s),th2 (rad),w2 (rad/s),a1 (rad/s^2),a2 (rad/s^2)
1.9041621124596997,-0.4048037999163306,3.0673470482948404,-2.9421796645397964,-5.548969646077773,1.3223296939877232
1.9001140744605365,-0.4602934963771083,3.0379252516494426,-2.9289563675999193,-5.621558926264363,1.152266884399055
1.8955111394967654,-0.516509085639752,3.0086356879734435,-2.9174336987559286,-5.685243055441281,0.9736172638448286
1.8903460486403678,-0.5733615161941648,2.979461350985884,-2.9076975261174804,-5.739531086648547,0.7856771737439471
1.8846124334784262,-0.6307568270606503,2.9503843757247092,-2.899840754380041,-5.783935769083158,0.5878036174860313
1.8783048652078198,-0.6885961847514819,2.9213859681809087,-2.8939627182051804,-5.8179780459777035,0.37941888688244263
1.871418903360305,-0.7467759652112589,2.892446340998857,-2.890168529336356,-5.8411911212560135,0.16001477286651805
1.8639511437081924,-0.8051878764238191,2.863544655705493,-2.888568381607691,-5.85312405546539,-0.07084372967116606
1.855899264943954,-0.8637191169784729,2.834658971889416,-2.8892768189044027,-5.853344880480996,-0.31351528220599956
1.8472620737741694,-0.9222525657832829,2.8057662037003723,-2.8924119717264625,-5.841443255374853,-0.5682796525223341
1.8380395481163365,-0.9806669983370314,2.776842083983108,-2.8980947682516858,-5.817032721573922,-0.8353357415352649
1.8282328781329662,-1.0388373255527705,2.747861136300591,-2.9064481256670383,-5.779752652867421,-1.114800136295144
1.8178445048774385,-1.0966348520814448,2.7187966550439207,-2.9175961270299897,-5.729270033898143,-1.4067061011816908
1.806878156356624,-1.1539275524204262,2.689620693773621,-2.9316631880418065,-5.665281238615978,-1.7110028836825888
1.7953388808324198,-1.210580364806586,2.660304061893203,-2.9487732168786325,-5.587514017219724,-2.0275551777102834
1.7832330771843539,-1.2664555049787833,2.6308163297244165,-2.9690487686557354,-5.495729936192139,-2.356142555961751
1.770568522134566,-1.3214128043407047,2.601125842037859,-2.992610194215353,-5.389727551411225,-2.6964586524474585
1.757354394091159,-1.375310079854817,2.5711997400957056,-3.019574780739828,-5.269346629721942,-3.0481098453103925
1.7436012932926108,-1.4280035461520364,2.5410039922883074,-3.0500558791929318,-5.134473770931883,-3.410613155966839
1.7293212578310904,-1.4793482838613552,2.5105034334963783,-3.0841620107526,-4.985049821480028,-3.783393040268566
1.7145277749924768,-1.5291987820761554,2.4796618133888524,-3.121995941155286,-4.821079514821829,-4.1657766970525705
1.6992357871717152,-1.5774095772243737,2.4484418539772994,-3.1636537081258114,-4.642643823819177,-4.556987454896598
1.6834616913994715,-1.6238360154625655,2.4168053168960415,-3.2092235826747775,-4.449915569013404,-4.956135714676821
1.667223331244846,-1.6683351711526995,2.3847130810692936,-3.258784939821546,-4.243178895169925,-5.3622068192219325
1.6505399795333189,-1.7107669601043987,2.3521252316710783,-3.312407008013765,-4.022853307784645,-5.77404508807371
1.633432309932275,-1.7509954931822451,2.3190011615909407,-3.370147458894502,-3.7895230509104123,-6.190333092398183
1.6159223550004524,-1.7888907236913492,2.2852996870019955,-3.432050789818484,-3.5439727050862206,-6.6095650520367535
1.598033447763539,-1.8243304507422113,2.2509791791038105,-3.498146440338852,-3.287229983179626,-7.0300130171190895
1.5797901432561168,-1.8572027505740076,2.215997714700422,-3.5684465705100425,-3.020616790861005,-7.449684260723448
1.5612181157503766,-1.8874089184826177,2.1803132489953216,-3.642943413117277,-2.7458096769417644,-7.866268077340559
1.5423440265655504,-1.9148670152520353,2.143883814864149,-3.7216060938906828,-2.464910793842518,-8.277069990994029
1.52319535641303,-1.9395161231904605,2.106667753925242,-3.804376793800623,-2.180530368241784,-8.678931287344643
1.5038001951811255,-1.9613214268728782,2.068623985987236,-3.8911661066740693,-1.895881368305651,-9.068131891027017
1.4841869809123966,-1.9802802405559348,2.0297123249204954,-3.9818474255843395,-1.614886432733303,-9.44027505576929
1.4643841785068372,-1.9964291048832679,1.989893850664652,-4.0762501761420324,-1.342296037855859,-9.790153326531215
1.4444198874580045,-2.0098520652618266,1.9491313489032316,-4.174151709407345,-1.0838151069348902,-10.11159705318659
1.4243213668053862,-2.0206902163311753,1.9073898318091582,-4.27526767993921,-0.8462325386851812,-10.39730975114585
1.4041144646420745,-2.029152541718027,1.864637155009766,-4.3792407774506685,-0.6375441365547637,-10.638699252645306
1.3838229392248942,-2.0355279830835746,1.8208447472352594,-4.485627769977121,-0.4670538507748303,-10.825720323968003
1.3634676593940585,-2.0401985215913228,1.7759884695354882,-4.5938849732168014,-0.34543091158150147,-10.946753571772067
1.3430656741781453,-2.043652830707138,1.7300496198033202,-4.703352508934522,-0.28469145813860547,-10.988556991855003
1.322629145871074,-2.046499745288524,1.683016094713975,-4.813238078853072,-0.2980634083304896,-10.93633961611057
1.3021641484181887,-2.049480379371829,1.6348837139254442,-4.9226014750141776,-0.3996843912439797,-10.774019229416176
1.2816693446244705,-2.053477223284269,1.5856576991753024,-5.030341667308339,-0.6040779421708558,-10.484733906658562
1.2611345723916279,-2.0595180027059774,1.535354282502219,-5.135189006374925,-0.9253580402591158,-10.051673592946722
1.240539392364568,-2.0687715831085685,1.4840023924384698,-5.2357057423043925,-1.3761331512409078,-9.459274503380746
1.2198516765334824,-2.0825329146209777,1.431645335015426,-5.3302984873382,-1.9661248184350473,-8.694767100793227
1.1990263473872727,-2.1021941628053282,1.378342350142044,-5.417246158346132,-2.700585581770351,-7.749983539433286
1.1780044057592194,-2.1292000186230315,1.3241698885585826,-5.494745993740465,-3.57869098878683,-6.623219475468134
1.1567124055729892,-2.1649869285109,1.269222428621178,-5.560978188495146,-4.592171385740615,-5.320832360498012
1.1350625362878801,-2.210908642368306,1.2136126467362265,-5.614186512100126,-5.7245070345199425,-3.8581869708198977
1.112953449864197,-2.2681537127135054,1.1574707816152252,-5.6527683818083245,-6.95099411234574,-2.259580761424788
1.090271912737062,-2.337663653836963,1.100943097797142,-5.675364189422573,-8.239870524987648,-0.5569325792937058
1.0668952761986923,-2.4200623590868395,1.0441894559029161,-5.68093351521551,-9.55447582985623,1.2127118888268549
1.0426946526078238,-2.515607117385402,0.987380120750761,-5.668806396327241,-10.856163846455232,3.0104881364373908
1.0175385814339697,-2.6241687558499542,0.9306920567874886,-5.638701514962867,-12.107479523480633,4.799217234493227
0.9912968938754702,-2.7452435510847604,0.8743050416378599,-5.590709342617935,-13.275037375566447,6.546416713758369
0.9638444583646225,-2.8779939248404247,0.8183979482116805,-5.525245175480352,-14.331629575782252,8.22626548636677
0.9350645191162182,-3.0213102205982474,0.763145496456877,-5.442982520616685,-15.257308478208067,9.820261124070608
0.9048514169102357,-3.173883305380328,0.7087156712507101,-5.344779909375979,-16.039442450418992,11.31663396606307
0.8731125838564324,-3.334277729884518,0.6552678721569504,-5.231613569715348,-16.671945507431253,12.708829118031101
0.8397698065575873,-3.5009971849588304,0.6029517364597969,-5.1045252785350375,-17.15398001615799,13.993474654504604
0.8047598347079989,-3.67253698512041,0.5519064836744466,-4.964590531989991,-17.488428315403365,15.168229583420391
0.7680344648567948,-3.8474212682744438,0.5022605783545467,-4.812908236155787,-17.680358861240254,16.229798974672544
0.7295602521740504,-4.024224856886846,0.45413149599298885,-4.6506102464090615,-17.735619719134256,17.172275156634562
0.6893180036051819,-4.201581054078189,0.40762539352889826,-4.4788874948427155,-17.65961101818691,17.985856453389264
0.6473021930644001,-4.378177164260058,0.3628365185804711,-4.299028930308823,-17.456236022291073,18.655929458615333
0.6035204214217995,-4.552739524482969,0.3198462292773829,-4.112469635722669,-17.127011916929646,19.162480805134873
0.5579930261769698,-4.724009643652265,0.27872153292015617,-3.9208448276713206,-16.670333122725623,19.479824566308363
0.5107529297404472,-4.890712974879522,0.23951308464344295,-3.726046582008237,-16.08091648693047,19.576684314412045
0.46184579999165193,-5.051522139748826,0.2022526188233606,-3.5302797388641163,-15.349513200825236,19.416746568825133
0.41133057859416366,-5.205017271757079,0.16694982143471943,-3.336112273175865,-14.463038944773949,18.959893798311086
0.3592804058765929,-5.349647661204818,0.13358869870296078,-3.146513335192754,-13.405337446455222,18.16440926637965
0.3057839292645447,-5.4837010356693705,0.10212356535103323,-2.9648692425289576,-12.158826879875967,16.990483139832058
0.250946918907851,-5.60528930446813,0.07247487292574366,-2.794964411130637,-10.707240207681663,15.405275319603899
0.19489402586316967,-5.712361706544947,0.04452522881443729,-2.640911657934598,-9.039504345097315,13.389524457663766
0.1377704087977202,-5.80275674999592,0.018116112235091308,-2.5070164133579604,-7.154464995818675,10.945172811517308
0.079742841297761,-5.874301399954107,-0.006954051898488297,-2.3975646852427874,-5.065671317052368,8.102734203964959
0.020999827298219934,-5.924958113124631,-0.03092969875091617,-2.3165373432031378,-2.804927012588588,4.9263820609969855
-0.038249753833026374,-5.953007383250517,-0.054095072182947554,-2.2672735225931677,-0.4230751031754411,1.5144027847615606
-0.09777982766553155,-5.957238134282272,-0.07676780740887923,-2.252129494745552,2.013160118042184,-2.006764062540719
-0.15735220900835428,-5.93710653310185,-0.09928910235633476,-2.272197135370959,4.428368780916599,-5.495001121957738
-0.21672327433937277,-5.892822845292684,-0.12201107371004435,-2.3271471465905367,6.748289706714317,-8.80930127946828
-0.2756515027922996,-5.82533994822554,-0.1452825451759497,-2.4152401593852195,8.909707812788092,-11.826829736756231
-0.333904902274555,-5.7362428700976595,-0.16943494676980192,-2.5335084567527817,10.867694404082185,-14.455942017105476
-0.39126733097553157,-5.627565926056838,-0.19477003133732973,-2.6780678769238366,12.598500691878609,-16.642361795380165
-0.44754299023609995,-5.501580919138052,-0.2215507101065681,-2.844491494877638,14.098042992415232,-18.368204213674517
-0.5025587994274805,-5.360600489213899,-0.24999562505534448,-3.0281735370143834,15.377276927270936,-19.645668846560675
-0.5561648043196195,-5.20682771994119,-0.28027736042548834,-3.22463022547999,16.456300022279752,-20.50816487729522
-0.6082330815190313,-5.042264719718393,-0.31252366268028825,-3.429711874252942,17.35876998794951,-21.00135722771196
-0.6586557287162152,-4.868677019838898,-0.3468207814228177,-3.6397254465300617,18.107568833400965,-21.17569138822063
-0.7073424989146042,-4.687601331504888,-0.3832180358881183,-3.851482360412268,18.72198589753812,-21.080973254670383
-0.7542185122296531,-4.500381472529507,-0.421732859492241,-4.062292092958971,19.216254249766585,-20.762893817608244
-0.7992223269549481,-4.308218930031841,-0.4623557804218307,-4.269921031135054,19.599083296866212,-20.261061114007113
-0.8423045162552665,-4.112228097063179,-0.5050549907331812,-4.472531642275125,19.873815511440156,-19.60804245545342
-0.8834267972258982,-3.9134899419487774,-0.5497803071559324,-4.668612066829659,20.038910984993255,-18.829005404442015
-0.922561696645386,-3.713100832098845,-0.596466427824229,-4.856902120874079,20.088568290331246,-17.94168345524086
-0.9596927049663745,-3.5122151491955322,-0.6450354490329697,-5.036318955426487,20.01339226609589,-16.95653167015993
-0.9948148564583298,-3.3120812265345734,-0.6953986385872346,-5.2058842721280865,19.801108069885984,-15.87705984803565
-1.0279356687236756,-3.1140701458357136,-0.7474574813085155,-5.364654870608443,19.43739477949751,-14.700432800722593
-1.0590763701820327,-2.9196961980407385,-0.8011040300146,-5.511659198615669,18.90696946809002,-13.418507440032188
-1.08827333216244,-2.7306265033598383,-0.8562206220007567,-5.645844273015991,18.195085685937762,-12.019524806198973
-1.1155795971960385,-2.5486756465004605,-0.9126790647309165,-5.76603952107798,17.289599368425925,-10.490667409064509
-1.141066353661043,-2.375779652816201,-0.9703394599416963,-5.870946195168625,16.18367088426966,-8.821589206214188
-1.164824150189205,-2.2139429439735046,-1.0290489218933827,-5.959162087230768,14.878984839534168,-7.008786403696585
-1.18696357962894,-2.0651530955781627,-1.0886405427656904,-6.029249951267733,13.389074790573751,-5.060292224207569
-1.2076151105847215,-1.9312623476724253,-1.1489330422783677,-6.079852873509809,11.74199518647061,-2.9997186766053026
-1.2269277340614457,-1.8138423958077192,-1.2097315710134657,-6.109850060275862,9.981333554562092,-0.868322985021649
-1.245066158019523,-1.7140290602620982,-1.2708300716162244,-6.118533290126079,8.164612101243613,1.2761761307150619
-1.262206448622144,-1.632382939249662,-1.3320154045174852,-6.105771528818928,6.358650686309527,3.3646487656554274
-1.2785302780146406,-1.5687964323865669,-1.3930731198056745,-6.072125041162374,4.63239720289492,5.324883970509236
-1.2942182423385062,-1.5224724603576176,-1.4537943702172982,-6.018876201457282,3.0487183092641743,7.091331890433357
-1.3094429669420824,-1.491985277264976,-1.513983132231871,-5.9479628825529485,1.657164861478822,8.61371028740129
-1.3243628197147321,-1.4754136286501878,-1.5734627610574006,-5.861825779678935,0.4894468193362164,9.86228682938589
-1.339116956001234,-1.4705191604568255,-1.6320810188541899,-5.7632029113850765,-0.4416090857435691,10.828885220040652
-1.353822147605802,-1.4749352513142613,-1.6897130479680407,-5.65491405918467,-1.139982835645047,11.524112718560893
-1.3685715001189447,-1.4863350796707118,-1.7462621885598875,-5.539672931999061,-1.622409292486781,11.972278538587643
-1.3834348509156518,-1.5025591725955796,-1.801658917879878,-5.419950146613185,-1.9136839247784914,12.205678414920264
-1.3984604426416076,-1.5216960118433644,-1.85585841934601,-5.297893362463982,-2.0423740206692647,12.25952612236218
-1.4136774027600412,-1.5421197520500571,-1.9088373529706497,-5.17529810124036,-2.037505081751067,12.16818945252597
-1.4290986002805417,-1.5624948028675678,-1.9605903339830533,-5.0536162067151,-1.9263614251152152,11.962844725602972
-1.4447235483092173,-1.58175841711872,-2.0111264960502044,-4.93398775945907,-1.7332676675503778,11.670334408816698
-1.4605411324804045,-1.5990910937942238,-2.060466373644795,-4.817284415370903,-1.4791039477086656,11.312888086725263
-1.4765320434183467,-1.6138821332713105,-2.108639217798504,-4.70415553450365,-1.1813015225277115,10.908376624158898
-1.4926708647510598,-1.6256951484965876,-2.15568077314354,-4.595071768262061,-0.8541116316559937,10.470840082416371
-1.5089278162360258,-1.6342362648131474,-2.201631490826161,-4.490363367437897,-0.5090006180565231,10.011112742501226
-1.5252701788841572,-1.6393262709937126,-2.24653512450054,-4.390252240012885,-0.15507812549314284,9.537439279021433
-1.5416634415940942,-1.640877052248644,-2.290437646900669,-4.294877847222671,0.2004942466054055,9.056027391879347
-1.5580722121165806,-1.63887210978259,-2.3333864253728955,-4.204317573303878,0.5521391841183216,8.57151529495602
-1.5744609332144066,-1.6333507179414068,-2.3754296011059344,-4.118602420354318,0.8955534613365153,8.087351677558706
-1.5907944403938208,-1.6243951833280417,-2.4166156253094777,-4.0377289035787305,1.2274507028719817,7.606095587658076
-1.6070383922271012,-1.6121206762993219,-2.456992914345265,-3.96166794770215,1.5453519854437385,7.129647736810188
-1.6231595989900944,-1.5966671564448844,-2.4966095938222863,-3.890371470334048,1.847417464749363,6.659425516966902
-1.6391262705545433,-1.5781929817973908,-2.5355133085256267,-3.823777215164379,2.1323120561507465,6.196493161937685
-1.6549082003725173,-1.5568698612358833,-2.5737510806772703,-3.761812283545002,2.3990987910890196,5.741656938220329
-1.6704768989848762,-1.5328788733249932,-2.6113692035127203,-3.704395714162799,2.647154357373042,5.2955335378513535
-1.685805687718126,-1.5064073297512628,-2.648413160654348,-3.6514403787842853,2.876102265172523,4.858598232639551
-1.7008697610156387,-1.4776463070995376,-2.684927564442191,-3.60285439645789,3.08575994248553,4.431217945458904
-1.7156462240866341,-1.4467887076746824,-2.72095610840677,-3.5585422170033008,3.276096806501717,4.013673229048417
-1.7301141111633809,-1.4140277396096652,-2.756541530576803,-3.5184054847128166,3.4472009712219487,3.606172204400794
-1.7442543885594775,-1.3795557298974457,-2.791725585423931,-3.4823437626688087,3.599252745961362,3.20885877063849
-1.758049945858452,-1.3435632024378321,-2.826549023050619,-3.450255174962424,3.7325034704768925,2.821816822903724
-1.7714855778828302,-1.3062381677330632,-2.861051574800243,-3.4220370067333867,3.847258538627984,2.445071772224862
-1.7845479595601608,-1.2677655823467835,-2.895271944867577,-3.397586289011138,3.9438637007834068,2.078590323484487
-1.7972256153836286,-1.2283269453389494,-2.9292478077576884,-3.3768003857762934,4.022693920429253,1.72227921107084
-1.809508884837018,-1.188100006134657,-2.9630158116154512,-3.359577593665585,4.084144204841638,1.375983397601576
-1.8213898848983645,-1.1472585640862405,-2.996611587552107,-3.3458177596895693,4.128621943045828,1.0394840942879449
-1.832862470539227,-1.1059723446557823,-3.030069765149003,-3.3354229187466897,4.1565403742340745,0.7124968504146546
-1.8439221939857848,-1.0644069409134416,-3.06342399433647,-3.3282979502425434,4.168312882214129,0.3946698751273391
-1.8545662633949191,-1.0227238120913003,-3.0967069738388955,-3.32435125149127,4.16434787072085,0.08558269051862583
-1.8647935015158321,-0.9810803333840917,-3.1299504863538083,-3.323495424586084,4.145044023819016,-0.2152548341023178
-1.874604304849673,-0.9396298931459016,-3.163185440599669,-3.325647972927107,4.110785797553739,-0.5084030544979549
-1.884000603781132,-0.8985220351703642,-3.1964419203289403,-3.3307320034720864,4.061939025209881,-0.7944927467764655
-1.8929858241328357,-0.8579026449182654,-3.229749240363661,-3.338676930939851,3.9988465502973245,-1.0742249635316974
-1.9015648505820184,-0.8179141794152922,-3.2631360096730595,-3.349419180575168,3.9218238296455743,-1.3483706040008998
-1.9097439923761714,-0.7786959411188364,-3.2966302014788114,-3.362902886615177,3.831154474548252,-1.6177697610367898
-1.9175309517873598,-0.740384396373354,-3.330259230344963,-3.379080584225545,3.727085721456105,-1.8833309118658916
-1.9249347957510934,-0.7031135391587929,-3.3640500361872183,-3.397913893344204,3.609823846018986,-2.146030018148191
-1.9319659311426813,-0.667015300698603,-3.3980291751206604,-3.4193741935256856,3.47952955618611,-2.4069095933203464
-1.9386360841496673,-0.6322200051367419,-3.4322229170559173,-3.443443289458889,3.336313422659322,-2.6670777808779085
-1.9449582842010347,-0.5988568709101487,-3.466657349950506,-3.470114067267668,3.1802314296149925,-2.927707465109306
-1.9509468529101361,-0.5670545566139988,-3.5013584906231827,-3.499391141918761,3.0112807570038274,-3.1900354044450703
-1.956617398476276,-0.5369417490439605,-3.5363524020423704,-3.531291495963212,2.82939594011977,-3.4553613351631633
-1.9619868159667155,-0.5086477896427628,-3.5716653170020027,-3.5658451093148433,2.6344455953110537,-3.7250469372040276
-1.9670732938631432,-0.4823033336896523,-3.607323768095151,-3.6030955786868835,2.4262299562396343,-4.000514480982269
-1.9718963272000398,-0.45804103412725594,-3.64335472388202,-3.643100723496706,2.2044795374497057,-4.283244879947084
-1.9764767375413124,-0.4359962387527589,-3.6797857311169873,-3.685933172296177,1.9688553367869128,-4.5747747524674685
-1.98083669992884,-0.41630768538488977,-3.716645062839949,-3.7316809198208514,1.7189511124230799,-4.876691940872262
-1.984999776782689,-0.399118174260659,-3.7539618720381576,-3.780447839229574,1.4542984325979251,-5.190628735441839
-1.9889909585252956,-0.38457518993467976,-3.7917663504304535,-3.832354126583992,1.174375407443407,-5.5182517944413
-1.9928367104246425,-0.3728314358602457,-3.8300898916962933,-3.887536644528405,0.8786202855359426,-5.861247422352181
-1.996565024783245,-0.3640452330048863,-3.868965258141577,-3.946149118751927,0.5664514488867678,-6.221300448144024
