th1 (rad),w1 (rad/s),th2 (rad),w2 (rad/s)
0.32665744900390786,3.124129865319925,3.036848900195854,-2.723316065593336
0.3578987476571071,3.0575161613862534,3.0096157395399206,-2.8348844411756713
0.38847390927096964,2.991166132236665,2.981266895128164,-2.950313116187469
0.4183855705933363,2.9267076562097945,2.951763763966289,-3.0676242764695703
0.44765264715543424,2.865491162234878,2.9210875212015934,-3.185298695175846
0.476307558777783,2.808593606093072,2.889234534249835,-3.302266810987208
0.5043934948387138,2.756843266196448,2.856211866139963,-3.417870803697564
0.5319619275006783,2.710856841840695,2.8220331581029874,-3.5318108313376464
0.5590704959190852,2.6710818486910313,2.7867150497896107,-3.6440861102905315
0.5857813144059956,2.6378392791693552,2.7502741886867055,-3.7549384220894066
0.6121597071976891,2.6113634086554582,2.7127248044658114,-3.8648027102297475
0.6382733412842436,2.591837200610398,2.674076777363514,-3.974267097678523
0.6641917132903477,2.5794229038608765,2.6343341063867287,-4.084043025238703
0.6899859423289564,2.5742881702485674,2.593493676134342,-4.19494521830396
0.7157288240314421,2.5766284311574448,2.551544223951302,-4.307880691393911
0.7414951083430166,2.5866864469021444,2.508465417037363,-4.423845837908208
0.767361972812038,2.6047699575437298,2.464226958658281,-4.5439306845677985
0.7934096723874753,2.6312682630412203,2.418787651812603,-4.669329496086587
0.8197223550178875,2.6666683548170678,2.372094356851737,-4.801356987471084
0.8463890385660582,2.711570874951358,2.324080786977026,-4.9414693185682514
0.8735047473155718,2.7667055944587546,2.2746660937913434,-5.091288636001017
0.9011718032601593,2.8329450766490214,2.2237532074313333,-5.252628902234326
0.9295012540266495,2.911313345927016,2.17122691840899,-5.4275185911848425
0.9586143874859197,3.0029830226681136,2.116951732497142,-5.618211588794436
0.9886442177126008,3.109248265588153,2.0607696166091976,-5.827169605534293
1.0197367003684823,3.2314498103325144,2.0024979205538544,-6.056984574033161
1.0520511984718075,3.370808818638109,1.9419280748135228,-6.310182848724917
1.0857592866581887,3.5280929400989502,1.8788262463262737,-6.588807150015015
1.1210402160591781,3.702985784891693,1.8129381748261235,-6.893599539230441
1.1580700739080951,3.892963771648724,1.7440021794338192,-7.222513731586684
1.1969997116245823,4.091445184984711,1.6717770421179523,-7.56822598489206
1.2379141634744295,4.28512363978784,1.5960947822690317,-7.914508267522861
1.2807653998723079,4.45111690953318,1.516949699593803,-8.232308439994835
1.3252765689676396,4.556336161721848,1.4346266151938547,-8.478824583916486
1.370839930584858,4.563616634254223,1.3498383693546898,-8.605810480596638
1.4164760969274002,4.447244308443452,1.2637802645487235,-8.580707647598398
1.4609485400118347,4.2096760480509765,1.1779731880727395,-8.409238131193716
1.5030453004923445,3.882351064409775,1.0938808067608023,-8.135986218331798
1.5418688111364423,3.5076250244012366,1.0125209445774843,-7.819291688689718
1.5769450613804545,3.1199384855811045,0.9343280276905871,-7.5056571997096855
1.6081444462362655,2.739395827420133,0.8592714556934903,-7.22149769286796
1.6355384045104668,2.374542938082211,0.7870564787648107,-6.977390517338795
1.659283833891289,2.027158315523859,0.7172825735914227,-6.774833817649095
1.6795554170465277,1.695798192152206,0.6495342354149317,-6.611122751775856
1.6965133989680496,1.377797723382893,0.5834230078971732,-6.48203388575161
1.7102913762018785,1.0702500021955665,0.518602669039657,-6.383088546319675
1.7209938762238342,0.7704349502650343,0.45477178357646025,-6.310063844761193
1.7286982257264845,0.47598185449256986,0.3916711451288483,-6.259145887612846
1.7334580442714103,0.1849128224731479,0.3290796862527199,-6.226926867772977
1.7353071724961417,-0.10436183385494413,0.26681041757499013,-6.21034194307344
1.7342635541575924,-0.39306385897894164,0.20470699814425572,-6.206589285139848
1.7303329155678029,-0.6820691847728587,0.14264110529285723,-6.213051939321334
1.7235122237200744,-0.971926966068521,0.08051058589964388,-6.227228947125046
1.7137929540593893,-1.2628746495539258,0.01823829642839342,-6.2466783756736675
1.70116420756385,-1.5548500703647943,-0.04422848732834326,-6.268973007223766
1.685615706860202,-1.8475023768345942,-0.10691821740058091,-6.291668813166663
1.667140683091856,-2.140203862250949,-0.16983490553224756,-6.3122861834966875
1.6457386444693465,-2.4320647616732454,-0.23295776736721444,-6.3283038274914585
1.6214179968526141,-2.721952841375201,-0.296240805642129,-6.337165127647004
1.5941984684388621,-3.0085192021533356,-0.35961245691859905,-6.336296446500616
1.564113276417329,-3.2902311585708133,-0.4229754213836052,-6.323136450909861
1.5312109648316208,-3.5654123806317837,-0.48620678589270383,-6.29517497516081
1.4955568410253028,-3.8322897530817595,-0.5491585356443119,-6.24999937375416
1.4572339434944852,-4.089045704464502,-0.6116585293818535,-6.185345818684597
1.41634348644984,-4.333874178696648,-0.6735119875686995,-6.0991526758541115
1.3730047446628737,-4.565038053032108,-0.7345035143272406,-5.989613025936267
1.3273543641325527,-4.780925702537122,-0.7943996445866033,-5.855223600694388
1.2795451071071815,-4.980104575768875,-0.8529518805935472,-5.694827844999054
1.2297440613494928,-5.161370023339522,-0.9099001590435377,-5.507651382873437
1.1781303611160976,-5.323788104605974,-0.9649766728722721,-5.293328717574187
1.124892480070038,-5.466731557993346,-1.017909960048014,-5.051920385044596
1.0702251644901044,-5.58990844042239,-1.06842916389846,-4.783919907400196
1.0143260800858804,-5.693383054227527,-1.116268362972462,-4.4902497450999315
0.9573922495436051,-5.777588695517692,-1.1611708604234612,-4.1722451150459765
0.8996163625884283,-5.843331567512162,-1.2028933115739209,-3.8316242122243174
0.8411830469133066,-5.891785058876519,-1.241209553696164,-3.470443278206952
0.7822651963245414,-5.924473662060091,-1.2759139864782336,-3.0910353128530907
0.7230204597039405,-5.943246234829677,-1.3068243396067645,-2.6959321386132293
0.6635879973556437,-5.950239135423021,-1.3337836609928968,-2.287770952437054
0.6040856060014135,-5.947830914540488,-1.3566613705172674,-1.8691882109216844
0.5446072968560086,-5.938591538705031,-1.3753532526264842,-1.4427053198708322
0.4852213814689583,-5.925230294034127,-1.3897803058251925,-1.010611718693251
0.42596907852861704,-5.910547326912299,-1.399886423012125,-0.5748512116976255
0.366863605259494,-5.897394049597712,-1.4056349351291013,-0.13691663022191553
0.30788966476351687,-5.888647337190227,-1.4070041014313204,0.30224382271850925
0.2490031913916146,-5.8872016640697655,-1.4039816632041353,0.7423075973662193
0.19013117475091693,-5.895982250759716,-1.396558587230473,1.1836478641118953
0.13117135224331977,-5.917981075399075,-1.3847221085893542,1.6273965833980164
0.07199154148932901,-5.956316244345306,-1.368448142755374,2.0755058558659263
0.012428379045875952,-6.014313335414474,-1.3476930841967147,2.5308122708642546
-0.04771475430826879,-6.095603794424279,-1.3223849614880723,2.997104875975679
-0.10867079225251158,-6.204227621640657,-1.2924139127283154,3.479186200647288
-0.17071306846891815,-6.344709551837264,-1.2576220507218425,3.982889571526737
-0.23416016398729078,-6.522036990539801,-1.2177931550065753,4.514957325110923
-0.2993805338926888,-6.741377294923375,-1.1726435817554661,5.082556274093957
-0.36679430684192255,-7.007178598361049,-1.1218180190145266,5.69193509345454
-0.436866092825533,-7.320915354115195,-1.0648986680799812,6.345191865301911
-0.510075246366685,-7.676108337022413,-1.001446749426962,7.033237431983369
-0.5868363297369091,-8.048751533622573,-0.9311143751071285,7.722350575653204
-0.6673238450731349,-8.383226632868151,-0.8538908693505964,8.334474190323622
-0.7511561114018164,-8.584533960886189,-0.7705461274473602,8.736521941583888
-0.8370014510106782,-8.54811217549906,-0.6831809080315213,8.782655095266854
-0.9224825727656688,-8.242058320664583,-0.5953543570788528,8.430124333590522
-1.0049031559723147,-7.753275686240964,-0.5110531137429475,7.8039400503981815
-1.0824359128347243,-7.212057012708833,-0.43301371323896565,7.090371999461419
-1.1545564829618127,-6.703257173635351,-0.36210999324435145,6.411727514198351
-1.2215890546981663,-6.2571724340130235,-0.29799271810236794,5.813284878538343
-1.2841607790382965,-5.875396889153043,-0.2398598693169845,5.299517803522358
-1.342914747929827,-5.549733071247469,-0.18686469128176092,4.860697897122422
-1.3984120786423015,-5.270341757677853,-0.13825771231053668,4.484438268893332
-1.45111549621908,-5.028396852767908,-0.09341332962160337,4.1595186120818335
-1.501399464746759,-4.816645816847398,-0.051818143500785036,3.8767489824138894
-1.549565922915233,-4.62930079254093,-0.013050653676646137,3.6288729776249116
-1.5958589308406423,-4.4617710726062505,0.023238076099602982,3.410231587812941
-1.640476641566705,-4.310400037205889,0.05734039197773239,3.2164211020148294
-1.6835806419387638,-4.172248406601434,0.08950460299788068,3.044007127972382
-1.7253031260047782,-4.044926568681603,0.11994467427760451,2.890300861647662
-1.7657523916915943,-3.9264681340834415,0.14884768289408112,2.7531880515534097
-1.8050170730324286,-3.815235572586677,0.17637956340961522,2.630998715386047
-1.8431694287582954,-3.70985013250676,0.20268955056347568,2.5224071763400477
-1.880267930083363,-3.6091400274139978,0.22791362232687615,2.4263542380569114
-1.9163593303575028,-3.512102435006566,0.2521771647074453,2.3419853551534144
-1.9514803547075685,-3.41787605912272,0.2755970182589794,2.2686002762821564
-1.9856591152987957,-3.325721885462346,0.298283021021801,2.2056108699703194
-2.018916334153419,-3.235010377631275,0.3203391297215042,2.1525047784053326
-2.0512664379297316,-3.145213771910539,0.34186417750555753,2.1088132683585514
-2.082718575648837,-3.0559023833023584,0.36295231018914303,2.0740822322464165
-2.1132775994818607,-2.966743966986166,0.3836931325116072,2.047845787360277
-2.1429450391517224,-2.877505216000666,0.40417159038520994,2.0296023605181346
-2.171720091311729,-2.7880544427804748,0.4244676139903913,2.0187935440135143
-2.1996006357395337,-2.6983644159767466,0.44465554943052643,2.0147863642640815
-2.226584279899301,-2.608514237001497,0.46480341307316725,2.0168598968468006
-2.252669422269316,-2.5186890822832875,0.48497201204163526,2.024197354266241
-2.277856313092149,-2.4291766525815017,0.5052139855842976,2.0358848177771636
-2.302148079617964,-2.3403593059204133,0.5255728337620693,2.0509176314339417
-2.325551672677168,-2.252701142896967,0.5460820100764088,2.068215087128223
-2.3480786841061376,-2.166729777248619,0.566764160947691,2.0866433964475566
-2.3697459818786237,-2.083013139746658,0.5876305949121665,2.105046110472455
-2.39057611327609,-2.0021323640978266,0.608681056016891,2.1222802132996113
-2.4105974369170684,-1.924652481370303,0.6299038581498871,2.1372552345696367
-2.4298439617307714,-1.8510931710048437,0.6512764104955835,2.1489720844260916
-2.4483548934408197,-1.7819020546466722,0.6727661313398444,2.156558079002978
-2.4661739139872862,-1.7174328913777548,0.6943317121298742,2.159294896308194
-2.4833482429010636,-1.657930532854312,0.7159246610929562,2.1566369747998
-2.4999275482296066,-1.6035237042614314,0.7374910308409541,2.148219016383209
-2.515962785272221,-1.5542257412991844,0.7589732210047863,2.133852568489502
-2.531505042685213,-1.509942513344328,0.7803117466896813,2.113512890395103
-2.546604467818656,-1.4704860576889371,0.8014468755936324,2.0873182453103145
-2.5613093283955455,-1.4355920395066035,0.8223200580467355,2.055504276065836
-2.5756652487906115,-1.4049390608284473,0.8428751008073938,2.018396198198541
-2.589714639398896,-1.3781680245286743,0.8630590627893793,1.9763812515195998
-2.6034963196441825,-1.3549001277807313,0.8828228753045753,1.9298833169659317
-2.61704532092199,-1.3347525124392499,0.9021217084742346,1.879340969988568
-2.6303928460463823,-1.3173510487163511,0.9209151181741202,1.8251896244978794
-2.6435663565335457,-1.3023401118573887,0.939167014419099,1.7678479030010266
-2.6565897576521196,-1.2893894981747687,0.9568454934491093,1.7077079875231125
-2.6694836526338674,-1.2781988113201144,0.9739225733243404,1.6451294661536333
-2.6822656407470684,-1.2684997438302752,0.9903738679858768,1.5804360730568956
-2.694950638185371,-1.2600567031369416,1.0061782287164458,1.5139146963186352
-2.7075512052167405,-1.2526662076029278,1.021317375679632,1.4458160672189155
-2.72007786729277,-1.246155426585682,1.0357755363518213,1.3763566194167867
-2.7325394215586267,-1.2403801745284961,1.0495391025459893,1.3057210963606012
-2.7449432233039115,-1.2352226034266534,1.0625963135095953,1.23406557580673
-2.757295449338178,-1.230588777334829,1.0749369692676625,1.1615206631067732
-2.769601337111526,-1.2264062602786814,1.0865521758987302,1.0881946756879692
-2.781865399714313,-1.222621806171178,1.09743412265561,1.0141766986347744
-2.794091617776025,-1.2191992058741008,1.1075758896419576,0.939539436024488
-2.806283609834766,-1.2161173213844765,1.1169712840022026,0.8643418161778799
-2.818444783048611,-1.2133683189371478,1.1256147021639813,0.7886313331381688
-2.8305784662379825,-1.2109561002228002,1.133501015495363,0.7124461233922283
-2.8426880272402104,-1.2088949226560688,1.1406254767292854,0.6358167878283165
-2.854776976466771,-1.2072081945995066,1.1469836446075685,0.5587679756582791
-2.8668490584127664,-1.2059274287631674,1.1525713243641513,0.4813197507143935
-2.878908332700398,-1.205091335952752,1.1573845218712953,0.40348876209629514
-2.8909592460599254,-1.2047450413943286,1.1614194094922583,0.32528924129998155
-2.9030066964738688,-1.2049394066213013,1.164672301905258,0.24673384723053549
-2.915056090540082,-1.2057304410804461,1.1671396403775633,0.1678343792569187
-2.9271133949508865,-1.207178788994579,1.1688179841701325,0.08860237697116097
-2.9391851828408324,-1.2093492784700617,1.1697040079398442,0.009049623740323434
-2.951278675625533,-1.212310521265461,1.1697945041772475,-0.07081143040007956
-2.9634017808381876,-1.216134552984915,1.1690863898732466,-0.15096731240074054
-2.9755631263680367,-1.2208965046917846,1.1675767167492392,-0.23140322359195595
-2.9877720914149544,-1.2266742980373018,1.1652626845133196,-0.3121027791563729
-3.0000388343953275,-1.2335483569586532,1.162141656721756,-0.39304777902082655
-3.012374317964914,-1.241601329822169,1.1582111789315477,-0.4742180003648056
-3.0247903312631355,-1.2509178165756731,1.1534689989278997,-0.5555910026745985
-3.0372995094288924,-1.261584096038224,1.1479130889011537,-0.6371419368955261
-3.0499153503892744,-1.273687848905954,1.1415416695321985,-0.7188433507694004
-3.062652228878334,-1.287317872401153,1.1343532360245046,-0.800664982910402
-3.0755254076023455,-1.3025637827506695,1.1263465861954005,-0.8825735385896467
-3.088551045429852,-1.3195157018622714,1.117520850809504,-0.9645324405860124
-3.1017462024484748,-1.338263924687704,1.107875526403644,-1.0465015488368814
-3.115128841695352,-1.3588985638333997,1.0974105109152752,-1.1284368430053104
-3.128717827333686,-1.3815091680196652,1.086126142485222,-1.2102900624872903
-3.1425329190138824,-1.406184311013239,1.074023241860349,-1.292008298831433
-3.1565947621240147,-1.433011147684129,1.0611031588720348,-1.3735335360507277
-3.170924873600856,-1.4620749338846155,1.0473678235115276,-1.4548021348890603
-3.185545622939702,-1.493458506936628,1.032819802162637,-1.5357442577812315
-3.200480208009068,-1.5272417236650553,1.0174623595848247,-1.6162832320315994
-3.2157526252457185,-1.563500853151888,1.0012995272645087,-1.6963348496506108
-3.231387633777237,-1.602307921733352,0.9843361787680025,-1.7758066033476043
-3.247410712994571,-1.6437300082440558,0.9665781127345264,-1.8545968593990514
-3.2638480130770113,-1.6878284881535024,0.9480321441405359,-1.9325939695094838
-3.2807262979585463,-1.7346582260656531,0.928706204445441,-2.009675325371667
-3.2980728802192028,-1.7842667170849182,0.9086094511917244,-2.085706361424436
-3.315915547390052,-1.8366931788133793,0.8877523875774801,-2.1605395133088536
-3.3342824791781855,-1.8919675972525303,0.8661469924443915,-2.2340131417391826
-3.353202155150711,-1.9501097316526266,0.8438068610269998,-2.30595043393208
-3.3727032524672373,-2.0111280853929707,0.820747356687679,-2.376158297366116
-3.3928145333211672,-2.075018852290105,0.7969857737140178,-2.4444262634571032
-3.413564721844068,-2.1417648503140145,0.7725415110794468,-2.5105254217071002
-3.434982370347208,-2.2113344575336606,0.7474362568623758,-2.574207407981456
-3.457095714922545,-2.2836805681935184,0.7216941827825613,-2.6352034737446672
-3.47993252060448,-2.358739590115968,0.6953421480451146,-2.6932236662882296
-3.50351991650564,-2.4364305080974895,0.6684099113822324,-2.7479561531488046
-3.527884221586615,-2.516654041581061,0.6409303498507444,-2.7990667269695777
-3.553050762002426,-2.599291928599705,0.6129396825810486,-2.8461985299175945
-3.579043681288423,-2.68420637174946,0.5844776972818726,-2.888972039337465
-3.6058857450059176,-2.7712396857122523,0.5555879768884979,-2.9269853584813124
-3.63359814186304,-2.860214189551365,0.5263181233036848,-2.9598148577638446
-3.662200283758554,-2.9509323905735796,0.49671997472604634,-2.987016212868926
-3.69170960766429,-3.0431775099009344,0.4668498125973571,-3.008125885942924
-3.7221413827632994,-3.136714402896087,0.43676855373792783,-3.022663094735553
-3.75350852679226,-3.231290930062477,0.40654192279057233,-3.030132311472548
-3.785821436092885,-3.3266398357471134,0.37624059967584683,-3.0300263279182116
-3.819087834450356,-3.4224811925720218,0.3459403363966647,-3.021829914809661
-3.853312646376076,-3.5185254685648393,0.3157220372485681,-3.0050240917560553
-3.8884979010617244,-3.6144772708918,0.2856717963310076,-2.979091006781476
-3.9246426737706424,-3.71003981426096,0.25588088626319283,-2.9435194018289756
-3.961743071913252,-3.804920152750036,0.22644569224490307,-2.8978106105988366
-3.9997922734407525,-3.89883520034329,0.1974675861389147,-2.841484997059007
-4.038780625444185,-3.9915185473228614,0.16905273616832464,-2.7740886961677953
-4.078695810917414,-4.082728056690494,0.1413118492066467,-2.6952004627080752
-4.119523091484319,-4.172254197415551,0.11435984457956594,-2.6044383704450897
-4.161245633458474,-4.25992904076949,0.08831546087511505,-2.5014660340267323
-4.2038449238661695,-4.345635814647701,0.06330080053484773,-2.385997953410684
-4.247301282012646,-4.429318882184267,0.03944082100074089,-2.2578035097253903
-4.291594470834489,-4.510993990031266,0.016862785903486985,-2.1167090780274656
-4.336704410734801,-4.590758624479611,-0.004304304876787672,-1.9625976725613143
-4.382611996979597,-4.668802327050158,-0.023930281602400814,-1.795405509514684
-4.429300020250099,-4.7454168624438395,-0.04188433669754765,-1.6151148647421878
-4.476754188874537,-4.821006207486321,-0.05803548534496953,-1.421742620020944
-4.524964250949401,-4.896096445345095,-0.07225291154517897,-1.2153239268489857
-4.573925215402851,-4.971345808304014,-0.08440615081366883,-0.9958904614901593
-4.623638673485892,-5.047555315872733,-0.09436505542857042,-0.763442782686554
-4.674114226644619,-5.1256807016572274,-0.10199948325543595,-0.5179163128452715
-4.725371033661191,-5.206846608425277,-0.10717864638388867,-0.25914042083218813
-4.777439499745444,-5.29236434923301,-0.10977005059221055,0.013210030937597539
-4.830363143237775,-5.383754870244322,-0.10963795028283457,0.2996715085191247
-4.884200691940218,-5.4827788797955055,-0.10664123519764332,0.6010580844588613
-4.939028480738173,-5.591476362845936,-0.10063065435305471,0.918538478914841
-4.994943244366633,-5.712217726387576,-0.0914452695639063,1.2537251245162904
-5.052065421630509,-5.847768264332264,-0.0789080183187434,1.6087756654365806
-5.110543104273831,-6.001365685192512,-0.0628202616643776,1.9865044577461508
-5.170556761125757,-6.176805317778191,-0.04295521708691609,2.3904942000236913
-5.232324814303539,-6.378515339918092,-0.019050275086679176,2.8251801289069647
-5.296109967702719,-6.611576328325564,0.00920152620239047,3.295839022738796
-5.362225730985975,-6.881577158203309,0.04215991642977843,3.8083265636171686
-5.431041502568008,-7.194065200258871,0.08024318206595012,4.368216648695052
