th1 (rad),w1 (rad/s),th2 (rad),w2 (rad/s),a1 (rad/s^2),a2 (rad/s^2)
2.555524062556391,-2.2509616886243795,6.259642290506615,1.7567573559590663,-7.78979316091304,-3.6565075696309206
2.533014445670147,-2.32885962023351,6.277209864066205,1.7201922802627572,-7.796929825112284,-3.2910165103535096
2.509725849467812,-2.4068289184846328,6.2944117868688325,1.687282115159222,-7.790590090655863,-2.8705900528951065
2.4856575602829656,-2.4847348193911913,6.311284608020425,1.658576214630271,-7.776623394827395,-2.40100437547016
2.460810212089054,-2.5625010533394654,6.327870370166727,1.6345661708755694,-7.760556479408952,-1.8874158004865873
2.435185201555659,-2.640106618133555,6.344216031875483,1.6156920128707035,-7.747567388136707,-1.3342488241011128
2.4087841353743236,-2.7175822920149217,6.36037295200419,1.6023495246296924,-7.742497513800761,-0.7451245661346328
2.3816083124541745,-2.795007267152929,6.376396447250487,1.5948982789683461,-7.749893705319579,-0.12281775589081398
2.353658239782645,-2.872506204206125,6.39234543004017,1.5936701014094379,-7.774073539387821,0.5307690167937928
2.3249331777405837,-2.950246939600003,6.408282131054265,1.5989777915773757,-7.819208401697859,1.2146239533106138
2.2954307083445835,-3.028439023616982,6.424271908970039,1.611124031110482,-7.889420751858943,1.9286465466608922
2.2651463181084135,-3.1073332311355712,6.440383149281144,1.630410496577091,-7.9888937043674275,2.6736777937256946
2.2340729857970576,-3.1872221681792454,6.456687254246915,1.6571472745143478,-8.121992768023183,3.4515472071330415
2.202200764115265,-3.268442095859477,6.473258726992058,1.6916627465856782,-8.2934012327444,4.265143344751267
2.1695163431566704,-3.351376108186921,6.490175354457915,1.734314180033191,-8.508272302047757,5.118514662730161
2.136002582074801,-3.4364588312073985,6.507518496258247,1.7854993266604926,-8.772402689818946,6.0170080612255585
2.1016379937627274,-3.524182858105588,6.525373489524852,1.8456694072727482,-9.092434080898922,6.967453514236252
2.0663961651816716,-3.6151071989145773,6.54383018359758,1.9153439424151106,-9.476090618694165,7.978404584543247
2.030245093192526,-3.7098681051015188,6.562983623021731,1.995127988260543,-9.93246237569162,9.060446234983434
1.9931464121415108,-3.809192728858435,6.582934902904337,2.0857324506103776,-10.472346360905581,10.226582727216174
1.9550544848529263,-3.913916192467491,6.603792227410441,2.1879982778825395,-11.108657441639512,11.492718606559178
1.9159153229282515,-4.025002766883886,6.625672210189267,2.302925463948131,-11.856920291258186,12.878242813521522
1.8756652952594126,-4.143571969796468,6.648701464828748,2.431707892083346,-12.735847308286177,14.406715708191
1.834229575561448,-4.2709304428793295,6.673018543749581,2.575775049165256,-13.76799052705752,16.106632775489977
1.7915202711326546,-4.408610348149905,6.698776294241234,2.7368413769201556,-14.980415801191262,18.012179739154387
1.7474341676511556,-4.558414506161817,6.726144708010435,2.9169631743116993,-16.405260322391488,20.163766655381277
1.7018500225895374,-4.722467109385732,6.755314339753552,3.118600840865512,-18.07984956090984,22.607862055786534
1.6546253514956801,-4.90326560499483,6.786500348162207,3.3446794614233775,-20.045665131903455,25.395098535397977
1.6055926954457318,-5.103722256313865,6.81994714277644,3.5986304467773573,-22.34466758635313,28.574501938585218
1.5545554728825932,-5.327168932177396,6.855933447244214,3.8843754661632097,-25.00989548234371,32.17945624110558
1.5012837835608193,-5.577267887000833,6.894777201905846,4.206170028574266,-28.044186100493732,36.19667653255724
1.445511104690811,-5.85770974800577,6.936838902191589,4.568136793899838,-31.375292799424304,40.50162661895719
1.3869340072107532,-6.171462676000013,6.982520270130587,4.97315306008941,-34.76719179852238,44.731932580108996
1.325219380450753,-6.519134593985237,7.032251800731482,5.4204723858905,-37.66074685624044,48.06121218592577
1.2600280345109007,-6.895742062547642,7.086456524590386,5.901084507749758,-38.937987188006886,48.865966714840404
1.1910706138854243,-7.2851219344277105,7.145467369667884,6.389744174898162,-36.7336893309656,44.46168881762434
1.1182193945411472,-7.652458827737367,7.209364811416865,6.834361063074406,-28.775349543911148,31.58982000795428
1.0416948062637734,-7.940212323176478,7.277708422047609,7.1502592631539486,-14.060935882247819,8.80093205680747
0.9622926830320087,-8.080821681998957,7.349211014679148,7.238268583722023,4.551342733028511,-19.86626598721425
0.881484466212019,-8.035308254668672,7.421593700516368,7.039605923849881,20.61085233642047,-45.2391050257822
0.8011313836653323,-7.829199731304468,7.491989759754867,6.587214873592059,29.253997905719444,-60.323833309543026
0.7228393863522876,-7.536659752247274,7.557861908490787,5.983976540496628,30.707204922407932,-65.30077680890825
0.6474727888298148,-7.229587703023194,7.617701673895754,5.330968772407545,27.953383526216204,-64.28968720216099
0.5751769117995829,-6.9500538677610315,7.671011361619829,4.6880719003859355,23.59682499884996,-60.934585429103755
0.5056763731219726,-6.714085617772532,7.717892080623688,4.078726046094898,19.041576501070292,-57.21792075238158
0.43853551694424725,-6.523669852761829,7.758679341084637,3.5065468385710825,14.857940796160925,-53.95259284360581
0.37329881841662893,-6.37509044480022,7.793744809470348,2.9670209101350244,11.211010294815468,-51.373620542123724
0.30954791396862674,-6.2629803418520655,7.823415018571698,2.4532847047137873,8.104192699503516,-49.47692141034686
0.2469181105501061,-6.18193841485703,7.847947865618836,1.9585154906103188,5.489650417947736,-48.17391539221934
0.1850987264015358,-6.127041910677553,7.867533020524939,1.4767763366881255,3.3126531670855037,-47.35420754572089
0.12382830729476027,-6.093915379006698,7.882300783891821,1.0032342612309166,1.5272078719198006,-46.908268240085164
0.06288915350469329,-6.0786433002875,7.89233312650413,0.534151578830065,0.10002282793074341,-46.73402908263307
0.0021027205018182837,-6.077643072008192,7.89767464229243,0.06681128800373431,-0.9900119261378457,-46.73761335798544
-0.05867371021826364,-6.087543191269571,7.898342755172467,-0.4005648455761201,-1.7539446815026725,-46.83240460367668
-0.11954914213095935,-6.105082638084598,7.894337106716706,-0.868888891612887,-2.195376899788806,-46.93811302540445
-0.18059996851180532,-6.127036407082486,7.885648217800577,-1.3382700218669314,-2.31316787649296,-46.980427434256995
-0.2418703325826302,-6.150168085847416,7.872265517581908,-1.8080742962095013,-2.1040751680369043,-46.891375266406946
-0.30337201344110437,-6.171208837527785,7.854184774619813,-2.2769880488735708,-1.5652452535065036,-46.61029682207909
-0.36508410181638223,-6.18686129006285,7.831414894131077,-2.7430910170943616,-0.6964716860554654,-46.0852313648472
-0.42695271471701074,-6.193826006923405,7.8039839839601335,-3.2039433307428338,0.4978717678339475,-45.27446290023014
-0.48889097478624477,-6.188847289245065,7.771944550652705,-3.656687959745135,2.0073135018935924,-44.14796870817092
-0.5507794476786955,-6.16877415422613,7.735377671055254,-4.098167646826845,3.814250650438145,-42.68854961815632
-0.6124671892209568,-6.130631647721748,7.694395994586985,-4.5250531430084076,5.893430265285646,-40.892489586524526
-0.6737735056981743,-6.071697345068892,7.649145463156901,-4.9339780388736525,8.211931738960187,-38.76967750155116
-0.7344904791488632,-5.98957802767929,7.599805682768165,-5.321674813889164,10.729601987324546,-36.343204792704974
-0.7943862594256561,-5.882282007806045,7.546588934629273,-5.685106861816213,13.399879581990172,-33.64850776363606
-0.8532090795037166,-5.748283211986143,7.489737866011112,-6.021591939452573,16.170951814910637,-30.732141620095597
-0.910691911623578,-5.586573693837037,7.429521946616586,-6.32891335565353,18.987212744600924,-27.650255722336816
-0.9665576485619484,-5.396701566391028,7.366232813060051,-6.605415912876898,21.79101550531616,-24.4668022854888
-1.0205246642258587,-5.178791411337866,7.300178653931282,-6.850083935731786,24.52472079349806,-21.2514775177879
-1.0723125783392373,-4.933544203402886,7.231677814573964,-7.062598710909665,27.13302249295355,-18.07738806463883
-1.1216480203732662,-4.662213978473351,7.161051827464868,-7.243372591556053,29.565479069967914,-15.018469308115215
-1.1682701601579997,-4.366559187773672,7.088618101549307,-7.393557284637205,31.779107750085494,-12.14675190312097
-1.2119357520357363,-4.048768110272817,7.014682528702935,-7.515024803668415,33.740830904616175,-9.529658978615108
-1.2524234331384645,-3.7113598012266547,6.939532280666251,-7.610321393454566,35.42952745946568,-7.227589064060774
-1.289537031150731,-3.357064526631998,6.8634290667317055,-7.6825972840951735,36.83745694021073,-5.292070630815683
-1.323107676417051,-2.9886899572298904,6.786603093890753,-7.735517990403331,37.970895405544745,-3.7647470663033653
-1.35299457598935,-2.608981003174443,6.70924791398672,-7.773165461066364,38.84993819702997,-2.677368570076464
-1.3790843860210944,-2.220481621204143,6.631516259376056,-7.799939146767129,39.50755690604939,-2.052850210841935
-1.4012892022331358,-1.8254060521436493,6.553516867908385,-7.820467648875549,39.98811461693866,-1.907333035856851
-1.4195432627545723,-1.4255249059742627,6.47531219141963,-7.839540979234117,40.345616368261275,-2.2530850033375813
-1.433798511814315,-1.02206874229165,6.396916781627289,-7.862071829267493,40.64198360063264,-3.102013915892994
-1.4440191992372315,-0.6156489062853234,6.318296063334614,-7.893091968426423,40.94558402960916,-4.469525944714444
-1.4501756883000847,-0.20619306598923182,6.23936514365035,-7.937787227873567,41.330112287711366,-6.378410269592366
-1.452237618959977,0.20710805688788186,6.159987271371614,-8.00157133056949,41.8736690610867,-8.86227600664228
-1.4501665383910982,0.625844747498749,6.079971558065919,-8.090194090635913,42.657432669481274,-11.9676402028111
-1.4439080909161108,1.0524190741935617,5.99906961715956,-8.209870492664024,43.762427969222024,-15.752717277478947
-1.4333839001741753,1.490043353885782,5.91697091223292,-8.367397665438814,45.261068485944364,-20.27857116503388
-1.4184834666353174,1.9426540387452258,5.833296935578533,-8.570183377089153,47.19634299178027,-25.583102050093096
-1.3990569262478652,2.4146174686630286,5.747595101807641,-8.826014397590084,49.53383689629925,-31.61765228018841
-1.3749107515612349,2.909955837626021,5.6593349578317405,-9.142190920391968,52.05770117454403,-38.106155287271925
-1.3458111931849748,3.4305328493714615,5.567913048627821,-9.523252473264687,54.162414999172526,-44.258959360805555
-1.31150586469126,3.972156999363187,5.472680523895174,-9.965842066872742,54.49443899731734,-48.27401570410199
-1.271784294697628,4.517101389336361,5.373022103226447,-10.448582223913762,50.54264804639228,-46.754483063996446
-1.2266132808042645,5.0225278698002835,5.268536280987309,-10.916127054553726,38.85167319221858,-34.96607751594077
-1.1763880021062616,5.41104460172247,5.159375010441772,-11.265787829713133,17.42866947902198,-10.106130631648485
-1.122277556089037,5.585331296512689,5.04671713214464,-11.366849136029618,-9.663640322423745,22.41263322814571
-1.0664242431239102,5.488694893288452,4.933048640784344,-11.14272280374816,-32.337747204098065,49.04021259400941
-1.0115372941910257,5.1653174212474715,4.821621412746863,-10.652320677808067,-43.698614188103114,60.69511631817013
-0.9598841199785509,4.72833127936644,4.715098205968782,-10.045369514626366,-45.33063349362311,59.776447372170715
-0.9126008071848866,4.275024944430209,4.614644510822518,-9.447605040904659,-42.12093700608128,52.938286596998154
-0.8698505577405845,3.853815574369396,4.520168460413471,-8.918222174934677,-37.50520716334168,44.70386724337993
-0.8313124019968905,3.4787635027359793,4.430986238664124,-8.471183502500878,-33.01494227135162,36.98612974734016
-0.7965247669695307,3.148614080022463,4.346274403639115,-8.101322205027477,-29.141685314981228,30.319272404801353
-0.7650386261693061,2.8571972268726507,4.265261181588841,-7.798129480979464,-25.95576429280232,24.70441635012165
-0.7364666539005795,2.5976395839446274,4.187279886779046,-7.551085317478247,-23.388799532074678,19.98388943086953
-0.7104902580611332,2.3637515886238805,4.111769033604263,-7.351246423169552,-21.341896697008455,15.978614908767678
-0.6868527421748943,2.1503326216537957,4.038256569372567,-7.191460274081875,-19.721907432907898,12.530657075880724
-0.6653494159583564,1.9531135473247168,3.9663419666317488,-7.066153703323067,-18.450772069802913,9.511822075448295
-0.6458182804851093,1.7686058266266875,3.895680429598518,-6.971035482568585,-17.46555744866862,6.821531626468298
-0.6281322222188424,1.5939502521400013,3.8259700747728322,-6.9028201663039015,-16.715694245611097,4.382273118214387
-0.6121927196974424,1.4267933096838903,3.756941873109793,-6.858997435121758,-16.159662832203576,2.135381872420286
-0.5979247866006034,1.2651966813618545,3.6883518987585755,-6.837643616397555,-15.761791993706176,0.037935138169068364
-0.5852728197869849,1.1075787614247927,3.6199754625946,-6.837264265015865,-15.489266195507959,-1.9391209988697053
-0.574197032172737,0.9526860994697132,3.5516028199444416,-6.856655475004562,-15.309254995353031,-3.811681839624516
-0.5646701711780399,0.7995935495161829,3.483036265194396,-6.894772293400807,-15.186051017861347,-5.582149394376388
-0.556674235682878,0.6477330393375694,3.414088542260388,-6.950593787344571,-15.078155011390225,-7.238208089061166
-0.5501969052895023,0.49695148922366716,3.3445826043869427,-7.022975868235183,-14.93536675159942,-8.750961118715725
-0.5452273903972656,0.34759782170767295,3.2743528457045907,-7.110485479422341,-14.696145403269892,-10.072879419548315
-0.541751412180189,0.20063636767497403,3.2032479909103673,-7.2112142736178235,-14.285813862661572,-11.136360200618226
-0.5397450485034392,0.057778229048358304,3.131135848174189,-7.322577875624006,-13.616595474380958,-11.854180597926433
-0.5391672662129556,-0.07838772569545127,3.057910069417949,-7.44111968160327,-12.590911008617589,-12.123670981503679
-0.5399511434699101,-0.20429683578162716,2.983498872601916,-7.562356391418307,-11.109608705139475,-11.836749257818328
-0.5419941118277264,-0.3153929228330219,2.907875308687733,-7.680723883996491,-9.08643888025908,-10.89753769344391
-0.5451480410560566,-0.4062573116356127,2.831068069847768,-7.78969926093093,-6.468590615905032,-9.24746479864996
-0.5492106141724128,-0.47094321779466297,2.7531710772384588,-7.882173908917429,-3.2601928514868352,-6.894167785181637
-0.5539200463503594,-0.5035451463095313,2.6743493381492844,-7.951115586769245,0.4580514773676554,-3.9359006303470094
-0.5589554978134548,-0.49896463153585474,2.594838182281592,-7.990474593072715,4.522461643094856,-0.570029772974978
-0.5639451441288134,-0.4537400151049062,2.514933436350865,-7.996174890802465,8.701029297547716,2.923889077193679
-0.5684825442798624,-0.366729722129429,2.4349716874428404,-7.966936000030528,12.729882866729415,6.2272776090110495
-0.5721498415011568,-0.23943089346213484,2.3553023274425353,-7.9046632239404175,16.362277499886943,9.040544880317897
-0.5745441504357781,-0.0758081184632654,2.276255695203131,-7.814257775137238,19.41392175721981,11.136341750204911
-0.5753022316204107,0.11833109910893269,2.1981131174517587,-7.70289435763519,21.78980593065277,12.390387643837391
-0.5741189206293213,0.3362291584154604,2.1210841738754067,-7.578990481196816,23.48658193580364,12.783099918076752
-0.5707566290451668,0.5710949777734968,2.0452942690634384,-7.451159482016048,24.57492181095172,12.377651152447577
-0.5650456792674318,0.816844195883014,1.970782674243278,-7.3273829704915725,25.17216944638675,11.286846833482192
-0.5568772373086016,1.0685658903468815,1.897508844538362,-7.21451450215675,25.415392454530775,9.6406742284766
-0.5461915784051328,1.3227198148921893,1.8253636995167946,-7.118107759871984,25.441022455367285,7.561554047100566
-0.5329643802562108,1.577130039445862,1.7541826219180747,-7.0424922194009785,25.372919163785667,5.149149643373415
-0.5171930798617522,1.8308592310837186,1.6837576997240649,-6.991000722967244,25.317817425093153,2.47323789008592
-0.498884487550915,2.08403740533465,1.6138476924943923,-6.966268344066385,25.365996344845364,-0.4281355858545563
-0.47804411349756853,2.337697368783104,1.5441850090537286,-6.970549699924931,25.595078293724598,-3.5479216882161255
-0.4546671398097375,2.59364815172035,1.4744795120544794,-7.006028916807092,26.07545166791502,-6.9088282049635295
-0.428730658292534,2.8544026683995,1.4044192228864085,-7.075117198856727,26.876465665293768,-10.562968929500729
-0.40018663160853896,3.123167325052438,1.3336680508978414,-7.1807468881517345,28.073054052503252,-14.593263275611443
-0.36895495835801456,3.4038978655774703,1.261860582016324,-7.326679520907849,29.752718220390687,-19.117040400745374
-0.33491597970223985,3.701425047781377,1.1885937868072456,-7.517849924915303,32.02272977721538,-24.291798471365702
-0.2979017292244261,4.021652345553531,1.1134152875580925,-7.760767909628959,35.01667624430464,-30.3219171833465
-0.25768520576889076,4.371819107996577,1.0358076084618029,-8.063987081462423,38.897126245801424,-37.461928108211914
-0.21396701468892498,4.7607903704545915,0.9551677376471787,-8.438606362544542,43.844653696938714,-46.00308144662037
-0.16635911098437905,5.199236907423979,0.8707816740217332,-8.898637177010746,50.00595296165696,-56.20593367125845
-0.11436674191013926,5.699296437040548,0.7817953022516257,-9.460696513723331,57.32857059948779,-68.07906325626158
-0.05737377753973378,6.272582143035426,0.6871883371143924,-10.141487146285947,65.10295210222584,-80.75483199570412
0.005352043890620488,6.923611664057685,0.585773465651533,-10.949035466242988,70.84401611731123,-90.94706788111813
0.07458816053119732,7.632051825230797,0.47628311098910314,-11.858506145054168,68.19272888311545,-90.03148277079198
0.15090867878350528,8.31397911406195,0.35769804953856144,-12.758820972762088,45.79404367563974,-62.44166701119007
0.23404846992412479,8.771919550818348,0.23010983981094055,-13.383237642873988,-3.318832426837098,1.3866421880510105
0.3217676654323083,8.738731226549977,0.09627746338220067,-13.369371220993479,-58.939127944135414,73.57910019162144
0.40915497769780806,8.149339947108622,-0.03741624882773412,-12.633580219077265,-86.74771948904927,107.28885002119607
0.4906483771688943,7.281862752218129,-0.16375205101850676,-11.560691718865304,-85.70721661028306,101.87459928792244
0.5634670046910756,6.424790586115298,-0.2793589682071598,-10.541945725986078,-74.31645231199639,82.96419810008959
0.6277149105522286,5.681626062995335,-0.38477842546702057,-9.712303744985183,-62.79591472485836,64.32364980093809
0.684531171182182,5.053666915746751,-0.4819014629168724,-9.069067246975802,-53.670279595714256,49.137520400517836
0.7350678403396494,4.516964119789608,-0.5725921353866305,-8.577692042970623,-46.93482921238233,37.21866483264708
0.7802374815375456,4.047615827665785,-0.6583690558163366,-8.205505394644153,-42.09632733725938,27.78468400419421
0.8207136398142034,3.6266525542931913,-0.7404241097627782,-7.9276585546022105,-38.68966263594374,20.1367667658186
0.8569801653571354,3.239755927933754,-0.8197006953088003,-7.7262908869440245,-36.36114001796696,13.757570744563136
0.8893777246364729,2.8761445277540845,-0.8969636041782405,-7.588715179498394,-34.85352927444277,8.28439192328965
0.9181391699140138,2.5276092350096566,-0.9728507559732245,-7.505871260265497,-33.97718193727183,3.469405103939938
0.9434152622641103,2.1878374156369382,-1.0479094685758794,-7.471177209226098,-33.58501885991627,-0.8507201881740504
0.9652936364204797,1.8519872270377755,-1.1226212406681404,-7.479684411107838,-33.553214693805316,-4.774414841638519
0.9838135086908575,1.5164550800997223,-1.1974180847792188,-7.527428559524223,-33.766314157271985,-8.34656499282943
0.9989780594918547,1.1787919385270025,-1.272692370374461,-7.610894209452518,-34.105563694455995,-11.564424470302306
1.0107659788771248,0.8377363015824425,-1.3488013124689862,-7.72653845415554,-34.44001650984287,-14.380685795919069
1.0191433418929492,0.4933361364840138,-1.4260666970105416,-7.870345312114731,-34.62091591250052,-16.70638760968397
