th1 (rad),w1 (rad/s),th2 (rad),w2 (rad/s)
3.795478741432583,2.9517689005420293,4.473215766399152,-2.5960074921039893
3.8249964304380035,3.044987815452572,4.447255691478112,-2.6280469890433626
3.8554463085925295,3.142830277678541,4.420975221587678,-2.6670182220207352
3.886874611369315,3.245290925030388,4.394305039367471,-2.712587283744887
3.919327520619619,3.352118662127868,4.367179166530022,-2.7640483823127346
3.9528487072408978,3.462724337324652,4.339538682706895,-2.820185916167115
3.987475950614144,3.5760793386488285,4.311336823545224,-2.879123365447336
4.0232367440006325,3.690623044099033,4.28254558989075,-2.938184838265952
4.060142974441622,3.804211587910846,4.253163741508091,-2.9938159671218725
4.098185090320731,3.91415466670097,4.223225581836872,-3.0416313770818393
4.137326636987741,4.017390676120064,4.192809268066054,-3.0766612892501404
4.177500543748941,4.110827966249509,4.162042655173553,-3.093838049263549
4.2186088234114365,4.191821391995322,4.131104274680918,-3.08868003032755
4.26052703733139,4.258672612600658,4.100217474377642,-3.0580150671387716
4.303113763457397,4.3109874087533,4.069637323706254,-3.000505832131782
4.34622363754493,4.349748702411643,4.039632265384936,-2.9167738560999537
4.389721124569046,4.377076328084393,4.010464526823937,-2.8090771338810225
4.433491887849891,4.395776982225268,3.982373755485127,-2.6806844093950515
4.477449657672143,4.408853490706573,3.9555669113911764,-2.5351843957632973
4.521538192579209,4.4191136203871455,3.9302150674335437,-2.375929663435667
4.565729328783081,4.428938277413416,3.906455770799187,-2.205702663616668
4.610018711557215,4.44019693560064,3.88439874416302,-2.0265896809619623
4.654420680913222,4.45426338426487,3.8641328473534005,-1.8399986644226134
4.69896331475587,4.472082677982674,3.8457328607091745,-1.6467528417920791
4.743684141535697,4.4942534478558835,3.8292653322912535,-1.4472100582160474
4.788626676014256,4.521105096980589,3.814793231709093,-1.2413790659020598
4.833837726984062,4.552760942762161,3.8023794410500726,-1.029020123378154
4.879365336411684,4.589185229536747,3.792089239816291,-0.8097269244676661
4.925257188707052,4.630215267556444,3.7839919705716145,-0.5829916070529548
4.9715593413826165,4.675581168342025,3.778162054501085,-0.34825632246769045
5.018315153066037,4.724915793387661,3.774679491276408,-0.10495502951851063
5.065564310999913,4.777757247432656,3.773629940981223,0.14745131046635115
5.11334188347424,4.833545859206972,3.7751044540858865,0.40944366386482145
5.16167734206631,4.891617249822421,3.7791988907245346,0.6814162209442205
5.2105935145645335,4.951192843469945,3.786013052933977,0.9636489531182252
5.260105442999233,5.011369032083489,3.795649542465159,1.2562809091281797
5.310219133320068,5.071106149998838,3.808212351556441,1.5592842483798737
5.360930194820056,5.129218422798509,3.8238051940402396,1.8724394789862795
5.412222379048041,5.184366099394409,3.8425295888301023,2.195312790948222
5.464066040041985,5.235051029152219,3.8644827167395843,2.5272367463270786
5.516416550333507,5.279616976875435,3.889755084202855,2.867295893753098
5.569212720102262,5.316255948296824,3.918428043140386,3.214319092456527
5.6223752795852295,5.343021699600956,3.950571234064951,3.56688043583629
5.675805496581239,5.357851402236244,3.986240038423314,3.923310631711233
5.729384010603601,5.358596110279394,4.025473144740427,4.281720506202569
5.782969971706395,5.343060220703535,4.068290349802452,4.640037939683251
5.83640057391343,5.309049524805169,4.1146907291992845,4.996059016323562
5.8894910691614815,5.25442672997221,4.16465131936252,5.347513485348939
5.9420353364612035,5.177172505936273,4.218126454216009,5.69214381681307
5.993807061520566,5.0754492162641425,4.27504789238414,6.027796226795473
6.044561553683208,4.947663593544579,4.335325854652094,6.3525211050080745
6.0940381896186535,4.792523791704202,4.398851065702175,6.664679386456823
6.141963427535695,4.60908561497846,4.465497859566743,6.963050685041483
6.18805428368548,4.396782413609647,4.535128366417158,7.246938600336704
6.232022107821576,4.155433282917718,4.607597752420525,7.516268688722885
6.2735764406507535,3.885224900757015,4.682760439307754,7.771675315749209
6.312428689658324,3.5866636096366875,4.760477192465246,8.01457508052603
6.348295325754691,3.260496113494861,4.840622943270507,8.247226715198082
6.38090028688964,2.9075992419682612,4.923095210422487,8.472780136405358
6.409976279309322,2.52884144214807,5.007823011786541,8.69532026329808
6.435264693730803,2.1249209383810195,5.094776214419522,8.919913613137915
6.456513903114613,1.6961882603804086,5.1839753505509005,9.15266631050101
6.473475785718417,1.242465526322986,5.2755020136559105,9.400798660432201
6.485900440981647,0.7628851423391663,5.369510000260233,9.672728934382398
6.4935292924050385,0.2557948158340869,5.466237289604057,9.978126608668118
6.496087240563379,-0.2811675467445002,5.566018555690738,10.3278184633531
6.493275565095934,-0.8505967693830658,5.669296740324269,10.733255698307092
6.484769597402104,-1.4539287658429076,5.776629297307339,11.20486565723689
6.470230309743675,-2.0880607087003673,5.888677953879708,11.747830880550408
6.449349702656671,-2.7380010349825343,6.006156262685212,12.352545162308296
6.421969692306846,-3.363058190954289,6.129681714308295,12.976164115726034
6.388339110397303,-3.8781421290842695,6.259443355465555,13.516975740369704
6.349557689106461,-4.150544781396883,6.394613112869252,13.808777420620325
6.308052241292492,-4.059208345462276,6.532700887075456,13.698877251362251
6.267460157837869,-3.609010912546132,6.6696896595890784,13.19908741166938
6.2313700487124075,-2.944801455818795,6.801680533705772,12.499957868783387
6.20192203415422,-2.221589155317738,6.926680112393606,11.79582092868847
6.1797061426010425,-1.5221345450829387,7.04463832168049,11.180648019687963
6.164484797150213,-0.8718597311593209,7.156444801877369,10.67356993250332
6.15576619983862,-0.27126846292729434,7.263180501202402,10.263543423216554
6.153053515209347,0.2863863539788991,7.365815935434568,9.93223833879366
6.155917378749136,0.8084265012394192,7.465138318822504,9.66197674902507
6.16400164376153,1.30076076979805,7.5617580863127545,9.437660449129867
6.177009251459511,1.7675422461322339,7.656134690804053,9.246778661633595
6.194684673920833,2.2113290152542655,7.7486024774203885,9.078954193244048
6.216797964073376,2.633364232055622,7.839392019352829,8.925482035524626
6.243131606393932,3.0338596598771743,7.928646839708075,8.778974878954122
6.273470202992704,3.4122553573152374,8.016436588497616,8.633123865898872
6.307592756565857,3.7674540907905234,8.102767827156605,8.482553705184303
6.345267297473762,4.098033837042848,8.187593364208448,8.32274606215124
6.386247635844191,4.4024401005332265,8.27082082482996,8.150006801283926
6.430272036849523,4.679156971633133,8.3523208928428,7.961456089077853
6.477063606565855,4.9268538016678,8.431935453733578,7.7550243038679625
6.526332144582533,5.144503680850274,8.509485696772257,7.529440925958319
6.577777181391036,5.331470579373004,8.584780106031841,7.284207973938696
6.631091887184766,5.48756371351667,8.657622185771228,7.019553843747108
6.685967524319933,5.613059911666075,8.727817724208698,6.736367213899799
6.742098123436594,5.708696934959485,8.795181396347695,6.436113638204469
6.799185092786189,5.775642415074097,8.85954253272974,6.120739336295462
6.85694151693693,5.815444061893487,8.920749926092695,5.7925675041671285
6.915095957555865,5.829967034201085,8.978675601134366,5.454192389865303
6.973395627897876,5.821323994161746,9.033217525033018,5.108375720250369
7.031608867839493,5.79180260667225,9.084301282235522,4.757949146099037
7.089526893906216,5.743794327618117,9.131880773696512,4.405725448574014
7.146964837182397,5.67972742510001,9.175938028182252,4.054420461755636
7.203762111433397,5.602006389322499,9.216482232799807,3.706587045158244
7.259782175326622,5.5129592322659535,9.25354810325139,3.3645619439461574
7.314911767649281,5.414793633952565,9.287193722690851,3.0304259325829688
7.369059703988807,5.309562419595753,9.31749798201668,2.705977192939017
7.422155328184765,5.199138421453025,9.344557753946072,2.3927174097377972
7.474146712399295,5.085198381091668,9.36848492804345,2.0918495929454783
7.524998696210212,4.969215191783307,9.389403423972905,1.804286203138728
7.5746908481280455,4.852457487786519,9.407446286004292,1.5306658140684777
7.62321542300591,4.735995378774746,9.422752944144976,1.2713763378040612
7.670575376793658,4.6207110168822005,9.435466707523018,1.0265827811354733
7.71678248696248,4.507312671545138,9.445732535334372,0.7962575915702469
7.761855613677932,4.396351061961892,9.453695111250074,0.5802118609027973
7.805819124297551,4.288236838116671,9.459497229859101,0.3781259452615229
7.848701492678718,4.183258284326963,9.463278489311717,0.18957839081290911
7.890534075521988,4.081598520058204,9.465174273219846,0.014072386153273386
7.93135006072257,3.9833516709688688,9.465314997081379,-0.14894073317207093
7.971183577432259,3.8885376640072624,9.463825589749657,-0.3000411442074711
8.010068954072333,3.797115454938062,9.460825178307582,-0.4398233727744003
8.048040108621713,3.708994621168374,9.456426944579837,-0.5688821709249592
8.085130054833396,3.6240453473776784,9.450738122870588,-0.6878012033094483
8.121370508307173,3.542106899077927,9.443860110837493,-0.7971442564209874
8.156791577297952,3.4629947241144685,9.435888668273282,-0.8974486653591223
8.191421524539097,3.386506349022591,9.426914181619692,-0.9892206590128875
8.225286588029322,3.3124262506542435,9.417021975029563,-1.072932348543353
8.258410850535864,3.240529887569141,9.40629265154413,-1.149020119160109
8.290816149411555,3.1705870735204664,9.394802450352529,-1.217884226148668
8.32252202014676,3.1023648692408963,9.382623608091043,-1.2798894387529967
8.35354566883917,3.035630160032381,9.369824713703514,-1.3353666165254667
8.383901970439494,2.9701520759001534,9.356471047538259,-1.3846151393226445
8.413603491198495,2.90570439785975,9.342624896145033,-1.4279061416720886
8.442660535177092,2.84206807758127,9.328345834728312,-1.4654865221881073
8.471081215952905,2.779033976136066,9.31369096950643,-1.497583706403411
8.498871555714265,2.716405899342396,9.298715132442396,-1.524411134125618
8.52603561470769,2.654003970131415,9.28347102110114,-1.5461744178435672
8.552575654409004,2.5916683310480026,9.268009276922704,-1.5630780753164093
8.578492337719485,2.5292631122282554,9.252378496169541,-1.57533267755669
8.603784968841767,2.4666805337006816,9.236625169393974,-1.5831621760476071
8.628451774178775,2.4038449401089794,9.220793547633498,-1.5868110870996408
8.652490223579864,2.3407164985935003,9.204925436762501,-1.586551128042392
8.675897388565799,2.2772942372383524,9.189059925482077,-1.5826868348810448
8.698670330938183,2.2136180747083056,9.173233057133267,-1.5755596620613956
8.720806511685266,2.149769503622897,9.157477460512652,-1.5655500893820606
8.742304206721496,2.0858706494941597,9.14182195961883,-1.5530773510867664
8.763162913216437,2.022081535421835,9.126291186107963,-1.5385965601178633
8.783383728570655,1.9585955324298894,9.110905220506785,-1.5225932153042194
8.802969683894954,1.8956331485258089,9.095679288353743,-1.5055753256016309
8.821926015380212,1.8334344807000171,9.080623535097727,-1.4880636272351508
8.840260360187212,1.7722507948788992,9.065742898825375,-1.4705805668490637
8.857982868136002,1.7123357849018817,9.051037093156884,-1.453638842327496
8.875106225985022,1.6539370784931233,9.036500704733609,-1.437730312832446
8.891645596769953,1.5972885050645644,9.022123401605285,-1.4233160100736015
8.907618481820599,1.5426035294919844,9.00789024150455,-1.4108178220229752
8.92304451711552,1.4900701098104892,8.99378206328432,-1.4006122098604006
8.937945218213624,1.439847080842343,8.979775941185716,-1.3930260956360419
8.952343689022047,1.392062023567001,8.965845680229355,-1.3883348553160413
8.966264309257717,1.346810468384718,8.951962331676196,-1.3867621933210452
8.979732413941564,1.3041562076069975,8.938094709742986,-1.3884815719797914
8.992773976017634,1.2641324588242475,8.924209894023187,-1.3936188227028417
9.005415300605877,1.2267436206524827,8.91027370579616,-1.402255566958763
9.017682736812402,1.1919673869402498,8.896251150126572,-1.4144331116002846
9.029602410681804,1.1597570252605967,8.88210681901057,-1.4301565409993593
9.04119998093441,1.1300436718428315,8.867805253600576,-1.449398795512974
9.052500417652839,1.1027385413501785,8.853311265645447,-1.4721045924860368
9.063527803066341,1.0777349915737648,8.838590219720587,-1.4981941058791746
9.07430515298208,1.0549104176312663,8.823608278661794,-1.5275663700663082
9.084854257158392,1.034127976593844,8.808332614961131,-1.5601024109474873
9.095195536924331,1.0152381616360493,8.792731590851655,-1.595668133349668
9.105347918540692,0.9980802554756754,8.776774909518158,-1.6341170087534385
9.11532872109545,0.9824836970547268,8.760433739430624,-1.6752926131910162
9.125153558065998,0.9682693942695598,8.743680813298713,-1.7190310634235573
9.134836252008693,0.9552510102903077,8.726490502664477,-1.7651633919872791
9.144388762111596,0.9432362428094745,8.708838868744605,-1.8135178901340117
9.153821124539691,0.9320281055866584,8.690703689843264,-1.8639224337546765
9.163141405595558,0.9214262110202072,8.672064465505718,-1.9162067926457818
9.17235566770576,0.9112280422113929,8.652902397579261,-1.9702049094143905
9.181467948127874,0.9012301940126228,8.633200348485117,-2.0257571221905644
9.190480250068001,0.8912295556254396,8.61294277726321,-2.0827122961544657
9.199392545624255,0.8810244029793906,8.592115654301665,-2.1409298233983036
9.208202789654049,0.8704153676661149,8.570706356067681,-2.2002814491712352
9.21690694333071,0.8592062506341571,8.54870354157597,-2.2606528850446117
9.225499005837051,0.8472046529099476,8.526097012725524,-2.321945175555083
9.233971052366151,0.8342224018095579,8.502877560969972,-2.3840757936860704
9.242313276384246,0.8200757587898776,8.479036803033111,-2.4469794511645997
9.250514033972145,0.8045854035207413,8.454567008521465,-2.510608620908161
9.258559888007353,0.7875761972113899,8.429460922312384,-2.574933780003303
9.266435649979467,0.7688767360515109,8.403711584512351,-2.639943391411902
9.274124417339982,0.7483187123315236,8.377312150598232,-2.705643650471395
9.281607604463296,0.7257361060732745,8.35025571409352,-2.7720580277258304
9.288864965524029,0.7009642337059092,8.322535133816261,-2.8392266425011914
9.295874607861087,0.6738386825131767,8.29414286739125,-2.9072055019620775
9.30261299468622,0.6441941604522038,8.26507081237163,-2.9760656383838717
9.30905493629074,0.6118632907965783,8.23531015598779,-3.0458921733948428
9.315173569198706,0.5766753802441197,8.20485123425384,-3.1167833323964165
9.320940323001146,0.5384551880275388,8.173683400929876,-3.1888494256715774
9.326324874881422,0.497021722538356,8.14179490667316,-3.262211805216572
9.331295092106805,0.45218709135174856,8.109172788620995,-3.337001798388093
9.335816963020322,0.40375543060719726,8.075802770637114,-3.4133596112746494
9.339854517326394,0.3515219406903849,8.041669174524367,-3.491433186423919
9.343369736733298,0.2952720572574826,8.006754842660127,-3.5713769912640587
9.346322457305872,0.23478078997539198,7.971041072747487,-3.653350705270542
9.348670265205627,0.16981226600306512,7.934507565694782,-3.7375177656471616
9.350368387865657,0.10011952124042807,7.89713238803831,-3.824043723006453
9.351369583078062,0.025444589693588773,7.858891950808245,-3.9130943502793794
9.351624028974998,-0.05448105015671051,7.819761007305451,-4.00483343995347
9.35107921847343,-0.13993560354744786,7.779712672905917,-4.099420216938846
9.349679862437956,-0.23120558353299764,7.738718470736528,-4.197006287254327
9.347367806602627,-0.3285838419791046,7.696748407863985,-4.297732036879951
9.344081968182836,-0.43236690870649097,7.653771087495185,-4.401722391370522
9.339758299095772,-0.5428515320173031,7.60975386358148,-4.5090818463219255
9.3343297837756,-0.6603303089911817,7.564663045118261,-4.619888683058318
9.327726480685687,-0.7850862941858697,7.518464158287677,-4.734188294907489
9.319875617743829,-0.9173864831393126,7.471122275338602,-4.851985569514777
9.310701752912436,-1.0574740852698392,7.422602419643455,-4.973236304535766
9.300127012059738,-1.2055595327624333,7.372870056598097,-5.097837680679602
9.288071416732114,-1.3618102214015597,7.3218916797913005,-5.225617880307717
9.274453314518098,-1.5263390495196383,7.269635500988223,-5.356325023939674
9.259189924022902,-1.6991919149999375,7.216072250748827,-5.489615702145738
9.242198004872902,-1.8803344487347842,7.161176093727369,-5.625043505293693
9.223394660385555,-2.0696384044979967,7.104925658674432,-5.762048093996534
9.202698276340575,-2.266868284180132,7.047305177734467,-5.899945499799812
9.180029593498773,-2.4716689426541754,6.988305722736468,-6.0379204838322424
9.15531290407223,-2.683555070566422,6.927926517898146,-6.17502188963484
9.128477353366566,-2.9019035716290063,6.866176299001798,-6.310161978040186
9.099458317650276,-3.125949903293759,6.803074679221396,-6.442120695733661
9.068198818617338,-3.354789403015269,6.738653472264059,-6.5695556741952466
9.034650924587185,-3.5873844462589317,6.672957915522106,-6.691018458061185
8.998777080124595,-3.8225779567056666,6.606047730941494,-6.804977012627909
8.960551300557539,-4.05911331235457,6.537997960815215,-6.909843974168755
8.919960167433993,-4.2956600888842225,6.468899521073527,-7.004009429486261
8.87700356654515,-4.530844410438375,6.398859426778665,-7.0858763205761015
8.831695122440767,-4.763282023962592,6.328000663572904,-7.153895970642578
8.784062302201141,-4.9916116812943585,6.256461703866478,-7.206600834458344
8.734146185388198,-5.214526109019399,6.184395695521895,-7.242631493468814
8.682000924298004,-5.430797853030264,6.111969380587206,-7.2607552120621595
8.627692945767702,-5.639297642374594,6.039361828466585,-7.259874057193162
8.571299969343956,-5.83900360797766,5.966763087894653,-7.239021604698992
8.51290993326418,-6.029000642041924,5.894372871847663,-7.197348499773717
8.45261992684376,-6.208470277295734,5.822399386849926,-7.134098458313047
8.390535224070803,-6.376672569046199,5.751058402266795,-7.048577537922642
8.326768498380341,-6.532922455538064,5.680572626887569,-6.940120544953754
8.26143927382496,-6.676563864085165,5.611171421438032,-6.808059192336819
8.194673635184108,-6.806945372756612,5.5430908295146635,-6.651697040560368
8.126604181456543,-6.92340151391112,5.47657385910906,-6.470296325164481
8.057370166317432,-7.025243813580103,5.411870895857414,-6.263081480456341
7.98711772818163,-7.111765384528438,5.349240081052851,-6.029263460836521
7.9160000743363454,-7.182262282132109,5.288947446444485,-5.768087738150603
7.844177451515025,-7.236073801182841,5.23126656906298,-5.4789069718034495
7.771816713503196,-7.272642323537326,5.176477499344945,-5.161276661786298
7.699090290267823,-7.291591129132593,5.124864732727082,-4.8150685398784265
7.626174378976497,-7.292815767737844,5.076714047328298,-4.4405921738986365
7.553246221299118,-7.276581371714397,5.032308125589311,-4.038710737219789
7.480480407581974,-7.243615176972518,4.991921018217113,-3.6109330392947983
7.408044255812249,-7.1951813176492125,4.9558116878241645,-3.159462002489107
7.336092442635757,-7.1331246482266355,4.924217067799273,-2.6871811788514837
7.264761196153491,-7.0598727694227525,4.897345256010759,-2.197566575871975
7.194162468459263,-6.978390879764751,4.875369590252039,-1.694520902875825
7.124378559661615,-6.892091912654684,4.858424381223281,-1.1821397801148592
7.055457640535068,-6.804713037518793,4.846602983422132,-0.6644315253828751
6.98741051015988,-6.720176813981006,4.839958668168303,-0.1450203623354439
6.92020874202007,-6.6424591117652545,4.838508464544948,0.3731354421355415
6.853784150902418,-6.575485403152027,4.842239818966304,0.8879847024932696
6.7880292968708975,-6.52307270742291,4.851119665991236,1.3985694490039942
6.722798569796669,-6.488928044817811,4.865105360481276,1.9051560937889975
6.65790928934849,-6.4767079378357675,4.884156921419166,2.409325176769028
6.593142209970132,-6.490139076115872,4.908250173186856,2.914043457177477
