th1 (rad),w1 (rad/s),th2 (rad),w2 (rad/s),a1 (rad/s^2),a2 (rad/s^2)
3.6044365761614703,2.0408251745858372,4.955187569231831,-2.536290753832438,7.088764659274566,3.900723712620036
3.624844827907329,2.1117128211785827,4.929824661693506,-2.4972835167062377,7.116167927516221,3.39713864819158
3.6459619561191148,2.182874500453745,4.904851826526444,-2.4633121302243217,7.181540613084078,2.880194457997937
3.667790701123652,2.254689906584586,4.8802187052242,-2.4345101856443425,7.285739048403721,2.3461917596486157
3.690337600189498,2.327547297068623,4.8558736033677565,-2.4110482680478564,7.429861594824788,1.7913503885392064
3.713613073160184,2.401845913016871,4.8317631206872775,-2.3931347641624643,7.615217329755821,1.2118674064573671
3.737631532290353,2.477998086314429,4.807831773045653,-2.3810160900978907,7.843267535939426,0.604015567613983
3.762411513153497,2.5564307616738233,4.784021612144674,-2.3749759344217507,8.115526231189369,-0.03569663548080383
3.7879758207702356,2.637586023985717,4.760271852800456,-2.375332900776559,8.433399469747606,-0.7102730278930516
3.814351681010093,2.721920018683193,4.736518523792691,-2.3824356310554893,8.797934144349494,-1.421842826112121
3.841570881196925,2.809899360126688,4.7126941674821365,-2.3966540593166106,9.209434956726977,-2.1710785512674065
3.869669874798192,2.901993709693958,4.68872762688897,-2.4183648448292847,9.666892927353627,-2.9563369949062395
3.8986898118951316,2.998662638967494,4.664543978440677,-2.447928214778347,10.167151290681044,-3.7724168665174727
3.9286764382848065,3.1003341518743044,4.640064696292893,-2.485652383443522,10.703718713234798,-4.6088048155628085
3.9596797798035497,3.2073713390066523,4.615208172458458,-2.53174043159915,11.26513527534445,-5.44727639064053
3.9917534931936163,3.320022691760097,4.5898907681424665,-2.586213195505555,11.832824572452415,-6.258760339102735
4.024953720111217,3.4383509374846213,4.564028636187411,-2.6488007988965827,12.378465133491966,-6.999520007101423
4.059337229486063,3.562135588819541,4.537540628198445,-2.7187959989675967,12.86115034073024,-7.607046118761868
4.0949585853742585,3.6907470922268435,4.510352668208769,-2.7948664601552156,13.225060478201932,-7.996708073885501
4.131866056296527,3.822997697008863,4.4824040036072175,-2.8748335408940706,13.39909607922842,-8.061250673334094
4.170096033266615,3.9569886578011473,4.453655668198277,-2.9554460476274116,13.300806139173366,-7.67648928884305
4.2096659198446265,4.0899967191928805,4.4241012077220025,-3.032210940515842,12.847464563999939,-6.7173027917824735
4.250565887036555,4.2184713648328795,4.393779098316844,-3.099383968433667,11.976154864826478,-5.086613444534656
4.292750600684884,4.338232913481145,4.362785258632507,-3.1502501028790135,10.670792498827216,-2.7544439237416602
4.336132929819695,4.4449408384694165,4.331282757603717,-3.17779454211643,8.98712230716671,0.2056970155497733
4.380582338204389,4.534812061541084,4.299504812182553,-3.175737571960932,7.060800189616362,3.6043688147530224
4.4259304588198,4.605420063437247,4.267747436462944,-3.139693883813402,5.086278687052357,7.165389971781438
4.471984659454172,4.656282850307771,4.23635049762481,-3.0680399840955874,3.269161420583798,10.593218678491187
4.51854748795725,4.688974464513609,4.2056700977838535,-2.9621077973106757,1.7729123619260163,13.649093024156233
4.5654372326023855,4.706703588132869,4.176049019810747,-2.8256168670691135,0.6854408829571998,16.19959960668011
4.612504268483714,4.71355799696244,4.147792851140055,-2.6636208710023124,0.01692387292579495,18.221117809528877
4.659639848453338,4.713727235691699,4.121156642430032,-2.4814096929070235,-0.278973395307895,19.77077191414032
4.706777120810255,4.71093750173862,4.096342545500962,-2.2837019737656203,-0.27680727391170395,20.946786817622886
4.753886495827641,4.708169428999503,4.073505525763306,-2.0742341055893916,-0.05637574675203481,21.85582291716148
4.8009681901176355,4.707605671531983,4.052763184707412,-1.8556758764177768,0.31070652379721797,22.593492897952228
4.848044246832956,4.710712736769955,4.034206425943234,-1.6297409474382545,0.7662282868167062,23.236344533511467
4.895151374200656,4.718375019638122,4.017909016468852,-1.3973775021031398,1.2655433174934994,23.840985683498456
4.942335124397037,4.731030452813057,4.00393524144782,-1.1589676452681552,1.7753982724341584,24.446556840736115
4.989645428925167,4.748784435537399,3.9923455649951385,-0.9145020768607941,2.2711199228604593,25.078173215406153
5.037133273280541,4.771495634766003,3.9832005442265306,-0.6637203447067326,2.733989322822321,25.750164493857064
5.084848229628201,4.7988355279942265,3.9765633407794634,-0.40621869976816194,3.1491017577513416,26.468685839179166
5.132836584908143,4.83032654557174,3.972501153781782,-0.14153184137637026,3.5037498677176635,27.23364909769485
5.181139850363861,4.865364044248917,3.9710858353680183,0.13080464960057825,3.786265159878804,28.040076416843576
5.22979349080635,4.903226695847705,3.972393881864024,0.41120541376901404,3.985230094171764,28.87902031884487
5.278825757764827,4.943078996789422,3.976505936001714,0.6999956169574628,4.088982610572316,29.73818905192224
5.328256547732721,4.983968822895146,3.9835058921712885,0.9973775074766853,4.0853542229848925,30.60239561932345
5.378096235961673,5.024822365124995,3.9934796672460555,1.3034014636699198,3.961601525526231,31.453926753090048
5.428344459612923,5.064438380380257,4.006513681882755,1.6179407312008203,3.7045054175506107,32.272908626805645
5.478988843416725,5.101483434555763,4.022693089194763,1.9406698174688768,3.3006216183117907,33.037729656916326
5.5300036777622825,5.134489650738881,4.042099787369452,2.27104711403804,2.736670249049873,33.72556624060636
5.581348574269671,5.161856353229379,4.064810258509832,2.608302776444104,2.0000519101904057,34.31304337606054
5.632967137801965,5.1818568723312834,4.090893286274273,2.9514332102047094,1.0794734040247203,34.777047738838284
5.684785706525278,5.1926516063715304,4.12040761837632,3.299203687593092,-0.03434122552918849,35.09569537122406
5.736712222588993,5.192308194116238,4.153399655252251,3.650160641305333,-1.3478884943242346,35.249439662922526
5.788635304530156,5.178829309172996,4.189901261665304,4.0026550379345585,-2.8641174549410118,35.22228827319017
5.840423597621886,5.150188134623586,4.22992781204465,4.3548779206664605,-4.5817125326089485,35.00308102100549
5.891925478968122,5.1043710092974965,4.273476591251315,4.704908730876515,-6.4944940772089526,34.58676584191144
5.942969189061096,5.039426068525407,4.32052567856008,5.050776389295629,-8.591010955967356,33.975598217968745
5.99336344974635,4.953515958965734,4.371033442453037,5.390532371475317,-10.854402556134938,33.180182779979035
6.0428986093360075,4.844971933404384,4.42493876616779,5.722334199275107,-13.262604332542006,32.220276004959146
6.091348328670051,4.712345890078964,4.482162108160541,6.044536959324698,-15.788959699447329,31.12527816626579
6.1384717875708406,4.554456293084491,4.542607477753788,6.355789740987356,-18.40328022509994,29.934362904966513
6.184016350501685,4.370423490833492,4.606165375163662,6.655133370037021,-21.07336536070019,28.69622527994455
6.22772058541002,4.15968983722649,4.672716708864032,6.942095622836466,-23.766953661189085,27.46847367389797
6.2693174837822845,3.9220203006145993,4.742137665092397,7.216780359575446,-26.454033132931034,26.316744610372083
6.308537686788431,3.657479969285289,4.8143054686881515,7.479947805679167,-29.109394307299546,25.313675855216506
6.345112486481284,3.3663860262122935,4.8891049467449434,7.733084564231332,-31.71527136976277,24.537921153771347
6.378776346743407,3.049233312514666,4.966435792387257,7.978463775769045,-34.26388616367834,24.07341312911487
6.409268679868553,2.7065944508778825,5.046220430144947,8.219197907060193,-36.75967934781805,24.009054427588435
6.4363346243773325,2.338997657399702,5.128412409215549,8.459288451336079,-39.22095432348833,24.438899363929696
6.459724600951329,1.9467881141648185,5.21300529372891,8.703677444975376,-41.68050539484304,25.46259780611817
6.479192482092977,1.529983060216388,5.300042068178664,8.958303423036558,-44.18440749871096,27.185236188292723
6.494492312695141,1.0881389852292784,5.389625102409029,9.230155784919486,-46.787209511643276,29.71434509575686
6.505373702547434,0.6202668901128456,5.481926660258225,9.527299235877054,-49.53967394597453,33.14891663709267
6.511576371448562,0.12487015065310036,5.577199652616995,9.858788402247981,-52.46069181864525,37.54905314483216
6.512825072955094,-0.3997367675333522,5.675787536639475,10.234278933696302,-55.4757919800674,42.86209385228568
6.50882770527976,-0.9544946873340262,5.778130325976438,10.662899872219159,-58.287785619667815,48.75726396251285
6.4992827584064194,-1.5373725435307044,5.88475932469863,11.150472511844287,-60.12248628761736,54.28779292154945
6.483909032971113,-2.138597406406878,5.996264049817072,11.693350441059781,-59.299262652198166,57.303617334707546
6.462523058907044,-2.7315900329288594,6.11319755422767,12.266386614406857,-52.77028947904105,53.79486487842358
6.4352071585777555,-3.2592929277192697,6.235861420371739,12.804335263191092,-36.5193640331767,38.36339859087262
6.402614229300563,-3.6244865680510365,6.36390477300365,13.187969249099819,-8.77128965716659,8.482922299374849
6.366369363620053,-3.7121994646227026,6.495784465494649,13.272798472093568,24.512395170424895,-28.153644789854035
6.329247368973826,-3.4670755129184534,6.6285124502155846,12.991262024195027,50.980009219211226,-55.57535958403089
6.294576613844642,-2.957275420726341,6.758425070457535,12.435508428354717,63.71806688570661,-65.38212097987834
6.265003859637378,-2.320094751869275,6.882780154741082,11.781687218555934,65.7483822097041,-62.24409788798465
6.241802912118685,-1.6626109297722338,7.000597026926641,11.159246239676088,62.812220724942165,-53.92553761875613
6.225176802820963,-1.034488722522812,7.112189489323402,10.619990863488527,58.500058232523564,-45.01099354139864
6.214831915595735,-0.44948814019757644,7.218389397958287,10.16988092807454,54.283898684857256,-37.22368675163293
6.210337034193759,0.09335084665099613,7.320088207239032,9.797644060558211,50.58275955487107,-30.947440297210346
6.211270542660269,0.5991784421997068,7.418064647844615,9.488169657586107,47.41343158337168,-26.099018565387794
6.217262327082266,1.0733127580334236,7.512946344420476,9.22717947193223,44.66834558175826,-22.478666741628444
6.2279954546626,1.5199962138510061,7.605218139139798,9.002392804515946,42.21810108806548,-19.88693995645457
6.24319541680111,1.9421772247316609,7.6952420671849575,8.8035234049514,39.94530256106262,-18.154626699622984
6.262617189048426,2.3416302503422872,7.783277301234471,8.62197713795517,37.75367782585583,-17.143890449340713
6.28603349155185,2.7191670286008454,7.869497072614023,8.450538233461764,35.56898954065468,-16.741547196891933
6.313225161837858,3.074856924007392,7.9540024549486406,8.283122761492844,33.33758557380526,-16.85153079203453
6.343973731077932,3.4082327797454446,8.03683368256357,8.1146074535725,31.02447047299733,-17.38868398893686
6.378056058875386,3.718477484475418,8.117979757099295,7.940720613683132,28.611360203203517,-18.274335629148556
6.415240833720141,4.004591086507453,8.197386963236127,7.757977257391646,26.094720615430944,-19.433576517546697
6.455286744585215,4.265538292661763,8.274966735810043,7.563641492216179,23.4836904366004,-20.793975370741492
6.497942127511832,4.500375197027767,8.350603150732205,7.355701738508764,20.797822804019702,-22.285423506392284
6.54294587948211,4.708353425067964,8.424160168117293,7.132847503444841,18.064651720474455,-23.840783220707593
6.59002941373279,4.888999942272708,8.495488643151742,6.894439671237765,15.317158921074098,-25.397022305471523
6.6389194131555165,5.042171531483449,8.564433039864118,6.64046944818305,12.591262537405106,-26.896545199188314
6.689341128470351,5.1680841568575,8.630837734345949,6.3715039961911675,9.923464470605774,-28.288479341890884
6.741021970038926,5.267318801563557,8.69455277430786,6.088619202772259,7.348780512558184,-29.529738108335994
6.793695158054561,5.340806606689139,8.755438966335582,5.793321821688899,4.89904411823668,-30.5857498763776
6.847103224121453,5.389797047871506,8.81337218455247,5.487464322925123,2.6016322273152177,-31.43080609279337
6.901001194600168,5.415813370144658,8.868246827781721,5.17315626199719,0.47861993303802697,-32.04803174508352
6.955159328301614,5.420599569475038,8.919978390401694,4.8526759445463545,-1.4536627014089094,-32.42901584863545
7.009365323996365,5.406062942460949,8.968505149847157,4.52838578606,-3.1847206134727815,-32.57315820559547
7.063425953420974,5.374215736326221,9.013789007707757,4.2026542040040455,-4.709690798938824,-32.48679556308246
7.117168110784236,5.3271188283368325,9.055815549747798,3.877786248373221,-6.028909826276435,-32.18217015771243
7.1704392990676045,5.266829730074068,9.09459341223153,3.5559645467960967,-7.147313143901868,-31.676300490677196
7.2231075963683455,5.195356598635049,9.130153057699491,3.239201541889325,-8.073723023430139,-30.989810350014896
7.275061162354696,5.114619368400748,9.162545073118384,2.929303438389176,-8.820076585312254,-30.14576816272591
7.3262073560387035,5.026418602547626,9.191838107502276,2.627845756761917,-9.400639575566126,-29.16858414921484
7.37647154206418,4.932412206791964,9.218116565069895,2.3361599152697683,-9.831245295146203,-28.083006567386526
7.4257956641320995,4.834099753840502,9.241478164222594,2.055329849595903,-10.128591066514716,-26.913250028613568
7.474136661670505,4.732813843175355,9.262031462718552,1.7861973493097674,-10.309616793834316,-25.68227859197122
7.521464800102258,4.6297176752370115,9.27989343621165,1.5293745633900553,-10.390981808180914,-24.41125491570592
7.567761976854628,4.525807857155202,9.29518718184555,1.285262014232996,-10.388647840418749,-23.119155377719927
7.613020055426181,4.421921378751015,9.30803980198788,1.0540704604557967,-10.317568296591014,-21.822541009686695
7.657239269213691,4.318745695785105,9.318580506592438,0.8358450503589296,-10.191477615960702,-20.53546628146024
7.700426726171542,4.216830919625498,9.326938957096027,0.6304903875443273,-10.022769756797695,-19.269502731290313
7.742595035367796,4.116603222057521,9.333243860971471,0.4377953602314242,-9.822451907496012,-18.033852197669965
7.7837610675883715,4.018378702982561,9.337621814573785,0.25745683825472454,-9.600158249713271,-16.83552462397112
7.8239448546181976,3.9223771204854287,9.340196382956332,0.08910159201501333,-9.36420872336928,-15.679557497851077
7.863168625823052,3.828735033251736,9.341087398876482,-0.06769398296349743,-9.121698889855844,-14.569257292896014
7.901455976155569,3.7375180443531777,9.340410459046847,-0.21338655589245759,-8.878608776977757,-13.50644717851002
7.938831156599101,3.6487319565834,9.338276593487922,-0.34845102767755776,-8.63992067716655,-12.491709248211416
7.975318476164936,3.5623327498117345,9.334792083211147,-0.4733681201596719,-8.409737992984565,-11.524613223686472
8.010941803663053,3.478235369881889,9.33005840200955,-0.5886142523965366,-8.191399197112055,-10.60392680152604
8.045724157361873,3.3963213779107684,9.324172259485584,-0.6946535204117971,-7.987582691220155,-9.727805419421784
8.079687371140981,3.3164455509985666,9.317225724281466,-0.7919315746060149,-7.800399766150151,-8.893961213128062
8.112851826650967,3.238441553337065,9.309306408535406,-0.8808711867372956,-7.631473988527041,-8.099812353437194
8.145236242184337,3.1621268134517946,9.300497696668033,-0.9618693102716676,-7.482006201855867,-7.342614859470758
8.176857510318856,3.087306751433236,9.290879003565317,-1.0352954588663752,-7.352824987593811,-6.619579453009964
8.207730577833187,3.0137785015572978,9.280526048976654,-1.101491253396475,-7.2444229469139,-5.927976114050833
8.23786836284876,2.9413342720881586,9.26951113644269,-1.1607710145369832,-7.156979601716429,-5.265228772947556
8.26728170556964,2.869764476070994,9.25790342629732,-1.2134233022664587,-7.090372134462744,-4.629002068533572
8.29597935033035,2.7988607547263666,9.245769193274656,-1.2597133229517945,-7.044175641366644,-4.0172813446442825
8.323967957877613,2.7284189983127,9.233172060045138,-1.2998861363982372,-7.017655097176206,-3.428446079751448
8.351252147860741,2.658242447340938,9.220173198681156,-1.3341705971957518,-7.00975183364714,-2.8613357889707594
8.37783457233415,2.5881449290044665,9.206831492709199,-1.3627839550854595,-7.019067997530344,-2.3153061752322466
8.403716021624195,2.517954249029163,9.193203653158344,-1.385937016837782,-7.043853117363671,-1.790272049827542
8.428895564114487,2.4475157178555262,9.179344282989966,-1.4038397373360574,-7.081997466748254,-1.2867324568381986
8.453370721293043,2.3766957431880438,9.165305885616606,-1.4167070619044393,-7.131037217826448,-0.8057727373536934
8.477137678724922,2.305385371009779,9.151138814997562,-1.4247647892779762,-7.188176256814369,-0.3490382074315171
8.50019153243502,2.2335036084416355,9.136891167104782,-1.4282551713522913,-7.2503288096725536,0.0813250591787481
8.522526568519437,2.16100032034491,9.12260861539126,-1.4274419207605038,-7.314185573591051,0.48276498418872027
8.544136571722886,2.0878584646089995,9.108334196183653,-1.4226142709186167,-7.376303845127761,0.8524534697927074
8.565015156368975,2.0140954261577217,9.094108053474468,-1.4140897362206897,-7.4332193095363275,1.1874474842345044
8.585156110630553,1.9397632330623584,9.07996715611226,-1.4022152613783447,-7.481574021429001,1.4848728562810602
8.604553742961176,1.8649474928480685,9.065945003498477,-1.3873665328155342,-7.518252142601476,1.7421183728055254
8.623203217889657,1.7897649714220538,9.052071338170322,-1.369945349087479,-7.5405127762843565,1.9570248068412381
8.641100867603877,1.7143598436592102,9.038371884679448,-1.3503751010190665,-7.546108278990297,2.128052328051238
8.658244466040468,1.6388987608693073,9.024868133669257,-1.329094577738554,-7.5333770874114725,2.2544108424766414
8.674633453649161,1.5635649899951927,9.011577187891872,-1.3065504693137877,-7.501302408001295,2.3361412173739047
8.690269103549113,1.4885519659151798,8.998511683198734,-1.2831890571400486,-7.449531766825431,2.3741406142189767
8.705154623208266,1.4140566482469255,8.985679792627334,-1.259447650997859,-7.378356793244405,2.370131402464188
8.719295189690735,1.3402730803144813,8.973085316117356,-1.2357463369732171,-7.2886569449873395,2.3265792694772522
8.73269792049388,1.2673865108646079,8.960727852747624,-1.2124805442784445,-7.1818144428307376,2.246571147293507
8.745371785602526,1.1955683664363004,8.94860304730484,-1.1900148328055096,-7.059609948685593,2.1336667153565503
8.757327469266889,1.1249722669494444,8.936702898976785,-1.168678165651944,-6.924109280308213,1.991738224270026
8.768577191936384,1.0557311741463622,8.925016117320265,-1.1487607834092437,-6.7775508140861485,1.824812381050445
8.779134503677847,0.9879556660055007,8.913528509486172,-1.1305126595987391,-6.622241528396496,1.636925540683482
8.789014060337902,0.9217332507215357,8.902223382890185,-1.1141434041919043,-6.46046734530737,1.4320001243727003
8.798231392845118,0.8571285772684619,8.891081948848266,-1.0998234029481773,-6.294420994940165,1.21374668417467
8.806802678617803,0.7941843673190603,8.880083714818785,-1.0876859361064306,-6.126148418262642,0.9855928732201594
8.814744522290994,0.7329228831364338,8.86920685545772,-1.077830007374229,-5.95751296809533,0.7506380813760649
8.822073751122359,0.6733477534554806,8.858428555383979,-1.0703236265604685,-5.790175456254484,0.5116307842644352
8.828807228656913,0.6154459988929357,8.847725319118375,-1.0652073187178241,-5.625587410497721,0.2709647012440202
8.834961688645842,0.5591901247879585,8.837073245931197,-1.062497671705384,-5.464994663195148,0.03068954028923212
8.840553589893721,0.504540178156007,8.826448269214143,-1.0621907763024916,-5.309448478756376,-0.20746774313790148
8.845598991675281,0.4514456933684433,8.81582636145112,-1.0642654537338707,-5.159821721587887,-0.44207479934128585
8.850113448608965,0.39984747615256444,8.80518370691378,-1.0686862017272836,-5.016827969830571,-0.6719618766838571
