th1 (rad),w1 (rad/s),th2 (rad),w2 (rad/s),a1 (rad/s^2),a2 (rad/s^2)
5.7101808182144875,2.0408844897696707,0.43644633378844383,1.859911231784369,10.27418420508283,-13.137898882740764
5.730589663112184,2.143626331820499,0.4550454461062875,1.7285322429569612,10.022259369951149,-13.54311219118432
5.752025926430389,2.2438489255200103,0.4723307685358571,1.593101121045118,9.785923265393096,-13.963378697015445
5.774464415685589,2.341708158173941,0.48826177974630824,1.4534673340749635,9.567690286313391,-14.396137579039785
5.797881497267329,2.4373850610370753,0.5027964530870579,1.3095059582845656,9.370203117051945,-14.839110465363158
5.822255347877699,2.5310870922075948,0.5158915126699035,1.161114853630934,9.196173197567727,-15.29029921477166
5.847566218799775,2.623048824183272,0.5275026612062128,1.0082118614832174,9.04830854032065,-15.74796079463217
5.873796707041608,2.7135319095864787,0.537584779821045,0.8507322535368957,8.929224107956257,-16.210549952411753
5.900932026137473,2.802824150666041,0.546092102356414,0.6886267540127782,8.841327347455094,-16.676617000655288
5.9289602676441335,2.8912374241405923,0.5529783698965418,0.5218605840062253,8.786667866056343,-17.144643378899115
5.9578726418855394,2.9791041028011556,0.5581969757366041,0.3504141502172341,8.766735300386781,-17.61279125877902
5.987663682913551,3.066771455805023,0.5617011172387765,0.1742862376294439,8.782182810615687,-18.07853481382751
6.018331397471601,3.15459328391118,0.5634439796150709,-0.006499110508831202,8.832445011920461,-18.538129453627537
6.049877330310713,3.2429177340303847,0.5633789885099826,-0.19188040504510656,8.915208481208373,-18.985861275807707
6.082306507651017,3.3320698188424687,0.5614601844595315,-0.38173901780318364,9.025680922495267,-19.413003224689735
6.115627205839442,3.422326628067421,0.5576427942814997,-0.5758690500500809,9.155594002166449,-19.80639037969032
6.149850472120116,3.5138825680890857,0.5518841037809988,-0.7739329538469841,9.291870638043415,-20.14652281486804
6.184989297801007,3.60680127446952,0.5441447742425289,-0.9753981819956645,9.414902647313417,-20.405128339499225
6.221057310545702,3.700950300942654,0.5343907924225723,-1.1794494653906569,9.496443061861008,-20.542202994975746
6.2580668135551285,3.7959147315612642,0.5225962977686657,-1.3848714953404144,9.497260113916411,-20.50275219949327
6.296025960870741,3.8908873327004283,0.5087475828152616,-1.589899017335347,9.36498705499176,-20.213864235004685
6.334934834197746,3.984537203250346,0.49284859264190806,-1.792037659685394,9.033098435178639,-19.583450335880556
6.374780206230249,4.074868187602132,0.47492821604505414,-1.9878721630441996,8.422659686030412,-18.502993574075013
6.41552888810627,4.159094784462437,0.4550494944146121,-2.1729020987849497,7.449245992414783,-16.85769306613171
6.457119835950895,4.233587244386585,0.4333204734267626,-2.341479029446267,6.037595009137297,-14.54759791221764
6.499455708394761,4.293963194477958,0.4099056831322999,-2.4869550085684433,4.144967048160747,-11.521027601123464
6.5423953403395405,4.335412864959565,0.3850361330466155,-2.602165284579678,1.7895852623370143,-7.8150123244531
6.585749468989136,4.3533087175829355,0.3590144802008187,-2.680315407824209,-0.9266137886992966,-3.5873476894248646
6.6292825561649655,4.344042579695943,0.33221132612257664,-2.7161888847184574,-3.8167924913672726,0.8823376915314342
6.672722981961925,4.30587465478227,0.3050494372753921,-2.707365507803143,-6.64074675749623,5.238319896169996
6.715781728509748,4.239467187207308,0.27797578219736063,-2.654982308841443,-9.162941731167699,9.132362473123534
6.758176400381822,4.147837769895631,0.2514259591089462,-2.563658684110208,-11.211743073741326,12.309001161731477
6.799654778080778,4.0357203391582175,0.22578937226784412,-2.440568672492893,-12.711846598298475,14.65251979564316
6.84001198147236,3.9086018731752326,0.2013836855429152,-2.2940434745364615,-13.679706458248473,16.18091541791004
6.879098000204112,3.771804808592748,0.17844325079755058,-2.132234320357361,-14.193522160538318,17.00319242242021
6.916816048290039,3.6298695869873647,0.15712090759397696,-1.962202396133159,-14.357686082560079,17.268354111177494
6.953114744159913,3.4862927261617638,0.13749888363264537,-1.789518855021384,-14.275679517236156,17.126175303189672
6.98797767142153,3.343535930989402,0.11960369508243153,-1.6182571019894874,-14.03539030019114,16.70561201468739
7.0214130307314235,3.2031820279874905,0.10342112406253666,-1.4512009818426135,-13.704404562243237,16.107505124932697
7.053444851011299,3.066137982365058,0.08890911424411052,-1.2901259305932866,-13.331082660513447,15.40567164866066
7.08410623083495,2.9328271557599237,0.07600785493817766,-1.13606921410668,-12.948039565786065,14.651569855795456
7.113434502392549,2.803346760102063,0.06464716279711086,-0.9895535155487254,-12.57604302353481,13.879678885077173
7.1414679699935695,2.677586329866715,0.054751627641623606,-0.8507567266979537,-12.227431705413872,13.112277968660617
7.1682438332922365,2.555312012812576,0.04624406037464407,-0.7196339470113475,-11.908788323508615,12.363216633065095
7.193796953420362,2.43622412957749,0.0390477209045306,-0.5960017806806965,-11.62289760382047,11.640695667658088
7.2181591947161365,2.319995153539285,0.03308770309772363,-0.4795948240041157,-11.3701221786554,10.949233373900059
7.241359146251529,2.206293931752731,0.028291754857682476,-0.3701024902651151,-11.149342402645072,10.291015983762268
7.263422085569056,2.0948005077262803,0.024590729955031324,-0.2671923304274924,-10.958584867651933,9.666804963451602
7.284370090646319,1.985214659049761,0.0219188066507564,-0.17052428079297638,-10.795435343797005,9.076535133421617
7.304222237236816,1.877260305611791,0.020213563842826635,-0.07975892945876022,-10.657305437545327,8.519701433591113
7.322994840292934,1.7706872512363376,0.019415974548239033,0.005438084877150917,-10.541601409445313,7.995603339731366
7.340701712805298,1.6652712371418845,0.01947035539701054,0.08539411827446458,-10.44582828137216,7.503494572616183
7.357354425176716,1.560812954328163,0.020324296579755187,0.1604290640006264,-10.367651563060194,7.042670547466913
7.372962554719997,1.4571364386975612,0.02192858721976145,0.2308557694752955,-10.3049314974029,6.612515466909859
7.387533919106973,1.3540871237235321,0.024237144914514407,0.29698092414439414,-10.255739693156196,6.212523750574341
7.401074790344208,1.2515297267919703,0.02720695415595835,0.35910616165013753,-10.218364644032636,5.842305607548973
7.413590087612128,1.149346080351644,0.030798015772459726,0.4175292177256273,-10.191310393693161,5.501583262186062
7.425083548415645,1.0474329764147123,0.034973307949715995,0.4725450503474879,-10.173291126917409,5.190182126842155
7.435557878179792,0.9457000651455383,0.039698758453190874,0.5244468716159094,-10.163223495468952,4.908019725540879
7.445014878831247,0.8440678301908487,0.04494322716934997,0.5735270688713182,-10.16021785209767,4.6550941718934995
7.4534555571331556,0.742465651669872,0.05067849785806315,0.6200780105902532,-10.16356915315238,4.43147333232036
7.460880213649855,0.6408299601383481,0.056879277963965684,0.6643927439134568,-10.172748022793026,4.237285353720749
7.467288513251238,0.5391024799104178,0.06352320540310025,0.7067655974506644,-10.187392298587277,4.072710930520398
7.472679538050342,0.43722855692454504,0.0705908613776069,0.7474927067558683,-10.207299265029764,3.937977480166353
7.477051823619588,0.3351555642742474,0.07806578844516558,0.7868724815575319,-10.232418705009003,3.83335525467432
7.480403379262331,0.23283137722415737,0.0859345132607409,0.8252060341042751,-10.262846843407914,3.7591553146924834
7.482731693034572,0.13020290879007823,0.09418657360178366,0.8627975872511999,-10.298821210227107,3.7157292137553206
7.484033722122473,0.027214696687807155,0.10281454947429566,0.8999548793887532,-10.340716403697986,3.703470169371555
7.484305869089352,-0.0761924673491727,0.1118140982681832,0.9369895810824688,-10.389040678575869,3.722815421012006
7.48354394441586,-0.1800828741349314,0.12118399407900789,0.9742177352925888,-10.444433212567263,3.774249379092811
7.481743115674511,-0.284527206260604,0.13092617143193377,1.011960229083517,-10.507661804372695,3.858307037514514
7.478897843611905,-0.38960382430433094,0.14104577372276894,1.050543299458662,-10.579620616701158,3.9755769346735272
7.475001805368861,-0.4954000304713425,0.15155120671735556,1.0902990688053973,-10.661327378458203,4.126702676645913
7.470047805064148,-0.6020133042559246,0.16245419740540953,1.1315660955718565,-10.753919176396105,4.312381643713415
7.464027672021588,-0.7095524960198857,0.1737698583611281,1.1746899120089906,-10.8586455615218,4.533358934999878
7.45693214706139,-0.8181389516351036,0.18551675748121801,1.2200235013589895,-10.976857118200996,4.790413792193932
7.448750757545039,-0.9279075228171136,0.1977169924948079,1.2679276392809289,-11.109986822083995,5.084334579495044
7.439471682316867,-1.0390073910379536,0.2103962688876172,1.3187709850758793,-11.259520346257117,5.41587674067629
7.429081608406488,-1.1516025945005248,0.223583978738376,1.3729297524826423,-11.426949825385442,5.785695810662419
7.417565582461482,-1.2658720927543792,0.23731327626320242,1.4307867105892664,-11.61370326958168,6.19424426725145
7.404906861533939,-1.382009125450196,0.2516211433690951,1.492729153261781,-11.821038592647243,6.64161643097371
7.391086770279437,-1.5002195113766685,0.26654843490171287,1.5591453175715182,-12.0498867889783,7.127319346573958
7.37608457516567,-1.6207183792664515,0.28213988807742807,1.6304185110372578,-12.300622838950012,7.649939163035022
7.359877391373006,-1.7437246076559516,0.29844407318780064,1.706917902667608,-12.57273518126929,8.206661612782266
7.342440145296447,-1.8694519594686445,0.31551325221447674,1.7889845187954307,-12.864355064413651,8.792591798923858
7.32374562570176,-1.998095510112781,0.333403097402431,1.8769104367846694,-13.171596488862614,9.39980367033671
7.303764670600633,-2.129811475001407,0.3521722017702777,1.9709084734880364,-13.48764807942192,10.016036601370129
7.282466555850619,-2.2646879557956265,0.37188128650515806,2.071068839501738,-13.8015555943329,10.622953257339226
7.259819676292663,-2.4027035117389555,0.39259197490017544,2.17729837207513,-14.096649313095638,11.193895668453363
7.235792641175274,-2.5436700048699117,0.41436495862092676,2.289237328759664,-14.348625504787208,11.691155322516263
7.210355941126575,-2.6871562599177836,0.4372573319085234,2.4061488819848265,-14.523420764761303,12.062958020410692
7.183484378527397,-2.832390467565397,0.46131882072837166,2.5267784621889335,-14.575271443046717,12.24072493435861
7.155160473851743,-2.978143181995864,0.486586605350261,2.6491857115325197,-14.445775653412964,12.137775677133453
7.125379042031785,-3.1226009385299935,0.5130784624655862,2.770563468303854,-14.06536655942422,11.651478854034925
7.094153032646485,-3.263254604124236,0.5407840971486247,2.8870782568442035,-13.359186773018042,10.671681359354324
7.061520486605243,-3.3968464718544165,0.5696548797170667,2.9937950704377467,-12.259410682093806,9.098331815478483
7.027552021886699,-3.5194405786753546,0.5995928304214442,3.0847783885925315,-10.724678907658987,6.869259327934972
6.992357616099945,-3.6266873677519444,0.6304406143073695,3.153470981871881,-8.76361518226158,3.993838191846882
6.956090742422426,-3.71432351957456,0.6619753241260884,3.19340936379035,-6.453915970545536,0.5804952201795441
6.91894750722668,-3.7788626792800155,0.6939094177639918,3.1992143159921453,-3.9447478924389623,-3.159346861691932
6.881158880433881,-3.818310158204405,0.7259015609239133,3.167620847375226,-1.4337237047755327,-6.943372055159029
6.842975778851836,-3.8326473952521605,0.7575777693976656,3.0981871268236354,0.8775715740029779,-10.48109530002834
6.804649304899315,-3.8238716795121306,0.788559640665902,2.993376173823352,2.8313204395454803,-13.541646117662602
6.766410588104193,-3.795558475116676,0.8184934024041355,2.857959712646726,4.343196421978066,-15.996507956462482
6.728455003353027,-3.7521265108968955,0.8470729995306028,2.6979946330821014,5.40442687206972,-17.823371277974793
6.690933738244057,-3.6980822421761985,0.8740529458614238,2.5197609203023537,6.062457602835482,-19.079665001083022
6.653952915822296,-3.6374576661478435,0.8992505550644473,2.3289642702915234,6.394218059547299,-19.865345288012136
6.617578339160818,-3.5735154855523703,0.9225401977673625,2.1303108174114023,6.483381032933188,-20.290995718664544
6.581843184305294,-3.5086816752230385,0.9438433059414766,1.9274008602247568,6.4062006079897085,-20.4577901542109
6.546756367553064,-3.4446196691431417,0.9631173145437242,1.7228229586826478,6.225282951774024,-20.44852239358583
6.512310170861633,-3.3823668396254014,0.9803455441305506,1.5183377347467895,5.988601624669716,-20.3260030568825
6.478486502465379,-3.3224808233787044,0.9955289214780185,1.3150777041779644,5.731165135824158,-20.135222127437107
6.445261694231592,-3.265169172020463,1.008679698519798,1.1137254829035934,5.477593287876532,-19.90684141491106
6.4126100025113875,-3.210393239141698,1.019816953348834,0.9146570687544828,5.244675251024558,-19.66071332438152
6.380506070119971,-3.1579464866314524,1.0289635240363788,0.7180499355106676,5.043527405898111,-19.4088818495604
6.348926605253657,-3.1075112125724713,1.0361440233914856,0.5239611170150636,4.881263584353052,-19.15793408739219
6.3178514931279315,-3.0586985767289407,1.0413836345616363,0.3323817761411417,4.76222129238401,-18.91075518195691
6.287264507360642,-3.011076363805101,1.0447074523230477,0.1432742243215726,4.688830019229078,-18.66780060583542
6.257153743722591,-2.96418806361281,1.0461401945662634,-0.04340378173678161,4.66220951568039,-18.428003399864018
6.2275118630864625,-2.9175659684560062,1.0457061567488957,-0.2276838157354218,4.682572543957784,-18.189416122964154
6.198336203401903,-2.8707402430164284,1.0434293185915415,-0.4095779769650634,4.749490060855701,-17.949664650207602
6.169628800971738,-2.8232453424078714,1.039333538821891,-0.5890746234671393,4.862061888631444,-17.70627039737326
6.141396347547659,-2.774624723521557,1.0334427925872196,-0.7661373274408719,5.019024034742172,-17.456881069218046
6.1136501003124435,-2.7244344831741354,1.025781419312811,-0.9407061381330524,5.218814898092321,-17.19943764648979
6.086405755480702,-2.672246334193212,1.0163743579314803,-1.1127005145979503,5.459616123738744,-16.93229637807524
6.05968329213877,-2.6176501729558246,1.0052473527855008,-1.2820234783787026,5.739379246134022,-16.654318248004444
6.033506790409212,-2.5602563804944842,0.9924271180017138,-1.448566660858747,6.055845976703538,-16.364934054546662
6.007904226604267,-2.499697920727449,0.9779414513931263,-1.6122160014042137,6.406567642893741,-16.06419032898497
5.982907247396993,-2.435632244298511,0.9618192913790842,-1.7728579046940633,6.788927578108757,-15.752779431161658
5.958550924954007,-2.367742968517424,0.9440907123321436,-1.93038569900568,7.20016898747715,-15.43205599415602
5.934873495268834,-2.2957412786426525,0.9247868553420868,-2.0847062589472403,7.637429831262427,-15.104041239758862
5.911916082482407,-2.219366980330028,0.9039397927526144,-2.235746671344829,8.09778548177601,-14.77141639555787
5.889722412679107,-2.1383891255122682,0.8815823260391661,-2.3834608353004074,8.578299260179637,-14.437506398285294
5.8683385214239845,-2.052606132910472,0.857747717686162,-2.5278358992832604,9.07608040839078,-14.106255176788778
5.84781246009488,-1.961845328826564,0.8324693586933294,-2.668898451051148,9.58834857410281,-13.782193997015062
5.828194006806614,-1.865961843085536,0.8057803741828179,-2.8067203910212988,10.112503465992509,-13.470404553690381
5.809534388375758,-1.764836808425611,0.7777131702726049,-2.9414244365582025,10.646197953658486,-13.176478642672691
5.791886020291503,-1.658374828889026,0.7482989259070228,-3.0731892229849294,11.187412517564981,-12.906476271820436
5.775302272002612,-1.5465007037133762,0.7175670336771736,-3.2022539857031336,11.734528557220685,-12.666883879378858
5.759837264965479,-1.4291554181411694,0.6855444938201423,-3.3289228244969222,12.28639757278613,-12.464573812639477
5.745545710784067,-1.306291442413308,0.652255265575173,-3.453568562623317,12.842402534983892,-12.306765214588705
5.732482796359934,-1.177867417063469,0.6177195799489398,-3.576636214769204,13.402506672935836,-12.20098473391402
5.720704122189299,-1.0438423503341108,0.5819532178012478,-3.698646062108344,13.967283160375432,-12.155022650346389
5.710265698685958,-0.9041695187303564,0.5449667571801643,-3.820196288611808,14.53791633410151,-12.17687552857412
5.7012240034986545,-0.7587903553893414,0.5067647942940462,-3.9419650438975493,15.116160466060172,-12.274659498686127
5.6936360999447615,-0.6076287507287397,0.4673451438550707,-4.06471163888441,15.704234708612741,-12.456467336139545
5.687559812437474,-0.45058640364261227,0.4266980274662266,-4.189276312245806,16.304621091143705,-12.730125561230048
5.683053948401048,-0.2875401927311752,0.38480526434376855,-4.316577567858106,16.919714060721333,-13.102781593137063
5.680178546473736,-0.11834305212396187,0.3416394886651875,-4.447605383789477,17.551241720195634,-13.580210898153927
5.678995115952497,0.05716936507799447,0.29716343482729274,-4.583407492771016,18.199336172104122,-14.165673654703797
5.679566809603277,0.2391627267990357,0.2513293598995826,-4.725064229318054,18.86106802633201,-14.858062010924842
5.681958436871268,0.4277734070623558,0.20407871760640206,-4.873644849427302,19.52817423224617,-15.648956136193318
5.686236170941892,0.6230551493848175,0.15534226911212903,-5.030134410789236,20.18360244079498,-16.518053189238636
5.69246672243574,0.8248911737927673,0.10504092500423667,-5.195314942681622,20.796395820199876,-17.426282533542444
5.700715634173668,1.032855131994766,0.05308777557742045,-5.369577768017047,21.314435296836447,-18.305888157514573
5.711044185493615,1.2459994849631306,-0.0006080021027500201,-5.552636649592193,21.65485605438549,-19.04713868127364
5.723504180343246,1.4625480455069855,-0.05613436859867195,-5.743108036404929,21.693012770250906,-19.48274030364322
5.738129660798316,1.6794781732094946,-0.11356544896272125,-5.937935439441361,21.253446032728597,-19.374544064096888
5.754924442530411,1.8920126335367806,-0.17294480335713486,-6.13168088008233,20.11120348166945,-18.413900254011466
5.773844568865779,2.093124668353475,-0.23426161215795815,-6.315819882622445,18.01852357881407,-16.256297747752413
5.794775815549314,2.273309904141616,-0.2974198109841826,-6.478382860099969,14.7748979921817,-12.615344939068532
5.81750891459073,2.421058884063433,-0.36220363958518226,-6.604536309490654,10.344269347078638,-7.421878849433337
5.8417195034313645,2.5245015775342194,-0.4282490026800888,-6.678755097984987,4.977904525943753,-0.991969441329798
5.866964519206706,2.574280622793657,-0.4950365536599387,-6.6886747923982846,-0.754666251412661,5.92971415130146
5.892707325434643,2.5667339602795303,-0.5619233015839216,-6.62937765088527,-6.112200538968691,12.368153027599506
5.9183746650374385,2.5056119548898432,-0.6282170780927743,-6.505696120609275,-10.457377451068451,17.490812315759396
5.943430784586337,2.4010381803791585,-0.693274039298867,-6.330787997451681,-13.476272875728386,20.901525836796953
5.967441166390128,2.266275451621875,-0.7565819192733838,-6.121772739083712,-15.202681405680353,22.66785149560495
5.990103920906347,2.1142486375650713,-0.8177996466642209,-5.8950942241276625,-15.886736327830237,23.139272860373655
6.011246407281998,1.9553812742867689,-0.8767505889054975,-5.6637014955239255,-15.83903027910005,22.736322019364955
6.030800220024866,1.7969909714957684,-0.9333876038607367,-5.436338275330276,-15.332927088886418,21.821471726961445
6.0487701297398235,1.643661700606904,-0.9877509866140395,-5.218123558060662,-14.570768627086718,20.657134558125165
6.0652067467458926,1.4979540143360368,-1.039932222194646,-5.01155221247941,-13.687057731597964,19.412838648553414
6.080186286889253,1.361083437020057,-1.0900477443194403,-4.817423825993876,-12.76454025644187,18.188669172105694
6.0937971212594535,1.2334380344556384,-1.1382219825793791,-4.635537134272819,-11.85075131087342,17.038409013983042
