th1 (rad),w1 (rad/s),th2 (rad),w2 (rad/s),a1 (rad/s^2),a2 (rad/s^2)
4.815414776209035,2.7953039927765655,4.580112072088428,-2.4909926046019275,6.479114569792766,5.235484942310753
4.8433678161368015,2.860095138474493,4.555202146042409,-2.43863775517882,5.767259372184134,6.474472538290142
4.871968767521547,2.9177677321963342,4.530815768490621,-2.3738930297959184,5.124304571656583,7.65825821080203
4.90114644484351,2.9690107779129002,4.507076838192662,-2.2973104476878983,4.5681639624727595,8.760663580658306
4.930836552622639,3.0146924175376277,4.4841037337157825,-2.2097038118813153,4.108000840737723,9.76726161088276
4.960983476798016,3.0557724259450048,4.462006695596969,-2.1120311957724875,3.7450224603617466,10.674378563889393
4.991541201057466,3.093222650548622,4.440886383639244,-2.005287410133594,3.474178072325314,11.486809551933028
5.022473427562952,3.127964431271875,4.420833509537908,-1.8904193146142636,3.2861725476315486,12.215059369005047
5.05375307187567,3.1608261567481906,4.401929316391765,-1.7682687209242132,3.169343529713931,12.87273788551455
5.085361333443152,3.19251959204533,4.384246629182523,-1.6395413420690677,3.1111519151322184,13.474462544742805
5.117286529363605,3.223631111196652,4.367851215761832,-1.5047967166216396,3.0992126509813467,14.034375720496925
5.149522840475572,3.2546232377064657,4.352803248595616,-1.3644529594166703,3.1219066687577737,14.565226481186686
5.182069072852636,3.2858423043940435,4.339158719001449,-1.2188006946048036,3.16866645122565,15.077893764868318
5.214927495896577,3.3175289689063,4.326970712055401,-1.0680217569561203,3.2300362968541996,15.581215189042789
5.2481027855856395,3.349829331874842,4.316290494485839,-0.9122096050656925,3.2975943885773096,16.08200441075747
5.281601078904388,3.382805275760615,4.3071683984351825,-0.7513895609581178,3.363802218653127,16.585169507715964
5.315429131661994,3.416443297947146,4.299654502825601,-0.5855378658809582,3.4218261078364725,17.09387370671856
5.349593564641466,3.450661559025511,4.293799124166791,-0.4145991288137726,3.465358929949624,17.60970311899305
5.38410018023172,3.4853151483250073,4.289653132878653,-0.23850209762384209,3.488458329281071,18.132823031293768
5.41895333171497,3.520199731617818,4.2872681119024145,-0.0571738673109044,3.4854100303695343,18.662115597800998
5.454155329031148,3.5550538319215135,4.286696373229305,0.1294472886671056,3.450620239374834,19.195298852864383
5.489705867350363,3.589560034315262,4.287990846115976,0.32140027719574943,3.378538624468695,19.729031114609082
5.525601467693516,3.6233454205599487,4.291204848887934,0.5186905883418402,3.263612141325875,20.259007082806097
5.561834921899115,3.6559815419732073,4.296391754771352,0.7212806591699013,3.100269457315205,20.780052949423734
5.598394737318848,3.686984236546359,4.303604561363051,0.9290811886641386,2.882935523547093,21.286228076646633
5.6352645796843115,3.71581359178183,4.312895373249693,1.141943469430605,2.6060756812314896,21.770940505226047
5.67242271560213,3.741874348594145,4.324314807943999,1.3596528744828655,2.264268396607729,22.227082860119456
5.7098414590880715,3.764517032560222,4.337911336688828,1.58192370308406,1.8523051927206498,22.64719416964356
5.7474866294136735,3.783040084487429,4.353730573719669,1.8083956447804956,1.3653155316205492,23.023651721513613
5.785317030258548,3.796693239803634,4.371814530167474,2.038632161995632,0.7989132821782117,23.348895349220584
5.823283962656584,3.8046823726254164,4.392200851787431,2.272121115487838,0.149360007415808,23.615684493600142
5.861330786382838,3.8061759726995743,4.414922062942309,2.508277960423839,-0.5862613237072508,23.817386063677265
5.8993925461098335,3.8003133594625016,4.440004842546547,2.746451821060612,-1.4098703624578308,23.94828861191442
5.9373956797044585,3.7862146558379233,4.467469360757153,2.985934707179756,-2.322221090084922,24.00393576783889
5.975257826262838,3.762992444937074,4.4973287078289506,3.225974064858145,-3.3227528025984796,23.981469408733055
6.012887750712208,3.729764916911089,4.529588448477532,3.4657887589454757,-4.409473290747032,23.879970892723797
6.050185399881319,3.685670184003619,4.5642463360669865,3.7045884678727137,-5.578887948969364,23.700787074271105
6.087042101721355,3.6298813045139253,4.601292220745713,3.9415963386154247,-6.825988640802476,23.447827018263446
6.123340914766494,3.5616214181059007,4.640708184131867,4.176074608798059,-8.144315327737539,23.12781557929406
6.158957128947553,3.4801782648285253,4.682468930219848,4.407352764591,-9.52610157280079,22.750491542337432
6.193758911595839,3.3849172491005173,4.726542457865758,4.634857680014374,-10.962511958791714,22.32874098998048
6.227608084086844,3.2752921295126,4.772891034665902,4.858145089914179,-12.443975201432522,21.87866101328203
6.26036100538197,3.150852377498275,4.821472485565043,5.076931700046999,-13.960611381189883,21.419554679130687
6.291869529156953,3.011246263686376,4.872241802565513,5.291127246838306,-15.50274544834191,20.973864901238404
6.321981991793817,2.8562188092029572,4.925153075033896,5.50086589585069,-17.061492184626545,20.567061756333594
6.350544179885847,2.6856038873566916,4.980161733992404,5.706536513414026,-18.629390211110014,20.227503540198832
6.377400218759414,2.4993099852455916,5.037227099126544,5.908811548816014,-20.20105406196884,19.986294397030097
6.40239331861187,2.297299444625903,5.096315214614704,6.108674492786315,-21.773802479235066,19.87715736874164
6.425366313058129,2.0795614198335524,5.157401959542567,6.307446066473731,-23.34820473138538,19.93632571827488
6.4461619272564645,1.8460793725196987,5.220476420207304,6.50680932365648,-24.92845827983633,20.202417877267155
6.464622720981661,1.5967947897213353,5.2855445134438686,6.708833502429152,-26.522457649956046,20.71618518880036
6.480590668878874,1.3315702132217748,5.3526328484681605,6.915995354317156,-28.14131184482006,21.519875019244743
6.493906371011092,1.0501570947735743,5.421792802011332,7.1311941045096034,-29.797871955663325,22.655675784199726
6.504407941958828,0.7521783752169411,5.493104743056428,7.357750862351601,-31.503462591949756,24.162196706602284
6.511929725710997,0.43714374929744354,5.566682251679944,7.599372829417624,-33.26133379702518,26.066992597544637
6.516301163203972,0.10453041132719171,5.64267597997412,7.860042755393071,-35.05414904218632,28.371463564614746
6.517346467317243,-0.24601107909467146,5.721276407528051,8.143757391039218,-36.82083549856199,31.021643254363838
6.514886356526297,-0.6142194340802913,5.802713981438443,8.453973823582857,-38.41530473463495,33.85430452686892
6.5087441621854945,-0.9983724814266408,5.887253719674272,8.792516868851546,-39.537211507368475,36.50410877013981
6.498760437371228,-1.3937445965003254,5.975178888362787,9.157557956552944,-39.62917731322214,38.262411513803855
6.484822991406225,-1.7900363696325468,6.066754467928317,9.540182071690984,-37.764433578632186,37.91737175162748
6.4669226277098995,-2.1676807054188685,6.162156288645226,9.919355789207259,-32.640660740764204,33.72965726211344
6.44524582065571,-2.4940873128265104,6.261349846537299,10.256652361828394,-22.960221576728085,23.924536769751814
6.420304947527446,-2.723689528593791,6.363916370155583,10.495897729525911,-8.489241499460583,8.10353942602113
6.3930680522415075,-2.808581943588397,6.468875347450842,10.576933123786123,8.673254471626933,-11.055072928853903
6.364982232805623,-2.7218493988721275,6.574644678688704,10.466382394497584,24.403581472070954,-28.22712820138208
6.337763738816902,-2.477813584151418,6.679308502633679,10.184111112483764,35.219146748240966,-39.022512298027536
6.312985602975387,-2.1256221166690086,6.781149613758517,9.793885989503488,40.45820694173881,-42.824550017867836
6.291729381808697,-1.7210400472516205,6.879088473653552,9.36564048932481,41.60822444609716,-41.77671801889324
6.274518981336181,-1.304957802790649,6.9727448785468,8.947873309135879,40.51198475494202,-38.360998112692386
6.261469403308275,-0.8998379552412288,7.062223611638159,8.564263328008956,38.45823389116179,-34.240004230354124
6.252471023755862,-0.5152556163296109,7.147866244918249,8.221863285705414,36.1389084439603,-30.258328920755428
6.247318467592566,-0.15386653189000793,7.230084877775303,7.91927999649786,33.86371978311862,-26.75843962170764
6.245779802273666,0.18477066594117825,7.3092776777402815,7.651695600280783,31.743162560147994,-23.83298215285196
6.2476275089330775,0.5022022915426582,7.385794633743089,7.413365778752264,29.79566446259935,-21.4664787486311
6.252649531848504,0.8001589361686516,7.459928291530612,7.198700991265953,28.001843864776145,-19.60379831620777
6.2606511212101905,1.080177374816413,7.531915301443271,7.002663008103876,26.330008963286566,-18.18022942218633
6.271452894958355,1.3434774644492786,7.601941931524309,6.820860713882013,24.74748793299532,-17.13337268119268
6.284887669602847,1.590952343779232,7.67015053866313,6.649526987070086,23.225304600302604,-16.406957872820524
6.30079719304064,1.823205389782258,7.73664580853383,6.485457408341881,21.73982203882304,-15.951315253518734
6.319029246938462,2.0406036101704883,7.801500382617249,6.325944255806693,20.2730427737539,-15.722631211997744
6.339435283040167,2.2433340379080273,7.864759825175316,6.168717943686715,18.812333789998693,-15.681912048764392
6.361868623419247,2.431457375808014,7.926447004612183,6.011898823199071,17.34991618666969,-15.794031054814571
6.386183197177328,2.604956537674711,7.986565992844174,5.853958512650926,15.882264302869192,-16.026988112567608
6.4122327625540745,2.763779180703403,8.045105577970682,5.69368863152525,14.409473646307656,-16.351402747461474
6.439870554361108,2.9078739171664796,8.102042464285935,5.530174604050635,12.934622310079886,-16.740215612083784
6.468949293532773,3.0372201402672783,8.15734421032644,5.362772447929797,11.463138836441322,-17.168555794705725
6.499321494935446,3.1518515286316915,8.21097193480574,5.191086889982739,10.002187268827923,-17.61372691691974
6.5308400102217625,3.251873401319971,8.262882803705567,5.014949620813542,8.560080978564145,-18.05526695396675
6.563358744234963,3.3374742111056124,8.313032299913703,4.834396951273874,7.145737764653892,-18.47504198414051
6.596733486346019,3.4089315887521514,8.361376269426442,4.649646531432468,5.768188490961236,-18.857341086652276
6.63082280223354,3.4666134736617638,8.407872734740767,4.4610731205659455,4.436149884402969,-19.188947399129948
6.665488936970158,3.5109749725057933,8.452483465946427,4.269183646574646,3.157669308482551,-19.45916820192676
6.7005986866952165,3.5425516655906186,8.495175302412173,4.0745919645553785,1.9398458095510842,-19.65981424850542
6.736024203351123,3.5619501236861293,8.535921222057727,3.8779938220703243,0.7886280143445434,-19.78512498428841
6.7716437045879845,3.5698364038295747,8.57470116027843,3.68014257222744,-0.2913140240803512,-19.831641523844404
6.80734206862628,3.5669232635887713,8.611502586000704,3.481826156988996,-1.2966488638953326,-19.798033180229478
6.843011301262168,3.553956774949818,8.646320847570594,3.283845825186701,-2.225383628520219,-19.684885989674108
6.878550869011666,3.531702938664616,8.679159305822461,3.08699696528996,-3.076813332546819,-19.494463177335852
6.913867898398312,3.500934805339148,8.71002927547536,2.8920523335166015,-3.8514297214939224,-19.230448049133326
6.948877246451703,3.4624205081242088,8.738949798810527,2.699747853025268,-4.550799818338069,-18.89767957261444
6.983501451532945,3.416912509940828,8.76594727734078,2.5107710572991238,-5.177423912178844,-18.501890120131968
7.017670576632353,3.3651382708190396,8.791054987913771,2.325752156097804,-5.734581888739748,-18.0494536619153
7.051321959340544,3.307792451931642,8.81431250947475,2.145257619478651,-6.2261757094746235,-17.547151260424975
7.08439988385986,3.2455306948368956,8.835765085669536,1.9697861068744014,-6.656574601040549,-17.001959151979303
7.116855190808229,3.17896494882649,8.85546294673828,1.7997665153546083,-7.030468208295615,-16.42086310819938
7.148644840296494,3.108660266743534,8.873460611891826,1.6355578842726144,-7.352731664597876,-15.810701232609112
7.179731442963929,3.0351329500975552,8.889816190734551,1.4774508719465234,-7.628305301587882,-15.17803593563786
7.210082772464904,2.9588498970816763,8.904590699454017,1.3256705125901447,-7.86209060212152,-14.529054597610795
7.239671271435721,2.880228991060461,8.917847404579918,1.1803799666140367,-8.05886302707211,-13.869497410845831
7.268473561346326,2.79964036078974,8.929651204246058,1.0416849925055782,-8.223201539336577,-13.204610108267774
7.296469964954223,2.7174083453963744,8.940068054171114,0.9096388914229004,-8.35943401464259,-12.539118739743447
7.323644048408187,2.6338140052499486,8.949164443085342,0.784247704025466,-8.471597265965446,-11.877223336323015
7.349982188460686,2.5490980325902943,8.957006920125597,0.6654754706622358,-8.563410104798464,-11.222607182367932
7.375473168786589,2.4634639315423095,8.963661674832219,0.5532493988385565,-8.638257699661796,-10.578458463503098
7.400107808102012,2.3770813545456915,8.969194168820604,0.4474648142035255,-8.699185447233287,-9.94750123752569
7.423878621647469,2.2900895000733588,8.97366881696264,0.3479898018282686,-8.748900619559738,-9.332032948336868
7.446779516648203,2.2026004938777612,8.977148714980922,0.2546694723448999,-8.789780167339691,-8.733966034570845
7.46880552158698,2.1147026922043644,8.979695409704371,0.16732981199919145,-8.82388322143119,-8.154871544369126
7.489952548509024,2.0264638599900526,8.981368707824362,0.08578109655550019,-8.85296702259743,-7.596023030931601
7.510217187108924,1.9379341897640783,8.982226518789917,0.009820866246184182,-8.878505206619465,-7.058439351458599
7.5295965290065645,1.8491491376978837,8.982324727452378,-0.06076352726840181,-8.901707565494833,-6.542925312150233
7.548088020383544,1.7601320620429353,8.981717092179693,-0.12619278038990414,-8.923540586222847,-6.050109386513608
7.565689341003973,1.6708966561807068,8.980455164375794,-0.18669387425504022,-8.944748230498503,-5.580477980057205
7.58239830756578,1.5814491738757217,8.978588225633244,-0.24249865405561227,-8.965872557990755,-5.134405921463476
7.598212799304537,1.4917904482958142,8.976163239092688,-0.293842713270247,-8.987273911388359,-4.712183030700632
7.613130703787496,1.4019177091819306,8.973224811959986,-0.34096454357725337,-9.00915047330906,-4.314036751797748
7.6271498808793154,1.31182620444884,8.969815166524214,-0.38410491109523087,-9.031557074927392,-3.940150946337852
7.640268142923804,1.221510633699566,8.96597411741326,-0.4235064205586094,-9.05442318603791,-3.590681027383853
7.6524832492608,1.130966401839187,8.961739053207674,-0.4594132308324479,-9.077570049002421,-3.2657656765109464
7.663792913279192,1.0401907013491627,8.95714492089935,-0.49207088759755735,-9.100726937665684,-2.9655354323194554
7.6741948202926835,0.9491834319725059,8.952224212023374,-0.5217262419207519,-9.123546529975844,-2.6901184700619405
7.6836866546124085,0.8579479666727474,8.947006949604166,-0.5486274266213713,-9.14561938274523,-2.4396439110314136
7.692266134279136,0.7664917728452951,8.941520675337951,-0.5730238657316855,-9.16648749156368,-2.214243008775211
7.69993105200759,0.6748268979296583,8.935790436680634,-0.5951662958194376,-9.185656910853398,-2.0140485582590673
7.706679320986886,0.5829703288211243,8.92983877372244,-0.6153067814020282,-9.202609400567516,-1.8391928647887723
7.712509024275097,0.49094423481544913,8.923685705908419,-0.633698710049916,-9.21681305877268,-1.6898045926795784
7.7174184666232515,0.39877610422772236,8.91734871880792,-0.6505967559767117,-9.227731894524096,-1.5660047902561316
7.721406227665529,0.3064987852824814,8.910842751248154,-0.6662568038792731,-9.234834293756204,-1.4679023588073392
7.724471215518354,0.21415044234491937,8.90418018320936,-0.6809358274673465,-9.23760033262533,-1.3955891998314882
7.726612719941803,0.12177443901866607,8.897370824934688,-0.6948917194656614,-9.235527897697027,-1.349135238684758
7.72783046433199,0.0294191600416958,8.890421907740032,-0.708383071852509,-9.228137580094028,-1.328583485118312
7.728124655932406,-0.06286221575924449,8.883338077021508,-0.7216689067036921,-9.214976320519915,-1.3339452537198253
7.7274960337748135,-0.15501197896444363,8.87612138795447,-0.7350083592408904,-9.195619793163052,-1.365195631458915
7.725945913985169,-0.24696817689607414,8.868771304362062,-0.7486603155554795,-9.169673528100489,-1.4222692466742324
7.723476232216208,-0.33866491217707906,8.861284701206507,-0.7628830080222219,-9.136772783325306,-1.5050563649452626
7.720089583094437,-0.43003264001033215,8.853655871126286,-0.7779335716716745,-9.096581188478808,-1.6133993130133744
7.715789256694334,-0.5209984518951203,8.84587653540957,-0.7940675648018083,-9.048788192597605,-1.7470892125148914
7.710579272175383,-0.6114863338210963,8.83793585976155,-0.8115384569269573,-8.993105357758573,-1.9058629906584028
7.704464408837172,-0.701417387398682,8.829820475192282,-0.8305970868335413,-8.929261549725906,-2.089400624716979
7.697450234963185,-0.7907100028959411,8.821514504323947,-0.851491093080711,-8.856997086050855,-2.29732257072191
7.689543134934225,-0.8792799737564496,8.81299959339314,-0.8744643187879301,-8.776056912118856,-2.529187323389619
7.68075033519666,-0.9670405428776382,8.80425495020526,-0.8997561920218262,-8.686182886962117,-2.7844890535194073
7.671079929767884,-1.0539023717472593,8.795257388285043,-0.9276010825570203,-8.587105273769193,-3.0626552705025882
7.660540906050411,-1.1397734244849513,8.785981377459473,-0.9582276352620462,-8.478533545296383,-3.3630444611208383
7.649143171805561,-1.224558759937915,8.776399101106852,-0.9918580798732546,-8.360146632004897,-3.684943661773748
7.636897584206182,-1.3081602262579641,8.76648052030812,-1.028707516490992,-8.231582760691671,-4.027565930313047
7.623815981943602,-1.3904760538648808,8.756193445143209,-1.0689831757941224,-8.092429053428445,-4.390047696737385
7.609911221404953,-1.4714003443991652,8.745503613385267,-1.1128836527614963,-7.942211080370335,-4.771445990306639
7.595197217960962,-1.5508224552028687,8.734374776857653,-1.1605981126645626,-7.780382584892453,-5.1707355654567575
7.579688993408933,-1.628626281051793,8.722768795731007,-1.21230546831913,-7.606315624898433,-5.586805981476882
7.563402730598415,-1.7046894373007775,8.710645741047815,-1.2681735281338988,-7.4192913992649325,-6.01845873228568
7.546355836225406,-1.7788823512934269,8.697964005766476,-1.3283581154567556,-7.218492052405551,-6.464404573490529
7.528567012712472,-1.8510672718174823,8.684680424611908,-1.393002161191661,-7.002993771918311,-6.923261254405249
7.510056339994297,-1.9210972095366654,8.670750402999992,-1.4622347737357135,-6.771761513142648,-7.393551932390488
7.49084536789893,-1.988814824668092,8.656128055262636,-1.5361702930596184,-6.5236456989069245,-7.873704624592389
7.47095721965225,-2.054051281657161,8.64076635233204,-1.6149073393055422,-6.2573812512259295,-8.362053135919059
7.450416706835678,-2.1166250941694202,8.624617278938985,-1.6985278706647329,-5.971589312277612,-8.856839989093144
7.429250455893984,-2.176340987292196,8.607632000232337,-1.7870962705556643,-5.664782002296924,-9.356221969163443
7.407487046021061,-2.2329888073151656,8.589761037526781,-1.8806584902472987,-5.335370539269509,-9.858278976394722
7.385157157947909,-2.2863425127078605,8.570954452624308,-1.979241280011246,-4.98167700627104,-10.361026952598253
7.362293732820831,-2.336159282770571,8.551162039824195,-2.0828515495372284,-4.601949993453681,-10.862435700584205
7.338932139993125,-2.3821787827051075,8.530333524328823,-2.1914759065430705,-4.194384259415109,-11.360452447759695
7.315110352166074,-2.4241226252992587,8.508418765263393,-2.3050804310206674,-3.757144447636392,-11.853032005789391
7.290869125913082,-2.4616940697756227,8.485367960953186,-2.423610751078561,-3.2883927552295558,-12.338174341338505
7.2662521852153255,-2.494577997327918,8.4611318534424,-2.5469924944919464,-2.786320282195651,-12.813970291045313
7.241306405242046,-2.5224412001498746,8.43566192849748,-2.6751321974023994,-2.249181590834986,-13.278656020334088
7.2160819932405476,-2.5449330160582244,8.408910606523456,-2.8079187576057403,-1.6753317812987427,-13.730676634603505
