th1 (rad),w1 (rad/s),th2 (rad),w2 (rad/s),a1 (rad/s^2),a2 (rad/s^2)
1.772065815746004,-0.07508691199661673,2.906478458260559,1.5272551413472555,-8.852392367832945,1.4535355423275593
1.7713149466260378,-0.16361083567494616,2.921751009674032,1.5417904967705311,-8.811192952254286,1.4341803772477841
1.7696788382692883,-0.25172276519748904,2.9371689146417372,1.556132300543009,-8.7665016860828,1.3928048507671573
1.7671616106173134,-0.33938778205831704,2.952730237647167,1.5700603490506806,-8.719308596016669,1.32984514159423
1.7637677327967303,-0.4265808680184837,2.968430841137674,1.5833588004666228,-8.67066290018705,1.2457357699959384
1.7595019241165455,-0.5132874970203543,2.98426442914234,1.5958161581665822,-8.621668164468362,1.140894802467938
1.754369049146342,-0.5995041786650379,3.0002225907240057,1.6072251061912615,-8.573476793511327,1.015707902954473
1.7483740073596916,-0.6852389466001512,3.016294841785918,1.6173821852208061,-8.527284102112516,0.8705114864847163
1.74152161789369,-0.7705117876212764,3.0324686636381264,1.6260873000856533,-8.484322223372631,0.7055752702616992
1.7338165000174772,-0.8553550098550027,3.048729536638983,1.6331430527882702,-8.445854104640944,0.5210845411309166
1.7252629499189271,-0.9398135509014122,3.0650609671668656,1.6383538981995793,-8.413167819924215,0.31712246752466533
1.7158648144099131,-1.0239452291006543,3.0814445061488613,1.641525122874826,-8.387571388734973,0.09365278085151625
1.7056253621189066,-1.1078209429880042,3.0978597573776097,1.6424616506833412,-8.370388237583267,-0.1494968600206903
1.6945471526890266,-1.1915248253638369,3.114284373884443,1.6409666820831343,-8.362953373323073,-0.4126505216040153
1.6826319044353881,-1.2751543590970675,3.1306940407052744,1.6368401768670942,-8.366610259362774,-0.696298376767957
1.6698803608444175,-1.3588204616906954,3.1470624424739455,1.6298771930994145,-8.382708298168518,-1.0011095244510047
1.6562921562275106,-1.4426475446723805,3.1633612144049397,1.6198660978549044,-8.412600727870904,-1.3279429407164725
1.6418656807807868,-1.5267735519510897,3.1795598753834886,1.6065866684477397,-8.457642637771077,-1.6778562109790764
1.6265979452612758,-1.6113499783288003,3.195625742067966,1.589808106337949,-8.519188696978903,-2.052111618949352
1.6104844454779879,-1.6965418652985893,3.2115238231313454,1.5692869901484554,-8.598590071405983,-2.452179055889257
1.593519026825002,-1.782527766012649,3.22721669303283,1.5447651995895628,-8.697189875440932,-2.8797350586782327
1.5756937491648755,-1.8694996647670583,3.2426643450287256,1.5159678490027806,-8.816316364260391,-3.3366570824915094
1.5569987525172049,-1.9576628284096622,3.2578240235187534,1.4826012781778655,-8.95727291971728,-3.8250118606291625
1.5374221242331083,-2.047235557606835,3.272650036300532,1.444351159571574,-9.121323717211588,-4.3470363995831685
1.51694976865704,-2.138448794778951,3.2870935478962475,1.4008807955757423,-9.309673785412334,-4.905109804851072
1.4955652807092503,-2.231545532633074,3.301102355852005,1.3518296975272315,-9.523441991604159,-5.501713741057784
1.4732498253829196,-2.3267799525491157,3.3146206528272772,1.2968125601166536,-9.763625315070078,-6.139378915951934
1.4499820258574285,-2.4244162056998166,3.327588778428444,1.2354187709571343,-10.031052629832292,-6.820614571525443
1.4257378638004303,-2.5247267319981397,3.339942966138015,1.1672126252418797,-10.326326137855492,-7.547817613854335
1.4004905964804488,-2.6279899933766946,3.3516150923904338,1.0917344491033365,-10.649748620178531,-8.323157786231747
1.3742106965466818,-2.7344874795784797,3.3625324368814673,1.0085028712410191,-11.001234869031629,-9.148435286685476
1.346865821750897,-2.844499828268796,3.3726174655938777,0.9170185183741644,-11.38020611021714,-10.024907584095521
1.318420823468209,-2.9583018893709676,3.3817876507776194,0.8167694425332092,-11.78546702144058,-10.953083066335244
1.2888378045744995,-3.0761565595853733,3.3899553452029516,0.7072386118698567,-12.215066211572799,-11.932480761333293
1.2580762389786457,-3.1983072217011013,3.3970277313216504,0.5879138042565237,-12.666142861675677,-12.961357928315921
1.2260931667616348,-3.324968650317858,3.4029068693642155,0.45830022497336453,-13.13476473318886,-14.036411030412262
1.1928434802584562,-3.4563162976497463,3.407489871613949,0.3179361146692419,-13.615765956869687,-15.152460615599672
1.1582803172819587,-3.592473957218443,3.4106692327606414,0.16641150851324515,-14.102596855362616,-16.302136952036623
1.1223555777097742,-3.7334999257720693,3.412333347845774,0.0033901389928789327,-14.587202280692775,-17.47559064111664
1.0850205784520535,-3.879371948578997,3.4123672492357024,-0.17136576741828746,-15.059949090188029,-18.660260258371295
1.0462268589662636,-4.029971439480877,3.4106535915615197,-0.35796837000200044,-15.509626685400098,-19.84073627273384
1.0059271445714548,-4.185067706334878,3.4070739078614998,-0.5563757327293388,-15.923545966529565,-20.998765482343458
0.964076467508106,-4.344303166000174,3.4015101505342065,-0.7663633875527734,-16.28776039067089,-22.1134409643305
0.9206334358481043,-4.507180769906882,3.393846516658679,-0.9874977971960784,-16.58742687274193,-23.16161689341678
0.8755616281490355,-4.673055038634302,3.383971538686718,-1.2191139661302461,-16.807313212830095,-24.11857370993524
0.8288310777626925,-4.841128170762603,3.3717803990254156,-1.4602997032295986,-16.932442566556414,-24.958936226339045
0.7804197960550665,-5.010452596428166,3.3571774019931198,-1.709889065492989,-16.94884542811388,-25.657816367984097
0.7303152700907849,-5.1799410507093056,3.3400785113381897,-1.96646722917283,-16.844368366596434,-26.192116715593208
0.6785158595836919,-5.34838473437527,3.3204138390464615,-2.228388396328762,-16.609470335436253,-26.541896580460865
0.6250320122399392,-5.514479437729633,3.2981299550831737,-2.4938073621333707,-16.23792634111335,-26.691676284003513
0.5698872178626428,-5.676858701140766,3.27319188146184,-2.760724124973406,-15.727358594801574,-26.63154482700022
0.5131186308512352,-5.8341322870887815,3.245584640212106,-3.027039573243408,-15.07952900554888,-26.357946183170746
0.4547773079803474,-5.98492757714427,3.215314244479672,-3.2906190350751157,-14.300353030040187,-25.87405082256223
0.39492803220890466,-6.127931107444672,3.1824080541289206,-3.549359543300738,-13.399629273139217,-25.18966745529712
0.3336487211344579,-6.261927400176064,3.146914458695913,-3.8012562178537093,-12.390515268616443,-24.320706650384135
0.2710294471326973,-6.385832552862229,3.108901896517376,-4.04446328435755,-11.288810369464558,-23.288261963281947
0.20717112160407497,-6.498720656556874,3.0684572636738,-4.27734590399037,-10.11212585524708,-22.11741531867384
0.14218391503850622,-6.599841915109345,3.0256838046338963,-4.4985200571771085,-8.879027394880255,-20.83589496904678
0.07618549588741276,-6.688632189058148,2.980698604062125,-4.7068790068675765,-7.608226552673351,-19.472714690123677
0.009299173996831278,-6.764714454584881,2.9336298139934494,-4.901606153768813,-6.31787964875566,-18.05690507357637
-0.05834797054901754,-6.827893251072438,2.884613752455761,-5.082175204504576,-5.025029053527717,-16.61641815855316
-0.12662690305974192,-6.878143541607715,2.8337920004107153,-5.248339386090108,-3.745198944888161,-15.177252590806336
-0.19540833847581907,-6.915595531056597,2.781308606549814,-5.400111911998171,-2.4921384948550376,-13.762814497580043
-0.264564293786385,-6.940516916005147,2.727307487429832,-5.537740056973972,-1.2776924066505964,-12.393503695760808
-0.3339694629464365,-6.953293840071653,2.6719300868600926,-5.66167509393158,-0.1117720083429439,-11.086497655578867
-0.403502401347153,-6.954411560155082,2.615313335920777,-5.772540070487368,0.9976012047985365,-9.85569670363799
-0.4730465169487038,-6.944435548107096,2.557587935215903,-5.871097037523748,2.0442051667133296,-8.711791805693613
-0.5424908724297748,-6.923993496439963,2.4988769648406657,-5.958214955580685,3.0235008792647116,-7.662418875217127
-0.6117308073941744,-6.893758487647316,2.439294815284859,-6.034839144332856,3.93250556939175,-6.712368871540761
-0.6806683922706476,-6.854433431953399,2.3789464238415303,-6.101962833048264,4.769665676229063,-5.86382931060075
-0.7492127265901816,-6.806736775191108,2.3179267955110476,-6.160601126154271,5.534735655623682,-5.116639047001858
-0.8172800943420926,-6.75138941863487,2.256320784249505,-6.211767516624289,6.228665327915288,-4.4685436255882545
-0.8847939885284413,-6.689102765355718,2.1942031090832623,-6.256452952880172,6.853496269021342,-3.9154428675840203
-0.9516850161819984,-6.620567802665504,2.1316385795544606,-6.295607381556012,7.412266383654212,-3.4516256481629055
-1.0178906942086534,-6.546445138828962,2.0686825057389004,-6.330123638037641,7.9089210712379145,-3.0699891958983128
-1.083355145596943,-6.467355928116583,2.0053812693585242,-6.360823529996624,8.348229065494227,-2.7622419261060815
-1.1480287048781088,-6.383873637461641,1.941773034058558,-6.388445949257685,8.735700895221157,-2.519090043003895
-1.2118674412527253,-6.29651662850943,1.877888574565981,-6.413636849687724,9.077507822404309,-2.330409113033193
-1.2748326075378196,-6.205741550285387,1.8137522060691038,-6.436940940818056,9.380398963819282,-2.185402677587775
-1.3368900230406735,-6.111937560647194,1.7493827966609232,-6.458794967593934,9.65161404502346,-2.072750835671694
-1.3980093986471454,-6.015421420196959,1.6847948469849838,-6.479522475950651,9.898788870341908,-1.980752627222309
-1.4581636128491149,-5.9164335314935395,1.6199996222254773,-6.499330002222874,10.129850161981597,-1.8974669735483785
-1.5173279481640503,-5.815135029873724,1.5550063222032486,-6.518304671958358,10.352896008762988,-1.8108578186436592
-1.5754792984627874,-5.711606069786094,1.489823275483665,-6.536413250144794,10.576057890576426,-1.7089498504703078
-1.6325953591606484,-5.60584549088033,1.424459142982217,-6.553502748649497,10.807340263246338,-1.5800016031682342
-1.6886538140694516,-5.497772088247866,1.3589241154957221,-6.569302764681179,11.05443418299134,-1.4127026440484491
-1.7436315349519302,-5.3872277464179525,1.2932310878489104,-6.583429791121664,11.324502619229417,-1.1964006936001146
-1.7975038124161098,-5.273982720225658,1.2273967899376936,-6.595393798057665,11.623937142139003,-0.921362659801077
-1.8502436396183664,-5.157743348804268,1.161442851957117,-6.604607424655676,11.958088727956795,-0.5790704609810496
-1.9018210731064091,-5.0381624615247,1.0953967777105602,-6.610398129265486,12.33097955693282,-0.1625480171294031
-1.9522026977216562,-4.9148526659553715,1.0292927964179053,-6.61202360943678,12.745007782148843,0.33329007972946756
-2.00135122438121,-4.787402588133883,0.9631725603235375,-6.608690708639485,13.200662986058461,0.9112846864460943
-2.049225250262549,-4.655395958273298,0.8970856532371426,-6.599577861775024,13.696275788699655,1.5716969838317127
-2.0957792098452823,-4.518433200386302,0.8310898746193924,-6.583860891936706,14.22782988999305,2.311923085273994
-2.1409635418491453,-4.376154901486371,0.7652512657000253,-6.560741661083966,14.78886752488567,3.1262945486666935
-2.184725090864009,-4.228266226237515,0.6996438490891856,-6.5294787155973,15.370518590428453,4.0060027543454275
-2.2270077531263843,-4.07456104033323,0.6343490619332126,-6.489418688053846,15.961678442141364,4.939181992769544
-2.2677533635297165,-3.9149442559118164,0.5694548750526741,-6.44002686812615,16.549348948421592,5.911177016942515
-2.306902806088835,-3.7494507664276004,0.5050546063714126,-6.380915097956725,17.119142114952435,6.905005599968402
-2.344397313753111,-3.578259345278076,0.4412454553918454,-6.3118650419570415,17.655926858822315,7.902006403751513
-2.380179907205892,-3.4017000766898526,0.37812680497227497,-6.232844977919527,18.14457987602016,8.882639693921087
-2.4141969079727903,-3.220254277929651,0.3157983551930797,-6.144018580980316,18.570784361675006,9.827386729392797
-2.4463994507520868,-3.034546434312901,0.25435816938327654,-6.045744713686388,18.921809100006012,10.717677067649818
-2.4767449150952157,-2.8453283433128407,0.19390072224641267,-5.93856794300989,19.187197901101317,11.536765122629701
-2.505198198528344,-2.6534563643018276,0.13451504281631377,-5.823200291783593,19.359306748994825,12.27048019763147
-2.5317327621713623,-2.4598632968118794,0.07628303989847784,-5.700495489807278,19.433642562386243,12.90778787609098
-2.5563313951394813,-2.265526871188017,0.01927808500040506,-5.5714176110463685,19.408980445712817,13.441122843433936
-2.5789866638513614,-2.0714370667308892,-0.036436091110058626,-5.437006382612029,19.28726170235055,13.86647997465809
-2.59970103451867,-1.8785644497073837,-0.09080615493617891,-5.298341582865448,19.073298343888247,14.183277167080496
-2.618486679015744,-1.6878314662685012,-0.1437895707648334,-5.1565088111946435,18.7743277117505,14.394025640396787
-2.635364993678429,-1.5000881891509963,-0.19535465887677983,-5.0125685547906755,18.399470940621892,14.503858305855841
-2.650365875569939,-1.3160934797447774,-0.24548034442468658,-4.867529971732117,17.959150895238977,14.519973150667063
-2.663526810367387,-1.1365019707923876,-0.29415564414200773,-4.722330240225447,17.464520015216294,14.4510469527778
-2.674891830075311,-0.9618567706402246,-0.3413789465442622,-4.577819770697669,16.926938339886807,14.306666864893023
-2.6845103977817133,-0.7925873872413565,-0.3871571442512389,-4.434753102048739,16.357529357009994,14.096815931680034
-2.692436271654127,-0.6290120936712565,-0.4315046752717263,-4.293784942731938,15.766828518901928,13.831435867718994
-2.6987263925908396,-0.4713438084822372,-0.4744425246990457,-4.155470584054749,15.164528011782465,13.520078404518342
-2.703439830675662,-0.3196985283644126,-0.5159972305395932,-4.020269800009565,14.559312645577437,13.171646514984698
-2.706636815959306,-0.1741054019086382,-0.5561999285396889,-3.888553334859718,13.958775880728895,12.794219457347447
-2.7083778699783925,-0.03451764310134925,-0.5950854618882861,-3.7606111402862434,13.369401849562543,12.394950899503073
-2.708723046409406,0.09917637539427618,-0.6326915732911486,-3.636661631291213,12.796598281393768,11.98002706392802
-2.7077312826554634,0.22714235820821385,-0.6690581896040607,-3.5168613606519328,12.244765898329318,11.554671354798977
-2.705459859073381,0.34959001719150706,-0.7042268032105801,-3.401314647103943,11.717391518630798,11.1231827288874
-2.701963958901466,0.46676393237781505,-0.7382399496816195,-3.290082819815069,11.21715428302641,10.688996637037171
-2.6972963195776876,0.5789354752080792,-0.7711407778797702,-3.1831928534446976,10.746036727190281,10.254759281008667
-2.691506964825607,0.686395842479982,-0.8029727064142171,-3.080645260634611,10.305434606789557,9.822407903297488
-2.684643006400807,0.7894501885478775,-0.8337791590205632,-2.982421181601636,9.8962612937376,9.393251663605723
-2.676748504515328,0.8884128014852535,-0.8636033708365796,-2.8884886649655788,9.519044139605205,8.968049249926278
-2.6678643765004755,0.9836032428813055,-0.8924882574862354,-2.798808172466316,9.174011437124173,8.547080683334967
-2.6580283440716626,1.0753433572525473,-0.9204763392108986,-2.7133373656329662,8.861169530434397,8.130211804640604
-2.647274910499137,1.1639550525568911,-0.9476097128672282,-2.6320352475865603,8.580370273758904,7.716950704251798
-2.635635359973568,1.2497587552944802,-0.9739300653430938,-2.5548657405440425,8.331369466825816,7.3064959126838165
-2.6231377724206233,1.3330724499627384,-0.9994787227485342,-2.4818007814172045,8.113877152101342,6.897776550749188
-2.609807047920996,1.414211221483752,-1.0242967305627062,-2.4128230159097126,7.927600786291899,6.489484887314887
-2.5956649357061585,1.493487229346671,-1.0484249607218032,-2.3479281670365637,7.772282331216774,6.080101906748648
-2.580730063412692,1.5712100526588388,-1.071904242392169,-2.2871271479690773,7.647730273100231,5.6679165819163675
-2.5650179628861034,1.6476873553898412,-1.0947755138718598,-2.2304479821499137,7.553847492144727,5.2510396125338
-2.548541089332205,1.7232258303112884,-1.1170799936933589,-2.1779375860245755,7.490655775195743,4.827412451748255
-2.531308831029092,1.7981323880632458,-1.1388593695536047,-2.129663461507093,7.4583175943238755,4.394812535601835
-2.5133275071484595,1.8727155640064845,-1.1601560041686756,-2.0857153361510745,7.457155555188856,3.9508557839771976
-2.4946003515083945,1.9472871195583732,-1.1810131575301863,-2.0462067783113027,7.487669632552763,3.492997699447368
-2.475127480312811,2.022163815883901,-1.2014752253132994,-2.011276801316829,7.550551924352625,3.018534807918141
-2.454905842153972,2.097669335127427,-1.2215879933264677,-1.9810914532376476,7.646698120405086,2.5246088399491384
-2.4339291488026977,2.1741363163314777,-1.241398907858844,-1.9558453648381562,7.7772141221011255,2.008217055300682
-2.4121877856393827,2.251908457552489,-1.2609573615072256,-1.9357631942851494,7.943415154960084,1.4662336253440482
-2.389668701063858,2.33134260910209,-1.280314993450077,-1.921100858031709,8.146813126381621,0.8954492377668366
-2.366355274972837,2.4128107403659063,-1.299526002030394,-1.9121463656540407,8.389085666955568,0.2926394014897618
-2.342227167569178,2.496701597035462,-1.3186474656869345,-1.9092199716391431,8.672016933045052,-0.3453232376278357
-2.3172601515988234,2.5834217663659125,-1.337739665403326,-1.9126732040154215,8.997395401371096,-1.0212902897279
-2.291425933935164,2.6733957203796233,-1.3568663974434803,-1.9228861069127006,9.366846980970415,-1.7375605361027038
-2.264691976731368,2.7670641901893274,-1.3760952585126072,-1.9402617122737276,9.781572121655524,-2.4954583963049606
-2.2370213348294747,2.8648799114058825,-1.3954978756353444,-1.9652162962367772,10.241942537379051,-3.294703408825508
-2.208372535715416,2.967299336779673,-1.4151500385977123,-1.9981633303250323,10.746896367084409,-4.132482467392492
-2.178699542347619,3.074768300450517,-1.4351316719009626,-2.039488154998957,11.293050913647864,-5.002109038138753
-2.147951859343114,3.187698809586996,-1.455526553450952,-2.0895092453803445,11.873433285219797,-5.891127836294134
-2.116074871247244,3.306433142439194,-1.4764216459047554,-2.148420523743286,12.475721317100888,-6.778714038671186
-2.083010539822852,3.431190355610203,-1.4979058511421883,-2.216207664129998,13.079912136055855,-7.632254901425017
-2.04869863626675,3.5619894769707616,-1.5200679277834883,-2.292530213144248,13.655436221693952,-8.403149783547178
-2.013078741497042,3.698543839187701,-1.5429932299149307,-2.37656171097972,14.157982125467536,-9.022224024809619
-1.976093303105165,3.8401236604423765,-1.566758847024728,-2.4667839512278165,14.526787072562202,-9.395859593519875
-1.9376920665007413,3.9853915311679984,-1.5914266865370061,-2.560742547163015,14.683954575316587,-9.405104194751267
-1.8978381511890614,4.1322310769211645,-1.6170341120086362,-2.654793589110528,14.53838619777368,-8.91149211047871
-1.8565158404198498,4.2776149388989015,-1.6435820478997416,-2.743908510215315,13.997611999459282,-7.774309033210117
-1.8137396910308607,4.417591058893494,-1.6710211330018947,-2.8216516005474164,12.989884559197966,-5.882718633947076
-1.7695637804419257,4.547489904485474,-1.6992376490073688,-2.8804787868868873,11.494639994303816,-3.200074201394401
-1.724088881397071,4.662436304428512,-1.7280424368762377,-2.9124795289008314,9.571521077551663,0.19358751067667487
-1.6774645183527859,4.758151515204029,-1.757167232165246,-2.9105436537940648,7.3708473180420135,4.085406958598365
-1.6298830032007456,4.831859988384449,-1.7862726687031867,-2.869689584208081,5.110667295660675,8.161418869573831
-1.5815644033169012,4.882966661341055,-1.8149695645452675,-2.788075395512343,3.0225612856219297,12.08347664949871
-1.5327347367034907,4.913192274197275,-1.8428503185003908,-2.667240629017356,1.290143254939994,15.577571841953606
-1.483602813961518,4.926093706746675,-1.8695227247905644,-2.51146491059782,0.010376995173671364,18.490517611667652
-1.4343418768940512,4.926197476698412,-1.8946373738965425,-2.3265597344811435,-0.8086766356210121,20.795009056223723
-1.3850799021270672,4.9181107103422015,-1.917902971241354,-2.1186096439189064,-1.2229410245431038,22.55556240147793
