th1 (rad),w1 (rad/s),th2 (rad),w2 (rad/s),a1 (rad/s^2),a2 (rad/s^2)
4.265371045450006,1.2273468586647456,0.20570659239879613,1.7486938543577533,11.13395083051749,3.563785650231895
4.277644514036653,1.3386863669699205,0.22319353094237365,1.7843317108600723,11.132561696991374,3.220237652099103
4.291031377706352,1.4500119839398342,0.24103684805097436,1.8165340873810634,11.117075222882193,2.8398265996342276
4.30553149754575,1.561182736168656,0.25920218892478497,1.8449323533774056,11.086425417928366,2.4220371999352186
4.321143324907436,1.6720469903479398,0.277651512458559,1.8691527253767577,11.039609558797324,1.9664609382924019
4.337863794810915,1.782443085935913,0.29634303971232656,1.8888173347596817,10.975709911299498,1.4728190862850625
4.355688225670274,1.892200185048908,0.31523121305992335,1.9035455256225324,10.893917874248059,0.9409876110514958
4.374610227520764,2.001139363791389,0.3342666683161487,1.9129554017330475,10.793560674025084,0.37102392172618065
4.394621621158677,2.1090749705316396,0.35339622233347917,1.9166656409503093,10.674130693955307,-0.23680474120729084
4.415712370863994,2.215816277471193,0.3725628787429823,1.9142975935382365,10.535317444689168,-0.8819916541603274
4.437870533638706,2.3211694519180845,0.39170585467836466,1.9054776769966333,10.37704206425714,-1.563760326558928
4.461082228157887,2.424939872560656,0.41076063144833097,1.889840073731044,10.199494074521816,-2.2810345318992664
4.485331626883493,2.526934813305874,0.4296590321856414,1.8670297284120512,10.003169913145197,-3.032409981965361
4.510600975016552,2.626966512437326,0.4483293294697619,1.8367056285923975,9.788912510869173,-3.816129406889131
4.536870640140926,2.7248556375460176,0.4666963857556859,1.7985443345235061,9.557950903897945,-4.630063269797145
4.564119196516386,2.820435146584997,0.48468182910092095,1.7522437018255348,9.311938580167602,-5.471698808689794
4.592323547982236,2.913554532386673,0.5022042661191763,1.697526713738637,9.052988985701136,-6.338140513789275
4.621459093306103,3.004084422243684,0.5191795332565627,1.6341453086007443,8.78370640223012,-7.226125458930543
4.6514999375285395,3.0919214862659854,0.5355209863425702,1.561884054011439,8.507210297246262,-8.132057047006132
4.6824191523911995,3.176993589238448,0.5511398268826846,1.4805634835413777,8.227151294977364,-9.052060638706378
4.714189088283584,3.259265102188222,0.5659454617180983,1.3900428771543138,7.947717173309458,-9.982064157875179
4.746781739305466,3.3387422739213166,0.5798458904896415,1.2902222355755621,7.6736278014385615,-10.917906075555168
4.780169162044679,3.4154785519357023,0.5927481128453972,1.1810431748200105,7.410118723802158,-11.855472174175041
4.814323947564036,3.489579739173724,0.6045585445935973,1.0624884530782601,7.16291417081071,-12.790861237472571
4.849219744955773,3.561208880881831,0.6151834291243798,0.9345798407035344,6.938191608388341,-13.72057841080123
4.884831833764592,3.6305907969657145,0.6245292275314152,0.7973740565955221,6.742541465530321,-14.641753597197958
4.921137741734249,3.6980162116210176,0.6325029680973704,0.6509565206235425,6.582927311725617,-15.552381111252929
4.958117903850459,3.763845484738274,0.6390125333036059,0.49543270951101315,6.466653384967966,-16.451576147421125
4.995756358697842,3.8285120185879533,0.643966860398716,0.3309169480368019,6.401347884815502,-17.339843672401546
5.034041478883721,3.8925254974361083,0.647276029879084,0.1575185113127864,6.3949717503707,-18.2193563259348
5.072966733858083,3.9564752149398155,0.6488512149922118,-0.02467505194656161,6.455863684099116,-19.09423993973216
5.112531486007481,4.021033851780807,0.6486044644727461,-0.21561745134388322,6.592832950367361,-19.970868378924152
5.152741824525289,4.0869621812844805,0.6464482899593073,-0.4153261351331248,6.815312002406746,-20.85817344715133
5.193611446338133,4.155115301308548,0.642295028607976,-0.6239078696046381,7.1335812998999035,-21.767980254064756
5.235162599351219,4.226451114307547,0.6360559499119297,-0.8415876721452856,7.5590786969730495,-22.715383114800343
5.277427110494295,4.302041901277278,0.6276400731904769,-1.068741503293289,8.104805132982252,-23.719180633891646
5.320447529507068,4.3830899526071,0.616952658157544,-1.3059333096322054,8.785835986238139,-24.80238906759156
5.364278429033139,4.470948312469481,0.603893325061222,-1.553957200308121,9.619940849469415,-25.99284636553505
5.408987912157834,4.567147720964176,0.5883537530581407,-1.8138856639634715,10.628298190161395,-27.323897461279532
5.454659389367476,4.673430702865789,0.5702148964185061,-2.0871246385762667,11.836253862776287,-28.835098105033655
5.501393696396135,4.7917932414935525,0.5493436500327434,-2.375475619626603,13.273989881560633,-30.572756347721526
5.54931162881107,4.924533140309158,0.5255888938364774,-2.6812031831038183,14.976793052774307,-32.589878873437776
5.598556960214162,5.074301070836901,0.49877686200543925,-3.007101971838196,16.984241065851496,-34.94456252200255
5.649299970922531,5.244143481495416,0.4687058422870573,-3.3565475970582215,19.33685142109922,-37.694782616464906
5.701741405737485,5.437511995706409,0.43514036631647507,-3.7334954232228705,22.06716023144481,-40.88531105082631
5.756116525694549,5.658183598020857,0.39780541208424636,-4.142348533731134,25.17905848117721,-44.51809218485039
5.812698361674757,5.909974182832629,0.35638192674693503,-4.587529455579638,28.60331840584454,-48.489144496391695
5.8717981035030835,6.196007366891075,0.31050663219113867,-5.0724209005435545,32.107604708602295,-52.46157249771484
5.9337581771719945,6.5170834139770975,0.2597824231857031,-5.597036625520703,35.12929228064243,-55.63039918512685
5.998929011311765,6.8683763367835216,0.2038120569304961,-6.153340617371971,36.51320001919162,-56.35462955431042
6.067612774679601,7.233508336975437,0.14227865075677637,-6.716886912915076,34.25971571339488,-51.80605213892486
6.139947858049355,7.576105494109386,0.07510978162762562,-7.234947434304324,25.78267272264773,-38.3391057084064
6.215708912990449,7.833932221335863,0.002760307284582375,-7.618338491388388,9.670312708202621,-13.98043861094424
6.294048235203808,7.93063534841789,-0.0734230776293015,-7.75814287749783,-11.193090590924617,17.167147284441917
6.373354588687986,7.818704442508643,-0.15100450640427981,-7.586471404653411,-29.441813630271042,44.66490337653221
6.451541633113073,7.524286306205933,-0.22686922045081392,-7.139822370888089,-39.24523694809754,60.221763503609964
6.526784496175132,7.1318339367249575,-0.2982674441596948,-6.537604735851989,-40.846984414858994,64.107339043157
6.598102835542382,6.723364092576367,-0.3636434915182147,-5.896531345420419,-37.80259133581947,61.287235285176926
6.665336476468146,6.345338179218173,-0.42260880497241887,-5.2836589925686495,-33.12660784266214,56.00187119584308
6.728789858260328,6.014072100791552,-0.4754453948981054,-4.723640280610219,-28.366579039402207,50.44629397163732
6.788930579268243,5.730406310397529,-0.5226817977042075,-4.219177340893846,-24.103135477358226,45.4584290607223
6.8462346423722185,5.489374955623947,-0.564873571113146,-3.7645930502866225,-20.470798613259753,41.24463603351486
6.901128391928458,5.284666969491349,-0.6025195016160122,-3.352146689951474,-17.43636241072819,37.76954014861743
6.953975061623371,5.110303345384067,-0.6360409685155269,-2.9744512884653,-14.918251988583254,34.924328625184515
7.005078095077212,4.961120825498234,-0.6657854814001799,-2.6252080022134545,-12.831502960369596,32.5910173970765
7.054689303332195,4.832805795894538,-0.6920375614223144,-2.2992978282426897,-11.102159380485656,30.66373125244361
7.1030173612911405,4.721784202089681,-0.7150305397047413,-1.9926605157182535,-9.670061197771622,29.05353671301548
7.150235203312037,4.625083590111966,-0.7349571448619239,-1.7021251485880988,-8.487653818391916,27.687560120958654
7.196486039213156,4.540207051928046,-0.7519783963478048,-1.4252495473785123,-7.517742009838667,26.506532197674904
7.241888109732437,4.46502963182966,-0.76623089182159,-1.1601842254017631,-6.7312328475878225,25.462257547804825
7.286538406050734,4.397717303353782,-0.7778327340756076,-0.9055616499237149,-6.105187432366407,24.515475882167546
7.330515579084271,4.336665429030118,-0.7868883505748447,-0.6604068911020394,-5.621235088196413,23.63419449496294
7.373882233374572,4.280453078148154,-0.7934924194858651,-0.42406494615241,-5.264316963300687,22.792438286038426
7.416686764156053,4.227809908515147,-0.7977330689473893,-0.19614056329202575,-5.02170650519513,21.96932806951877
7.458964863241205,4.177592843463196,-0.7996944745803095,0.02355271740316195,-4.8822577779160845,21.14839813487942
7.500740791675836,4.128770265684035,-0.7994589474062779,0.23503669875195618,-4.835841803679845,20.317076058876133
7.542028494332677,4.080411847647237,-0.7971085804187583,0.4382074593407175,-4.872939762100565,19.466262766815287
7.58283261280915,4.031682450026231,-0.7927265058253511,0.6328700870088704,-4.984368100689103,18.589965807421613
7.623149437309412,3.9818387690193404,-0.7863978049552623,0.8187697450830865,-5.161114303408179,17.6849527978573
7.662967824999606,3.9302276259852587,-0.7782101075044315,0.9956192730616595,-5.394263814317566,16.750404650687493
7.702270101259458,3.876284987842083,-0.768253914773815,1.1631233195685344,-5.674999216148078,15.78755920865821
7.741032951137879,3.819534995680602,-0.7566226815781296,1.3209989116551166,-5.994652994505448,14.799344941618257
7.779228301094685,3.7595884657355474,-0.7434126924615785,1.4689923610712992,-6.344795703785592,13.790011084260701
7.816824185752041,3.6961405086976913,-0.7287227688508655,1.6068924719139062,-6.717342496220951,12.764764828378786
7.853785590839018,3.628967083735482,-0.7126538441317265,1.734540120197694,-7.104662940795135,11.729427959226802
7.8900752616763725,3.5579204543275305,-0.6953084429297496,1.851834399789962,-7.499681778506112,10.690124913949283
7.9256544662196475,3.4829236365424694,-0.6767900989318499,1.958735648929455,-7.895961499274791,9.65301211941757
7.960483702585072,3.4039640215497213,-0.6572027424425554,2.0552657701236305,-8.287761055250483,8.624055242722815
7.994523342800569,3.3210864109972165,-0.6366500847413191,2.1415063225508586,-8.670068303254194,7.608857292615571
8.02773420691054,3.2343857279646744,-0.6152350215158106,2.2175948954770144,-9.038606605626786,6.6125369104465825
8.060078064190188,3.1439996619084067,-0.5930590725610404,2.28372026458148,-9.389818217652934,5.639653116810537
8.091518060809273,3.0501014797318775,-0.5702218699152256,2.3401167957495854,-9.720828563572827,4.694170501193833
8.122019075606591,2.9528931940961494,-0.5468207019577298,2.387058500761524,-10.029396265027115,3.7794574583917884
8.151548007547552,2.852599231445878,-0.5229501169501145,2.4248530753454416,-10.31385392560788,2.898309552420322
8.18007399986201,2.7494606921897993,-0.4987015861966601,2.453836170869645,-10.573044329848672,2.0529902955562442
8.207568606783909,2.6437302488913126,-0.47416322448796366,2.4743660738252076,-10.806256038933542,1.2452823844775531
8.234005909272822,2.5356676885019773,-0.4494195637497116,2.486818897669983,-11.013161507217003,0.47654354087767287
8.259362586157842,2.4255360734298073,-0.42455137477301175,2.49158433307876,-11.193759930369296,-0.2522376216682381
8.28361794689214,2.313598474126114,-0.39963553144222413,2.489061956862078,-11.348326165163419,-0.9403889900109671
8.3067539316334,2.20011521247448,-0.37474491187360337,2.479658066961968,-11.477366299013381,-1.5875076889198283
8.328755083758145,2.085341549484346,-0.34994833120398366,2.4637829900727697,-11.581579832199806,-2.1934192165549287
8.349608499252987,1.969525751162348,-0.32531050130325595,2.4418487979072205,-11.661827981493778,-2.758143202045045
8.36930375676461,1.8529074713474103,-0.30089201332418375,2.41426736588677,-11.719107316986362,-3.281865395818923
8.387832831478084,1.7357163981775467,-0.27674933966531606,2.3814487119285808,-11.754527788490487,-3.7649150953111694
8.40518999545986,1.6181711202926419,-0.25293485254603026,2.343799560975469,-11.769294160692327,-4.207746982772409
8.421371706662788,1.5004781786857186,-0.22949685693627558,2.3017220911477447,-11.764689930669748,-4.610926277070733
8.436376488449644,1.3828312793790212,-0.20647963602479813,2.2556128283770374,-11.742062920412955,-4.975116143268431
8.450204801243435,1.2654106501748916,-0.18392350774102775,2.205861666944353,-11.702811895244883,-5.301066428310566
8.462858907745185,1.1483825312224427,-0.16186489107158422,2.1528510026612473,-11.648373734352772,-5.58960296689213
8.474342733057409,1.031898793878915,-0.14033638104497176,2.096954972992326,-11.58021085381212,-5.841616901190356
8.484661720996197,0.9160966853407938,-0.1193668313150485,2.0385388039804226,-11.499798741684252,-6.05805365942166
8.493822687849605,0.8010986979239513,-0.09898144327524427,1.977958267386206,-11.40861359954905,-6.239901424263875
8.501833674828845,0.6870125619284608,-0.0792018606013822,1.9155592531435672,-11.308120189826823,-6.3881790815104775
8.50870380044813,0.5739313600301926,-0.060046268069946535,1.8516774623284624,-11.199760061643362,-6.503923765176483
8.514443114048431,0.461933759413759,-0.04152949344666191,1.7866382246766976,-11.08494037090196,-6.588178205115193
8.519062451642569,0.35108435570473945,-0.02366311119989493,1.7207564426255457,-10.965023525913354,-6.641978137847437
8.522573295199615,0.24143412044560592,-0.006455546773639475,1.6543366612470713,-10.841317883093017,-6.6663400640498525
8.524987636404072,0.13302094161467576,0.010087819838831238,1.5876732606065729,-10.715069693292032,-6.662249631919928
8.526317845820218,0.025870244681755444,0.02596455244489697,1.5210507642873736,-10.587456463847486,-6.630650900191283
8.526576548267036,-0.08000431995671942,0.04117506008777071,1.4547442552854608,-10.45958185965201,-6.572436693850884
8.52577650506747,-0.18460013855323953,0.05572250264062532,1.389019888346952,-10.332472223014332,-6.4884402152016465
8.523930503681937,-0.28792486078338286,0.06961270152409484,1.3241354861949355,-10.207074750509863,-6.379428017708283
8.521051255074104,-0.3899956082884815,0.08285405638604419,1.2603412060178527,-10.084257328153523,-6.246094394023226
8.51715129899122,-0.49083818157001674,0.09545746844622272,1.1978802620776206,-9.964809995888666,-6.089057175663359
8.51224291717552,-0.5904862815289034,0.10743627106699892,1.1369896903209868,-9.849447989561748,-5.908854891943298
8.506338054360231,-0.6889807614245208,0.11880616797020879,1.0779011414015538,-9.73881629353026,-5.705945190996586
8.499448246745986,-0.7863689243598234,0.12958517938422434,1.020841689491588,-9.63349562958267,-5.480704386278756
8.491584557502389,-0.8827038806556501,0.13979359627914023,0.9660346456288004,-9.534009807315966,-5.2334279574590195
8.482757518695832,-0.9780439787288098,0.14945394273542822,0.9137003660542102,-9.440834366692751,-4.964331804218674
8.472977078908544,-1.0724523223957374,0.15859094639597032,0.8640570480120235,-9.354406454288585,-4.6735540240005875
8.462252555684586,-1.1659963869386232,0.16723151687609056,0.8173215077720176,-9.275135889901286,-4.361156958827723
8.4505925918152,-1.258747745837636,0.17540473195381073,0.7737099381837403,-9.203417399032714,-4.027129230457698
8.438005114356823,-1.3507819198279631,0.18314183133564813,0.7334386458791634,-9.13964400880808,-3.6713874558829596
8.424497295158544,-1.442178359916044,0.19047621779443977,0.6967247713203338,-9.084221629994019,-3.2937773050694354
8.410075511559382,-1.5330205762159843,0.1974434655076431,0.6637869982696395,-9.037584876075572,-2.8940735284444976
8.394745305797223,-1.62339642497674,0.2040813354903395,0.6348462629851945,-9.00021420239222,-2.471978541657363
8.378511341547455,-1.7133985670006622,0.21042979812019144,0.6101264775686209,-8.972654485053118,-2.027119108224549
8.361377355877448,-1.8031251118511933,0.21653106289587765,0.5898552864863754,-8.955535202120684,-1.5590406055374906
8.343346104758936,-1.8926804638724002,0.2224296157607414,0.5742648804310005,-8.949592430179855,-1.0671982950121723
8.324419300120212,-1.9821763881741987,0.2281722645650514,0.5635928974808788,-8.955692930149088,-0.5509449415067732
8.30459753623847,-2.07173331747569,0.2338081935398602,0.5580834480658111,-8.974860669702453,-0.009514039077314195
8.283880203063713,-2.161481924172714,0.2393890280205183,0.5579883076750379,-9.008306218950494,0.558002201744439
8.262265383821987,-2.251564986362219,0.2449689110972687,0.5635683296924823,-9.057459564204972,1.1526810668655916
8.239749733958364,-2.3421395820042687,0.2506045943941935,0.5750951403611382,-9.124007014641627,1.7758048458333469
8.216328338138322,-2.433379652150685,0.2563555457978049,0.5928531888194717,-9.20993303048337,2.4289048740647003
8.191994541616815,-2.525478982455519,0.2622840776859996,0.6171422375601187,-9.317567978810702,3.1138155070891407
8.16673975179226,-2.618654662243626,0.2684555000616008,0.6482803926310101,-9.44964301974227,3.8327395782330713
8.140553205169823,-2.7131510924410485,0.2749383039879109,0.6866077884133408,-9.609353528655673,4.58832701992377
8.113421694245412,-2.809244627727605,0.2818043818720443,0.7324910586125785,-9.800432641162336,5.383768385231747
8.085329247968136,-2.9072489541392286,0.2891292924581701,0.7863287424648959,-10.027236610950505,6.22290490318257
8.056256758426745,-3.0075213202487334,0.2969925798828191,0.8485577914967216,-10.294843591423058,7.1103562795984505
8.026181545224258,-3.110469756162964,0.3054781577977863,0.9196613542927061,-10.60916699812441,8.051666428827714
7.995076847662628,-3.216561426144208,0.31467477134071337,1.0001780185809832,-10.977083433770765,9.05346518164005
7.9629112334011865,-3.3263322604819154,0.3246765515265232,1.0907126703973837,-11.406572641696581,10.12363985918805
7.929647910796367,-3.440397986898881,0.335583678230497,1.1919490689892642,-11.906861993692102,11.271502839140306
7.8952439309273785,-3.559466606835802,0.3475031689203896,1.3046640973806674,-12.488558655269099,12.507927055612916
7.85964926485902,-3.6843521933884933,0.3605498098941963,1.4297433679367966,-13.163735330992068,13.845395808805169
7.822805742925135,-3.815989546698414,0.3748472435735643,1.5681973260248483,-13.945904230327164,15.29786758120229
7.784645847458151,-3.9554485890016857,0.3905292168338128,1.7211760018368711,-14.84975780800062,16.88027547613887
7.745091361568134,-4.103946167081692,0.4077409768521815,1.8899787565982598,-15.890455161358748,18.60733796132081
7.704051899897317,-4.2628507186952795,0.4266407644181641,2.0760521362114677,-17.082057915020027,20.491108159626794
7.661423392710365,-4.43367129784548,0.4474012857802788,2.2809632178077357,-18.43441765946077,22.53626121269291
7.61708667973191,-4.618015474440088,0.4702109179583562,2.506325829934665,-19.94731382610932,24.731409493894933
7.570906524987509,-4.817488612701181,0.4952741762577028,2.7536399248736143,-21.599853852415272,27.033631136526296
7.522731638860497,-5.033487151225334,0.522810575506439,3.023976236238877,-23.33207607543824,29.34190571173888
7.472396767348244,-5.266807911979716,0.5530503378688277,3.317395293356266,-25.014734141226697,31.453843993474063
7.419728688228447,-5.516955253391982,0.5862242908023904,3.6319337332910067,-26.40404553857932,33.00134172292218
7.364559135694527,-5.780995708777776,0.6225436281353004,3.9619471505202286,-27.085524334067248,33.37135275720059
7.306749178606749,-6.051850952118448,0.6621630996405027,4.295660678092235,-26.434834144477716,31.65194129491904
7.2462306690855645,-6.316199293563225,0.7051197064214251,4.6121800910414255,-23.673958566828155,26.715299085498007
7.183068676149932,-6.552938879231507,0.7512415073318394,4.879333081896405,-18.153503683471204,17.62372342660707
7.117539287357617,-6.73447391606622,0.8000348381508035,5.055570316162476,-9.915291249424026,4.43530043429612
7.050194548196955,-6.83362682856046,0.8505905413124282,5.099923320505438,-0.20371629952578324,-11.06193586917775
6.98185827991135,-6.835663991555718,0.9015897745174826,4.98930396181366,8.804308287557559,-25.726566364956543
6.9135016399957925,-6.747620908680142,0.9514828141356192,4.7320382981640945,15.210382043093185,-36.785300253720585
