th1 (rad),w1 (rad/s),th2 (rad),w2 (rad/s),a1 (rad/s^2),a2 (rad/s^2)
3.2266432431211203,-1.6162246224013612,3.503879375674426,2.5536011496685083,0.7412324707339019,2.045372882482679
3.2104809968971066,-1.6088122976940222,3.5294153871711114,2.5740548784933353,0.6174158117416664,2.3082562333439633
3.1943928739201666,-1.6026381395766056,3.5551559359560447,2.5971374408267747,0.5146472156843811,2.550221954099559
3.1783664925244004,-1.597491667419762,3.5811273103643124,2.62263966036777,0.43378709379401825,2.7707305671594398
3.1623915758502026,-1.5931537964818216,3.60735370696799,2.6503469660393644,0.37503819784007403,2.970213814771035
3.1464600378853844,-1.5894034145034208,3.633857176628384,2.680049104187075,0.3380565488875203,3.1499204217346457
3.13056600374035,-1.5860228490145456,3.6606576676702547,2.711548308404421,0.32207527005893427,3.3117454989101716
3.1147057752502048,-1.5828020963139562,3.687773150754299,2.744665763393523,0.3260302797412556,3.458059137423118
3.098877754287065,-1.5795417935165437,3.715219808388234,2.779246354767754,0.3486791587452758,3.5915463641892194
3.0830823363518998,-1.5760550019290909,3.7430122719359114,2.815161818409646,0.3887071105506278,3.7150669217142234
3.067321786332609,-1.5721679308235845,3.771163890120008,2.8523124876267882,0.44481645722355573,3.831539765483537
3.051600107024373,-1.567719766251349,3.799687014996276,2.8906278852816234,0.5157983157350712,3.9438540749450537
3.0359229093618594,-1.5625617830939982,3.828593293849092,2.930066426031074,0.6005868394317546,4.054806142612027
3.020297291530919,-1.5565559146996806,3.8578939581094027,2.9706144874571945,0.6982976376252498,4.167059804048351
3.0047317323839224,-1.549572938323428,3.8876001029839746,3.012285085497678,0.8082527258146304,4.283127060324947
2.989236003000688,-1.5414904110652816,3.9177229538389513,3.055116356100928,0.9299946817904173,4.405365116444605
2.9738210988900353,-1.5321904642473774,3.9482741173999605,3.099170007265374,1.0632926848798931,4.5359860730441905
2.9584991942475614,-1.5215575373985784,3.9792658174726143,3.144529867995816,1.2081428966699084,4.677075818357273
2.9432836188735756,-1.5094761084318793,4.010711116152573,3.191300626179389,1.3647652907930086,4.830619141881256
2.928188857789257,-1.4958284555239492,4.042624122414367,3.2396068175982013,1.5335986272504607,4.998528624869538
2.9132305732340176,-1.4804924692514445,4.075020190590348,3.2895921038468967,1.7152948424744943,5.1826753784177235
2.898425648541503,-1.4633395208266995,4.107916111628818,3.341418857631074,1.9107137188710466,5.384920146126514
2.8837922533332363,-1.4442323836379891,4.141330300205128,3.395268059092339,2.1209183186434784,5.607143634093192
2.8693499294968565,-1.4230232004515544,4.175282980796052,3.4513394954332712,2.3471713142712063,5.851275159188432
2.855119697492341,-1.3995514873088424,4.2097963757503845,3.5098522470251554,2.5909320095673265,6.119318807605817
2.8411241826192524,-1.3736421672131691,4.244894898220636,3.5710454351012135,2.853853500014261,6.413376261790094
2.8273877609471207,-1.3451036322130265,4.280605352571648,3.6351791977191144,3.1377790413513065,6.735665274433957
2.8139367246249907,-1.3137258417995135,4.316957144548839,3.702535850463454,3.4447362466425298,7.088532425792649
2.8007994662069957,-1.2792784793330882,4.353982503053474,3.7734211747213804,3.776927172199147,7.474458267300496
2.788006681413665,-1.2415092076110967,4.391716714800688,3.8481657573943853,4.136711630603984,7.896052189167827
2.775591589337554,-1.200142091305057,4.430198372374631,3.9271262792860635,4.526580122521537,8.356033294833392
2.763590168424503,-1.1548762900798415,4.469469635167492,4.010686612234397,4.949111532983821,8.857192144845413
2.7520414055237046,-1.1053851747500032,4.509576501289836,4.0992585336828515,5.406909103780778,9.402326351379756
2.7409875537762045,-1.0513160837121953,4.550569086626665,4.193281797196649,5.902506070964444,9.994140548958265
2.7304743929390827,-0.9922910230025509,4.592501904598632,4.293223202686232,6.438229640203332,10.635098114085233
2.720551482709057,-0.9279087266005176,4.635434136625494,4.399574183827084,7.016008570647927,11.327208043368158
2.7112723954430518,-0.8577486408940383,4.679429878463765,4.512846264260765,7.637105506820626,12.071725563335887
2.7026949090341112,-0.781377585825832,4.7245583411063725,4.633563519894124,8.301750410624788,12.868739399274341
2.694881133175853,-0.6983600817195842,4.770893976305314,4.762250913886867,9.008646308788586,13.71661250062975
2.687897532358657,-0.6082736186316984,4.818516485444182,4.899417038893165,9.754313822557576,14.611237222267533
2.68181479617234,-0.5107304804061226,4.867510655833114,5.04552941111584,10.532238064803943,15.545062161864804
2.676707491368279,-0.4054080997580831,4.917965949944272,5.200980032734488,11.33178315284192,16.505849115177163
2.6726534103706983,-0.2920902682296639,4.969975750271617,5.36603852388626,12.136850287418735,17.475130124536886
2.6697325076884018,-0.17072176535547653,5.02363613551048,5.540789825131629,12.924282106293552,18.42636454215603
2.668025290034847,-0.04147894429254101,5.079044033761797,5.725053470553189,13.662068905920972,19.322856256763092
2.6676105005919215,0.0951417447666687,5.136294568467329,5.91828203312082,14.307504171369649,20.115596994311172
2.6685619180395883,0.2382167864803652,5.195477388798537,6.119438003063932,14.80558083982911,20.741368813677862
2.670944085904392,0.3862725948786563,5.256671768829176,6.3268516912007104,15.088122655182644,21.121676320814643
2.6748068118531787,0.5371538214304827,5.3199402857411835,6.538068454408857,15.074393561323081,21.163372087424644
2.6801783500674836,0.6878977570437136,5.385320970285272,6.749702175283104,14.674166663490677,20.76212275328932
2.6870573276379206,0.8346394236786203,5.452817992038103,6.957323402815997,13.794338223549019,19.8099920169959
2.695403721874707,0.9725828059141105,5.522391226066262,7.155423322985956,12.349934822124741,18.208146256027295
2.705129549933848,1.0960821541353578,5.593945459296122,7.337504785546229,10.279533384549948,15.88472332189504
2.7160903714752016,1.1988774879808572,5.667320507151584,7.4963520187651795,7.56354081093543,12.81606446553753
2.72807914635501,1.2745128960902115,5.7422840273392355,7.624512663420555,4.24165643368196,9.047025975321342
2.740824275315912,1.316929460427031,5.818529153973441,7.7149829231737685,0.42395124101753695,4.703892197455831
2.7539935699201825,1.3211689728372062,5.895678983205179,7.762021845148327,-3.710341961362177,-0.006948078090640536
2.767205259648555,1.2840655532235845,5.973299201656662,7.761952364367421,-7.929841599935602,-4.818562376257746
2.7800459151807906,1.2047671372242286,6.0509187253003365,7.713766740604843,-11.982293325740644,-9.439375772278499
2.7920935865530327,1.0849442039668222,6.128056392706385,7.619372982882058,-15.632844246378712,-13.596941123297325
2.802943028592701,0.928615761503035,6.204250122535205,7.4834035716490845,-18.698760824295203,-17.07745571215955
2.8122291862077313,0.741628153260083,6.279084158251696,7.312629014527489,-21.071262329518365,-19.75047979307605
2.819645467740332,0.5309155299648993,6.3522104483969715,7.115124216596728,-22.72025637223658,-21.57425380611928
2.8249546230399813,0.3037129662425335,6.423361690562939,6.899381678535535,-23.683867644160646,-22.58392275452758
2.8279917527024065,0.06687428980092705,6.492355507348295,6.67354245099026,-24.048748069361565,-22.869491942963126
2.828660495600416,-0.17361319089268862,6.559090931858197,6.444847531560629,-23.928016968039906,-22.551181462778672
2.826924363691489,-0.4128933605730877,6.623539407173803,6.219335716932842,-23.442023724331463,-21.757920381090265
2.822795430085758,-0.6473135978164023,6.685732764343132,6.001756513121939,-22.704527304732938,-20.611813403066343
2.816322294107594,-0.8743588708637317,6.745750329474351,5.795638379091276,-21.81464019777638,-19.21893935818987
2.8075787053989565,-1.0925052728414955,6.803706713265264,5.603448985509377,-20.853544467198248,-17.66538337206493
2.7966536526705417,-1.301040717513478,6.8597412031203575,5.4267951517887285,-19.88451142778743,-16.016893331062658
2.7836432454954068,-1.4998858317913522,6.9140091546382445,5.266626218478102,-18.954838859266204,-14.320643945800652
2.7686443871774933,-1.6894342203840143,6.966675416823025,5.123419779020096,-18.09864974347053,-12.607949210388917
2.751750044973653,-1.8704207178187195,7.0179096146132265,4.997340286916207,-17.33986520401941,-10.897161442114642
2.733045837795466,-2.0438193698589138,7.067883017482388,4.88836867249506,-16.694970100478557,-9.196324205895081
2.712607644096877,-2.2107690708636993,7.116766704207339,4.79640543043611,-16.175404214658744,-7.505377581867943
2.69049995338824,-2.3725231130102866,7.1647307585117,4.721351654617431,-15.7895437733768,-5.817857247708591
2.666774722258137,-2.5304185507440544,7.211944275057874,4.663173082140345,-15.54430816072319,-4.122107110438862
2.6414705367506963,-2.6858616323512865,7.258576005879277,4.621952011035956,-15.446455631685463,-2.402062615595438
2.6146119204271834,-2.8403261886681412,7.304795525989637,4.597931384880002,-15.503634700037207,-0.637678309463186
2.5862086585405017,-2.995362535668513,7.350774839838437,4.5915546017853694,-15.725242886043382,1.194914972724335
2.5562550331838167,-3.152614964528947,7.396690385856291,4.603503751512613,-16.12311278505705,3.1234152147160783
2.5247288835385273,-3.3138460923795177,7.442725423371417,4.634737903659774,-16.711989726222438,5.179355190197996
2.491590422614732,-3.480965989641742,7.489072802408015,4.686531455561754,-17.509666435573187,7.397832061843771
2.4567807627183145,-3.656062653997474,7.535938116963632,4.760509776180192,-18.53645897314302,9.816448059629153
2.4202201361783398,-3.841427243728904,7.5835432147254345,4.858674256776483,-19.813370770634886,12.47249016040845
2.3818058637410506,-4.039560951435253,7.632129957293199,4.983399158380568,-21.357664759857915,15.396505672339892
2.341410254226698,-4.253137599033832,7.681963948877005,5.1373642151039665,-23.17342690573874,18.598837820063885
2.29887887823636,-4.484871868091219,7.733337591028045,5.323352593304605,-25.232759026107956,22.04294920776206
2.2540301595554477,-4.737199458352299,7.786571116961091,5.543782085382226,-27.440326113723625,25.59525527635494
2.2066581649719246,-5.0116027194895345,7.842008937814914,5.799734638145775,-29.57108417520038,28.93708792792918
2.1565421377770293,-5.307313561241538,7.900006284196372,6.089105517425067,-31.173489757145532,31.42784656329171
2.103469002164614,-5.619048458812994,7.960897339370622,6.403383983057984,-31.455610421240195,31.943677288899664
2.047278517576484,-5.933604563025396,8.024931179201202,6.722820755946981,-29.255032262144642,28.833495181190962
1.98794247194623,-6.226154885646842,8.092159386760672,7.01115570775889,-23.349180914553703,20.353637607246483
1.9256809230897616,-6.459646694792379,8.16227094383826,7.214692083831355,-13.38773780527916,5.978817373162
1.8610844561418378,-6.593524072845171,8.234417864676574,7.274480257562975,-1.0471447208277949,-11.970277050942071
1.7951492154133861,-6.6039955200534495,8.307162667252204,7.154777487053554,10.194769443089678,-28.632757997354886
1.7291092602128517,-6.502047825622553,8.378710442122738,6.868449907080005,17.375958659109926,-39.85051605109807
1.6640887819566261,-6.328288239031453,8.447394941193538,6.469944746569024,19.951958156482902,-44.836808131785176
1.6008058995663117,-6.128768657466624,8.512094388659229,6.021576665251173,19.213696094432134,-45.37161864387273
1.5395182129916454,-5.936631696522303,8.57231015531174,5.567860478812445,16.73879517685884,-43.64381958730172
1.4801518960264224,-5.769243744753715,8.627988760099864,5.131422282939428,13.614583769045536,-41.16760873996802
1.4224594585788852,-5.633097907063259,8.679302982929258,4.719746195539748,10.409875447362928,-38.74133770881255
1.3661284795082527,-5.5289991525896305,8.726500444884655,4.332332818451622,7.365837001372867,-36.71106297290704
1.3108384879823562,-5.4553407825759015,8.769823773069172,3.9652221887225516,4.556408977477188,-35.19183806705796
1.2562850801565972,-5.409776692801129,8.809475994956397,3.613303808051972,1.9812239422013804,-34.195326779672975
1.2021873132285859,-5.389964453379116,8.845609033036917,3.2713505402552423,-0.3880164198521733,-33.692803620182644
1.1482876686947947,-5.393844617577638,8.87832253843947,2.934422504053416,-2.5861740092798953,-33.64332736535301
1.0943492225190183,-5.419706357670436,8.907666763480004,2.597989230399886,-4.645390396899593,-34.00492338018009
1.040152158942314,-5.466160261639432,8.933646655784003,2.257939996598085,-6.591277177587617,-34.73787202963176
0.9854905563259196,-5.532073033415308,8.956226055749983,1.9105612763017672,-8.4414347032805,-35.804442288177526
0.9301698259917666,-5.616487380448113,8.975331668513,1.5525168534199918,-10.204875765163314,-37.16708544027056
0.8740049521872855,-5.718536138099746,8.9908568370472,1.1808459990172862,-11.881762824014933,-38.78603811676932
0.816819590806288,-5.837353766339896,9.002665297037373,0.7929856178495929,-13.463274821919017,-40.61683294480772
0.758446053142889,-5.971986514559086,9.010595153215869,0.3868172884015157,-14.931629608763625,-42.60805821860046
0.6987261879972981,-6.121302810646722,9.014463326099884,-0.03926329378448895,-16.260402224559463,-44.69968539786739
0.6375131598908309,-6.283906832892317,9.01407069316204,-0.4862601477631629,-17.415335452460525,-46.822305960416124
0.5746740915619077,-6.458060187416923,9.009208091684409,-0.9544832073673242,-18.355842390169503,-48.89762565525016
0.5100934896877385,-6.641618611318617,8.999663259610735,-1.4434594639198257,-19.037342110738923,-50.84050423341112
0.4436773035745523,-6.831992032426006,8.985228664971537,-1.951864506253937,-19.414439983426977,-52.56266481521683
0.3753573832502922,-7.026136432260277,8.965710019908997,-2.4774911544061053,-19.44476998464938,-53.977918028266934
0.30509601892768945,-7.2205841321067705,8.940935108364936,-3.017270334688775,-19.093090358471553,-55.008384369395635
0.23289017760662173,-7.411515035691486,8.910762405018048,-3.567354178382731,-18.335028992142263,-55.59083849128184
0.15877502724970688,-7.594865325612909,8.87508886323422,-4.123262563295549,-17.159789655517912,-55.682064014257975
0.0828263739935778,-7.766463222168087,8.833856237601264,-4.680083203438129,-15.571219124834172,-55.26211579807269
0.005161741771896919,-7.922175413416429,8.787055405566882,-5.232704361418856,-13.586911895527473,-54.33469550321923
-0.07406001236226738,-8.058044532371705,8.734728361952694,-5.776051316451048,-11.235436373403266,-52.92440804819202
-0.15464045768598444,-8.170398896105738,8.676967848788184,-6.305295396932968,-8.552188914127466,-51.07133149958756
-0.23634444664704182,-8.255920785247012,8.613914894818855,-6.816008711928844,-5.57469258069463,-48.82390572817396
-0.31890365449951197,-8.311667711053959,8.545754807699566,-7.304247769210583,-2.338271406038262,-46.23146780063158
-0.4020203316100516,-8.335050425114341,8.472712330007461,-7.7665624472168995,1.1270618249137985,-43.33777594761682
-0.485370835861195,-8.323779806865202,8.395046705535291,-8.199940206693068,4.797909583686558,-40.17661767342962
-0.5686086339298471,-8.275800711028337,8.31304730346836,-8.601706383427365,8.656701454384288,-36.77020264837674
-0.6513666410401304,-8.189233696484495,8.227030239634088,-8.969408409911132,12.688841820206752,-33.13060772981204
-0.7332589780049754,-8.062345278282427,8.137336155534976,-9.300714487209252,16.87810912940603,-29.264132268183683
-0.8138824307877996,-7.893564186988367,8.044329010662883,-9.593355809891088,21.200896482720253,-25.178042532682575
-0.8928180726576833,-7.681555222161164,7.948395452563973,-9.845136235217915,25.620161209126426,-20.88881056587597
-0.9696336248792949,-7.4253536100699,7.849944090211793,-10.054024340876675,30.08022080582636,-16.4305776392898
-1.043887160979994,-7.124551402011636,7.749403846803027,-10.218330117269572,34.503723772372034,-11.862249016244354
-1.1151326750001105,-6.7795141642879155,7.647220545630331,-10.336952607432016,38.79210732829006,-7.271486106459498
-1.1829278166429897,-6.391593091005015,7.543851019556011,-10.409667468496611,42.83048493475305,-2.7740811643734826
-1.2468437475530398,-5.963288241657485,7.439754344871045,-10.437408280140346,46.497111561979686,1.4920884492407624
-1.3064766299696147,-5.498317126037688,7.335380262069642,-10.422487395647938,49.67645056219794,5.378154517754869
-1.3614598012299917,-5.001552620415708,7.231155388113163,-10.36870585047039,52.2737229470053,8.738661575713987
-1.4114753274341487,-4.478815390945655,7.127468329608459,-10.28131923471325,54.228101902392645,11.446446940223769
-1.4562634813436053,-3.936534371921729,7.024655137261327,-10.166854765311012,55.52179679163337,13.404810069087878
-1.4956288250628225,-3.3813164040053953,6.922986589608216,-10.032806664620132,56.18323038641859,14.55438064787616
-1.5294419891028763,-2.819484100141209,6.822658522962015,-9.887262858141371,56.284043205674,14.873448710087153
-1.5576368301042884,-2.256643668084469,6.723785894380601,-9.7385283710405,55.93119852673083,14.372111223449473
-1.5802032667851331,-1.6973316828171607,6.626400610670196,-9.594807258806005,55.25647937925251,13.081837039462533
-1.5971765836133047,-1.1447668890246356,6.530452538082136,-9.46398888841138,54.40591144290685,11.042594243839448
-1.608624252503551,-0.6007077745955671,6.435812649198022,-9.353562945972985,53.53120249344752,8.289502711687561
-1.6146313302495068,-0.06539574966109185,6.342277019738292,-9.270667918856109,52.78446466161228,4.840328226463627
-1.6152852877461177,0.462448896955031,6.249570340549731,-9.222264636591472,52.31659255732323,0.6843974168066889
-1.6106607987765673,0.9856148225282634,6.157347694183816,-9.215420662423405,52.27885098400168,-4.226934359971737
-1.6008046505512847,1.5084033323682802,6.065193487559582,-9.257690006023122,52.8263285103476,-9.987851274480915
-1.585720617227602,2.0366666174717563,5.972616587499351,-9.35756851876793,54.12031703778381,-16.741465495923507
-1.5653539510528844,2.577869787849594,5.879040902311671,-9.524983173727165,56.32283041492827,-24.671523341643454
-1.5395752531743885,3.141098091998877,5.7837910705744,-9.7716984071436,59.56667802048817,-33.96121287366666
-1.5081642722543998,3.7367648722037585,5.6860740865029635,-10.111310535880266,63.8602511450018,-44.66391970791041
-1.4707966235323622,4.375367383653776,5.584960981144161,-10.55794973295937,68.83067795802353,-56.35285789329951
-1.4270429496958243,5.063674163234012,5.479381483814567,-11.121478311892366,73.10739965990395,-67.27234541204777
-1.3764062080634842,5.794748159833051,5.368166700695643,-11.794201766012844,73.10100726433912,-72.63913796402264
-1.3184587264651537,6.525758232476442,5.250224683035515,-12.52059314565307,61.67068110003163,-62.75150467050966
-1.2532011441403892,7.142465043476759,5.125018751578984,-13.148108192358167,30.63021459149651,-26.355395728894962
-1.1817764937056217,7.448767189391724,4.993537669655402,-13.411662149647118,-16.33986991757218,31.63365755144413
-1.1072888218117045,7.285368490216002,4.859421048158931,-13.095325574132676,-55.384703314599406,78.84690441548389
-1.0344351369095446,6.731521457070008,4.728467792417605,-12.306856529977837,-69.35436460328522,92.5024700072457
-0.9671199223388445,6.037977811037156,4.605399227117826,-11.38183182990538,-65.78724606932012,83.38835701685355
-0.9067401442284729,5.380105350343955,4.491580908818772,-10.547948259736845,-56.85756883180592,67.97423170139979
-0.8529390907250334,4.811529662025896,4.386101426221404,-9.868205942722847,-48.157735758294486,53.502779675403765
-0.8048237941047744,4.32995230444295,4.287419366794175,-9.333178145968809,-41.094765329548515,41.577697582239296
-0.7615242710603449,3.9190046511474654,4.194087585334487,-8.917401170146416,-35.68237093220759,32.012885174405945
-0.7223342245488703,3.5621809418253894,4.104913573633023,-8.597272318402357,-31.62501837754559,24.27665302074885
-0.6867124151306164,3.2459307580499335,4.018940850448999,-8.354505788194869,-28.624693598306443,17.879677563576443
