th1 (rad),w1 (rad/s),th2 (rad),w2 (rad/s)
6.015677385461278,-0.2323709384713738,4.773821698781782,2.048510180403007
6.013353676076564,-0.24274679620443435,4.794306800585812,2.150188149877
6.01092620811452,-0.25603399570586033,4.815808682084581,2.2529906788777896
6.008365868157461,-0.27238554959906625,4.838338588873359,2.3570763277938904
6.00564201266147,-0.291956197590644,4.861909352151298,2.4626182311786966
6.002722450685564,-0.3149022204275412,4.886535534463085,2.5698048801429825
5.9995734284812885,-0.3413809859279756,4.9122335832645145,2.6788406527685336
5.996159618622008,-0.3715500928809609,4.9390219897922,2.789945924832051
5.992444117693199,-0.40556592183728396,4.9669214490405205,2.903356519165535
5.988388458474827,-0.44358132264205863,4.995955014232176,3.0193221477620766
5.983952645248406,-0.4857420587634815,5.026148235709797,3.138103354716774
5.979095224660772,-0.5321814774152129,5.057529269256964,3.259966265145515
5.973773409886619,-0.5830126690598453,5.090128931908419,3.3851741664338433
5.967943283196021,-0.6383171054300195,5.123980673572757,3.513974571756386
5.961560112141721,-0.6981283883223276,5.159120419290321,3.646579920753894
5.954578828258498,-0.7624092971599271,5.19558621849786,3.7831394476180034
5.946954735286899,-0.8310198105496572,5.233417612974041,3.923699012252597
5.9386445371814025,-0.9036732686775434,5.272654603096567,4.0681449367540745
5.929607804494627,-0.9798775210428009,5.313336052464107,4.216127354559952
5.919809029284199,-1.0588581479065944,5.355497326009707,4.366958770870767
5.909220447805133,-1.1394623590151085,5.399166913718415,4.519485404664726
5.897825824214982,-1.220046116455488,5.444361767765062,4.671934017011434
5.885625363050427,-1.298354998979851,5.491081107935177,4.82174753759706
5.872641813060628,-1.3714228824153303,5.539298583311147,4.965441076546828
5.858927584236475,-1.4355316337363715,5.588952994076616,5.0985359323420605
5.844572267899111,-1.4862949676582458,5.639938353400036,5.215656637851346
5.829709318222529,-1.5189369911426134,5.692094919778549,5.310886700846358
5.814519948311102,-1.5288083928464897,5.7452037867870125,5.378441905302968
5.799231864382637,-1.5121014870035678,5.798988205840042,5.413609478402539
5.784110849512602,-1.4666019442755729,5.853124300624068,5.413734302840609
5.769444830069846,-1.39221851857152,5.9072616436524745,5.378903471648288
5.75552264488413,-1.2910581867799877,5.961050678368958,5.312018417294709
5.74261206301633,-1.1669919641838533,6.014170862541905,5.218187660971755
5.730942143374492,-1.024883894299211,6.066352739151622,5.103680882746901
5.720693304431499,-0.8697743649180887,6.117389547979091,4.974840843024059
5.711995560782318,-0.7062569588993762,6.167137956409332,4.8372724946714225
5.704932991193324,-0.5381413252723157,6.2155106813560455,4.695425755099965
5.699551577940601,-0.36836659114352754,6.262464938907045,4.552515542227565
5.695867912029166,-0.19907401602449698,6.307990094329321,4.410650454519489
5.6938771718689205,-0.031751263597593976,6.352096598874516,4.271050081240661
5.693559659232944,0.13261074099595832,6.394807099686922,4.134272016720319
5.694885766642904,0.2933786365537626,6.436149819854125,4.000409548650639
5.697819553008442,0.45016573483115385,6.476153915340632,3.8692476321893565
5.702321210356753,0.6027494678573102,6.514846391662525,3.740378636958125
5.708348705035326,0.7510128528462777,6.552250178032106,3.6132847897113978
5.7158588335637885,0.8949046271689337,6.58838302592922,3.4873952035695597
5.724807879835478,1.0344131663778944,6.623256977964916,3.362124446332385
5.735152011499257,1.1695502392360393,6.656878222428239,3.2368981108149266
5.746847513891617,1.3003416130995593,6.689247203536389,3.1111694121239966
5.759850930022613,1.4268223307503691,6.720358897657628,2.984429658213912
5.774119153330116,1.5490351019041195,6.750203194239767,2.8562145495889153
5.7896095043491576,1.6670307089744865,6.778765339735656,2.7261076228721146
5.806279811438903,1.780869652153765,6.806026415964378,2.5937417061732577
5.8240885079604405,1.8906244874556941,6.83196383302611,2.458798950919253
5.842994752834997,1.99638247085577,6.856551822535303,2.321009804372319
5.862958577543555,2.0982482329479426,6.879761920579026,2.1801511591062246
5.883941059873035,2.1963462865055137,6.901563432170088,2.0360438385042245
5.90590452273809,2.2908232241532867,6.92192387055513,1.888549535723012
5.928812754979623,2.3818495016281203,6.94080936591236,1.737567307218736
5.952631249995904,2.4696207277713222,6.958185038984547,1.5830297240881952
5.977327457273617,2.5543583973978943,6.974015336225429,1.4248988010518306
6.002871041247596,2.6363100078799544,6.9882643242359475,1.263161851958411
6.029234141326396,2.7157484936701994,7.000895942755531,1.0978274621950215
6.056391626263098,2.792970892806672,7.011874217377481,0.9289218241978279
6.084321335191165,2.868296122078957,7.021163435619459,0.7564857562825558
6.113004296411955,2.9420616778926703,7.028728293182285,0.580572823489423
6.142424913190881,3.014618991106817,7.034534021417179,0.40124911099194904
6.17257110310195,3.0863270374820257,7.038546512527098,0.21859537771696128
6.20343437347677,3.1575436302773587,7.040732466304268,0.03271255479395985
6.235009809779544,3.2286135863772247,7.041059591852208,-0.15626813357931615
6.2672959456433155,3.299852652043945,7.039496910516415,-0.3481687463750783
6.300294472163755,3.3715256963984905,7.036015223052664,-0.5427397226467282
6.33400972912774,3.443817247511184,7.030587825826197,-0.7396237592053154
6.368447901602853,3.5167920193093987,7.023191588234144,-0.9383051866050471
6.403615821795946,3.590342806646948,7.013808536368093,-1.138041251521103
6.439519249862416,3.664123317499933,7.002428123852882,-1.3377720710614702
6.4761604830374155,3.7374647267895367,6.989050403142267,-1.5360078401834905
6.513535130305311,3.8092778895242523,6.973690324740432,-1.7306964302599364
6.551627909200553,3.8779495048999015,6.956383360437833,-1.9190835801339938
6.590407404249552,3.941251341260959,6.937192524636493,-2.0975931976349007
6.629819917662162,3.996297050492166,6.9162165926601435,-2.261776987936624
6.6697828881670835,4.039597794425309,6.893598822780778,-2.4064059201957195
6.710178866111336,4.0672759816958886,6.86953476357882,-2.5257868717520005
6.750851625928295,4.075478525483238,6.8442768948613,-2.6143616229964883
6.791606411183127,4.060970149344454,6.818133278631335,-2.6675582993299387
6.832216112676572,4.021787650754398,6.791457695638036,-2.6827237808751057
6.872433989184116,3.957745351012109,6.764630457829285,-2.659837449458636
6.912011442694237,3.870578973696757,6.738032083334699,-2.601703635025659
6.950717232431205,3.7636419575287605,6.712015046984442,-2.513501566925705
6.988353652006492,3.6412634313099237,6.6868800313151855,-2.4018500854398197
7.024766286319592,3.508009303654597,6.662861530460788,-2.273732913536926
7.059846379356138,3.3680770491509873,6.640124201325419,-2.135615010433415
7.093527149847648,3.2249391690809546,6.6187680512210845,-1.9929158055417067
7.125776541538458,3.081227404037195,6.598838893165667,-1.8498294762969905
7.1565888155788295,2.938782893704405,6.580340598402698,-1.709386239489949
7.185976644515874,2.798788988201977,6.563246736007798,-1.5736356659696158
7.213964534397894,2.6619254430967243,6.547510379348102,-1.4438638872351257
7.240583788828861,2.5285099395288833,6.533071740475751,-1.3207951776547615
7.26586888822415,2.3986133428282903,6.519863788699203,-1.2047576637517718
7.289855021652432,2.2721469322178653,6.507816212061685,-1.0958099585629477
7.31257649097461,2.1489251837051633,6.496858112476056,-0.9938333559550029
7.334065742811662,2.0287092726819806,6.486919778916506,-0.8985966542528154
7.3543528355384815,1.9112362520336696,6.477933812373978,-0.809800506100148
7.373465198058819,1.7962379940808422,6.469835807312976,-0.7271070396034123
7.391427577999627,1.683453015711473,6.462564736916942,-0.6501591663670594
7.408262108156742,1.5726334588247848,6.456063145253271,-0.5785928134343706
7.42398844274499,1.4635488324813308,6.450277217118927,-0.5120443817465863
7.438623931069803,1.3559876296037752,6.445156773301461,-0.45015503600598233
7.452183807365841,1.2497575777637266,6.440655222941401,-0.39257292808925465
7.4646813831434775,1.1446850362519203,6.436729493660509,-0.3389541019766803
7.476128233505997,1.0406138810106065,6.4333399526407415,-0.2889625823011091
7.486534372316103,0.9374041024889556,6.430450326817731,-0.24226997967009428
7.495908413340993,0.8349302624760296,6.42802762702103,-0.19855483067149265
7.504257715965752,0.7330799026812371,6.426042078714315,-0.15750181233715604
7.511588514992565,0.6317519620518286,6.424467060590944,-0.11880091816330095
7.517906034613083,0.5308552358854418,6.4232790514093105,-0.08214664749480691
7.523214586971937,0.4303068938530349,6.422457584934363,-0.04723723661656191
7.527517655910468,0.3300310634745293,6.421985212568197,-0.013773944449739416
7.530817966545213,0.2299574786167528,6.4218474731237,0.01853960427822069
7.5331175413313805,0.1300201880207259,6.422032869166482,0.049998021909186445
7.534417743211588,0.030156315916949505,6.422532849385574,0.08089471424836184
7.534719306370757,-0.06969513507434805,6.4233417965280575,0.1115224002836662
7.534022355020014,-0.16959444967922221,6.424457020530894,0.14217360629327075
7.532326410523221,-0.26960234585262566,6.425878756593827,0.17314114592893975
7.529630387064695,-0.36978111249933765,6.427610168053116,0.20471859785951313
7.525932575939701,-0.4701957505476185,6.429657354031711,0.23720079211612344
7.521230618434225,-0.57091512834063,6.432029361952872,0.2708843153871277
7.515521467150818,-0.6720131613135685,6.434738205106743,0.30606804405515586
7.508801335537682,-0.773570024332602,6.437798885547295,0.3430537115276998
7.501065635294356,-0.8756734026472006,6.441229422662572,0.3821465130230973
7.492308901267885,-0.9784197837891704,6.445050887792803,0.4236557458870274
7.482524703429993,-1.0819157874056595,6.449287445251673,0.4678954759268368
7.4717055455559365,-1.1862795221593603,6.453966400010941,0.515185208999667
7.459842750334343,-1.291641947333869,6.459118252100938,0.5658505305043622
7.446926330861005,-1.398148200006032,6.464776757405981,0.6202236511115244
7.432944848860944,-1.5059588242254667,6.470978993917097,0.6786437615961423
7.417885260618689,-1.6152508031776092,6.477765431533058,0.7414570481296231
7.401732752586914,-1.726218243947818,6.485180002014354,0.8090161449106218
7.384470570147435,-1.8390724903724633,6.4932701634634595,0.8816786937966443
7.366079845243711,-1.9540413329270783,6.502086950401426,0.9598045270281284
7.34653943191444,-2.071366832419321,6.5116849956717076,1.0437507705874152
7.325825763590247,-2.191301058736568,6.522122503377582,1.1338638574515185
7.303912753002882,-2.314098744511548,6.533461141952097,1.2304670106395812
7.280771765557766,-2.4400054399667734,6.545765812058493,1.3338411692158314
7.256371711158098,-2.5692392037873817,6.559104223750651,1.4441965517205275
7.230679319120225,-2.7019631631500194,6.573546189267857,1.5616310658393882
7.203659687488725,-2.838245452528981,6.589162499926251,1.6860706249999498
7.175277232963435,-2.978002221954951,6.60602320617625,1.817185306971261
7.145497210743885,-3.120918919951263,6.624195059245962,1.9542746606482986
7.114288021544373,-3.266345607538654,6.643737805852445,2.0961163414381314
7.081624565468986,-3.4131649553840573,6.664698969266826,2.240776497011985
7.047492915915146,-3.5596389111050373,6.687106734236946,2.3853909094689407
7.011896526804096,-3.7032544564515497,6.710960643331635,2.525946591600241
6.97486398223958,-3.8406122063769397,6.736220109247638,2.65712686301993
6.936457860175811,-3.9674310317485832,6.7627913778778375,2.7723248671481073
6.896783549858325,-4.078763769012581,6.790514626549318,2.8639615925370765
6.8559959121682,-4.169504551740516,6.8191542424746885,2.924223681236538
6.814300866650795,-4.235183263003967,6.848396479287054,2.946215128716754
6.771949034020755,-4.27288495177217,6.877858630574221,2.925292208602535
6.729220184503034,-4.281978107276906,6.907111552660246,2.8601307067915385
6.686400403430265,-4.264324334833828,6.935712859728161,2.7530561408465997
6.643757160081927,-4.223847315294118,6.963243421136627,2.609457380675889
6.601518686928986,-4.165646159822442,6.989337994943386,2.4365407877618703
6.559862225330762,-4.095020750289759,7.013703402821005,2.24194454451492
6.518912017827864,-4.016724563219956,7.036122848266154,2.0326635668348016
6.478744772195665,-3.934569116235755,7.056449483934502,1.81446678167918
6.439399081033307,-3.8513345244223824,7.074594151751294,1.5917478645551844
6.400885735789084,-3.768869131159245,7.090511630396845,1.3676471305501694
6.3631970444774915,-3.6882689197036447,7.104188101702347,1.1442909869725841
6.326314355280455,-3.6100659868996328,7.115631011572073,0.923048461563037
6.290213695411459,-3.5343920087567198,7.1248614961877035,0.7047555251759183
6.2548697753238915,-3.461106419972016,7.131909051439463,0.4898914949324895
6.220258711124171,-3.389891004824894,7.136807966388788,0.2787089158580397
6.186359801075922,-3.3203170546517353,7.139595055547368,0.07132487233317159
6.153156630529405,-3.25189187941499,7.1403083042707,-0.13221719075252192
6.120637711735255,-3.1840905407545317,7.138986132363175,-0.3319071674272004
6.08879680632771,-3.1163773531743497,7.1356670606889026,-0.5277432617728632
6.057633032795966,-3.04822046561247,7.130389628071174,-0.7197176161967545
6.027150828139841,-2.97910184120901,7.1231924519092065,-0.9078093031185764
5.997359809727751,-2.908524208432708,7.1141143588780205,-1.091982372303047
5.968274567643424,-2.83601602158791,7.10319453515499,-1.2721873490356281
5.939914407427545,-2.761135093705033,7.090472661664633,-1.4483650653829951
5.912303056490495,-2.6834713065016826,7.075989011010804,-1.6204520381054761
5.885468343425478,-2.6026486268162072,7.059784490629749,-1.7883868298509888
5.859441857157315,-2.5183265421295715,7.041900622331239,-1.9521169801345386
5.8342585917360195,-2.430200952235237,7.0223794525298935,-2.111606194280484
5.809956582213667,-2.338004507844354,7.001263390587089,-2.2668415493384764
5.786576537135224,-2.2415063617079465,6.978594975093704,-2.41784052777687
5.764161473518144,-2.140511288023563,6.954416569815935,-2.5646577302966276
5.742756360637909,-2.0348581275105837,6.928769992512969,-2.7073911532721104
5.722407779362803,-1.9244175258019605,6.901696080980248,-2.846187946828986
5.703163604104784,-1.8090889497896807,6.873234201511957,-2.981249597447455
5.685072714606887,-1.688796989087349,6.843421705537483,-3.112836503848802
5.668184744716013,-1.563486977404742,6.812293340498995,-3.2412719350687684
5.652549874941966,-1.4331200018769814,6.779880621148307,-3.3669453718851403
5.638218674923196,-1.2976674090711373,6.746211167429456,-3.4903152322124322
5.625242000832484,-1.1571049682202679,6.711308015107331,-3.6119109603338018
5.613670951150282,-1.0114069217352888,6.675188905503993,-3.732334407995439
5.60355688193293,-0.8605402509275464,6.6378655614240385,-3.8522603361991665
5.594951479423654,-0.7044596280627157,6.599342958062047,-3.9724356956569578
5.5879068831430265,-0.5431037404519927,6.559618601105477,-4.093677064729187
5.582475845738506,-0.37639399769245807,6.518681830458185,-4.216865181431118
5.5787119057615815,-0.20423712765243726,6.476513178643874,-4.342934819599765
5.576669534485057,-0.02653391381474343,6.433083830447876,-4.472857211406317
5.5764041953469095,0.15680256027990938,6.388355258333813,-4.607610647661913
5.577972220949708,0.34581417419854976,6.342279151857194,-4.748132590528141
5.581430362691694,0.5404432923171428,6.294797825951912,-4.895243402159749
5.586834795614865,0.7404463467274518,6.245845391930315,-5.049527541281422
5.59423925908214,0.9452619525260195,6.195350116517501,-5.211153175727261
5.6036918786074,1.1538174974076567,6.143238584760228,-5.379607173221949
5.6152300535814765,1.3642595398381951,6.0894425130280085,-5.553323599911614
5.628872648979859,1.5736053591310089,6.033909277028893,-5.729199386106493
5.644608702571169,1.7773473829136246,5.976617283167828,-5.902037049204015
5.662382176400305,1.9691137515416577,5.917596912675788,-6.064052112403588
5.682073313915722,2.140600830965378,5.856956391551752,-6.204738326176337
5.703479322225376,2.2821038831394804,5.794909008289989,-6.311538549144963
5.72630036105677,2.3839451316702753,5.7317936227985395,-6.3717372313746266
5.750139812373473,2.4387417672845,5.668076250484793,-6.375505660985004
5.774527230046318,2.443768909925969,5.604321193874943,-6.319089999100643
5.798964919145577,2.402163163952088,5.541130293883937,-6.206434633400875
5.822986550785098,2.322121347657069,5.479065947549928,-6.048096092138109
5.846207764261669,2.2145013872503525,5.418584986628547,-5.858015186157575
5.868352778134172,2.0901658882558425,5.360004834766971,-5.649976268017521
5.889254437016731,1.9581989443259666,5.303505072086796,-5.435274742735891
5.90883642645999,1.8252665108183415,5.249152324659437,-5.2219328480800025
5.927089091568173,1.6957732504251568,5.196932996178637,-5.014972740185378
5.944046824072425,1.572357458057449,5.146783268776783,-4.817120169024764
5.959770398652999,1.4564204482011411,5.098612067086536,-4.629532480518477
5.974334603135011,1.3485602502333398,5.05231674228135,-4.452382936534572
5.987820205637345,1.2488839983117817,5.007792912916004,-4.285273749770051
6.000309045620463,1.1572166417891179,4.964940175418304,-4.127506351977698
6.011881212038354,1.07323360013348,4.9236651118985275,-3.978248847716985
6.022613548039689,0.996541878783757,4.883882623421358,-3.836635005345616
6.0325789668275265,0.926727854372847,4.845516273367902,-3.7018198066175563
6.041846245371255,0.8633841556102458,4.808498075301726,-3.573008354042856
6.050480086927358,0.8061237352717604,4.772767991761297,-3.4494689049704714
6.058541324280076,0.7545862634264656,4.738273302711592,-3.3305367378300437
6.0660871869143405,0.7084400350943959,4.704967935333292,-3.215612940024188
6.073171587265285,0.6673813535006388,4.6728118059330495,-3.1041605675225483
6.079845400800291,0.631132578626361,4.641770200257824,-2.9956996161632743
6.086156726586555,0.5994395524154325,4.611813204096191,-2.889801630016454
6.092151122110709,0.572068817488612,4.582915187796027,-2.7860844021707276
6.0978718102855956,0.5488048660550802,4.555054343774319,-2.6842070032609424
6.103359858946146,0.529447546332858,4.52821227374171,-2.5838652442853025
6.108654334409475,0.5138096880935801,4.502373621298857,-2.484787606700127
6.113792431290411,0.501714970133426,4.477525745231856,-2.3867316323647043
6.118809580991745,0.49299603014384497,4.453658428908208,-2.2894807451815096
6.123739541293183,0.487492805183488,4.430763621456394,-2.1928414670561818
6.128614469345018,0.48505108476344133,4.408835206785832,-2.0966409881322288
6.133464980192652,0.48552125599993684,4.38786879690451,-2.0007250521556426
6.138320192752651,0.4887572198538723,4.3678615463829535,-1.9049561205185097
6.14320776495119,0.49461545824117853,4.348811985177768,-1.809211781978185
6.148153919533602,0.5029542332012222,4.3307198673579865,-1.7133833786572141
6.1531834618656145,0.5136329010150793,4.313586033571414,-1.6173748223775444
6.158319790875765,0.5265113259727247,4.297412285347638,-1.5211015785116573
6.163584904135493,0.5414493802834799,4.282201269562522,-1.424489797280041
6.168999397938328,0.5583065183440501,4.2679563715897215,-1.327475574781013
6.1745824631217685,0.5769414151902589,4.254681615841911,-1.2300043280277402
6.180351877273671,0.5972116604470665,4.242381572561634,-1.1320302699260931
6.186323993878142,0.6189735004516889,4.231061269862373,-1.0335159714996318
6.192513728882659,0.6420816224573126,4.2207261101473765,-0.9344319997993322
6.198934545107232,0.6663889759337595,4.2113817901493835,-0.8347566208681299
6.20559843486657,0.6917466269718618,4.203034223940702,-0.7344755579024704
6.212515901136288,0.7180036426766804,4.195689468361677,-0.6335817953983405
6.2196959375630545,0.7450070032081315,4.189353650407694,-0.5320754206157939
6.2271460075951355,0.7726015398039345,4.184032896201535,-0.4299634941663398
6.234872022993175,0.8006298977075844,4.179733261259872,-0.32725994193872654
