th1 (rad),w1 (rad/s),th2 (rad),w2 (rad/s)
5.786727349897043,0.6210093977317762,0.12323647771842365,-3.017704366959064
5.792937443874361,0.7390648505084103,0.093059434048833,-3.128094558862609
5.800328092379445,0.8589787688798725,0.061778488460206914,-3.2402953438730147
5.808917880068243,0.9802688473747342,0.029375535021476766,-3.3539099620152735
5.81872056854199,1.1022407967072532,-0.0041635645986759715,-3.4682526885555913
5.8297429765090625,1.223928882998558,-0.03884609148423188,-3.582264257117421
5.841982265339048,1.3440325330722573,-0.0746687340554061,-3.694420908283678
5.855422590669771,1.4608584934234499,-0.11161294313824288,-3.8026498635724963
5.870031175604005,1.5722852111652008,-0.14963944177396785,-3.90427399087722
5.885754027715657,1.6757741848018937,-0.18868218168274004,-3.996019739127083
5.9025117695636755,1.768458570549477,-0.22864237907401086,-4.074130347711228
5.92019635526917,1.8473360225356714,-0.26938368255112316,-4.1346221515584425
5.938669715494527,1.9095730813032972,-0.3107299040667076,-4.173695043268294
5.95776544630756,1.9528893911515641,-0.3524668544993905,-4.188254524262293
5.977294340219076,1.975941556442928,-0.39434939974201344,-4.1764358943816235
5.997053755783505,1.9785946457025136,-0.4361137586858297,-4.137977044966062
6.016839702240531,1.9619837674980467,-0.4774935291354903,-4.0743058975586095
6.036459539915511,1.9283352699143512,-0.5182365881110764,-3.9883007330575104
6.055742892614655,1.8806050098783065,-0.5581195954416516,-3.8838022985558713
6.074548942713438,1.8220491752468562,-0.5969576184272103,-3.76503583367268
6.0927694344659065,1.7558427859582058,-0.6346079767639371,-3.636099974673499
6.110327862325488,1.6848151457989884,-0.6709689765106721,-3.5006160654659553
6.127176013783478,1.6113156955687804,-0.7059751371653317,-3.3615548548755454
6.143289170739165,1.5371855588099888,-0.7395906857140871,-3.2212057322195844
6.158661026327265,1.4637964446802043,-0.771802743036283,-3.08123563805659
6.173298990774067,1.392122136885075,-0.8026150994168489,-2.942790210930068
6.187220212142918,1.3228183017265245,-0.8320430015261496,-2.8066044168973803
6.200448395160183,1.256296874117666,-0.8601090456951235,-2.673104402404522
6.21301136390136,1.1927890074114829,-0.8868400897191687,-2.5424928350049587
6.224939253975475,1.132395241293311,-0.9122650180692183,-2.4148162756031875
6.236263206388409,1.0751238983074456,-0.9364131808252503,-2.290016234287678
6.247014445371483,1.0209196342547266,-0.959313343168127,-2.1679667154195688
6.25722364171403,0.9696842080105201,-0.9809930103223227,-2.0485011766290584
6.266920483794135,0.9212913245655919,-1.0014780220886133,-1.9314314867613487
6.276133397039791,0.8755970753924108,-1.0207923369562268,-1.8165609849839597
6.284889367793715,0.8324471670163097,-1.0389579468060663,-1.7036932685980937
6.293213839463879,0.7916818388995307,-1.0559948794920473,-1.5926379305593041
6.301130657852874,0.753139138107054,-1.0719212587976403,-1.4832141434753292
6.308662049233945,0.7166570379470625,-1.0867534002323935,-1.3752527389290263
6.3158286196134155,0.682074752451803,-1.1005059276216838,-1.2685972464206527
6.322649367137934,0.649233498779174,-1.1131919000858903,-1.1631042212589249
6.3291417021257255,0.6179768869035575,-1.1248229422984795,-1.0586430932194542
6.335321470994761,0.5881510633980818,-1.135409373230674,-0.95509569793512
6.341202981628742,0.5596046983084916,-1.1449603302100253,-0.8523556032497973
6.3467990286118265,0.5321888770299709,-1.1534838862425232,-0.750327307526533
6.352120917382126,0.5057569397321584,-1.1609871593177885,-0.6489253620289115
6.357178486779447,0.48016429705445013,-1.1674764129380777,-0.5480734520038409
6.361980129749992,0.4552682409374931,-1.1729571474581162,-0.44770345884099927
6.366532812159367,0.43092776243381004,-1.1774341820465262,-0.3477545171370558
6.370842089783705,0.407003383337648,-1.1809117272178968,-0.24817207456128304
6.374912123617081,0.38335700490923774,-1.1833934479635098,-0.14890695832896478
6.378745693666174,0.3598517744252836,-1.1848825175467994,-0.04991444929097909
6.382344211410427,0.33635196846809523,-1.1853816620397093,0.048846637246868635
6.385707731095108,0.3127228905580827,-1.1848931956672406,0.14741486612789578
6.388834960000689,0.28883077978760674,-1.1834190470059616,0.24582709535788047
6.3917232677985645,0.26454272642233306,-1.1809607760523828,0.3441193910487671
6.394368695062788,0.23972658992614043,-1.1775195821418951,0.44232794814609866
6.396765960962049,0.21425091448900493,-1.1730963026604342,0.5404900209870426
6.398908470106939,0.1879848368654204,-1.1676914024505638,0.6386448678314748
6.400788318475593,0.16079798115146646,-1.161304953772249,0.736834713528207
6.402396298287107,0.1325603350441984,-1.153936606636967,0.8351057344270126
6.4037219016375495,0.1031421021552773,-1.1455855492926967,0.9335090695122223
6.4047533226591025,0.0724135251262602,-1.1362504585975746,1.0321018614829518
6.405477457910365,0.0402446746708713,-1.125929439982745,1.1309483310809385
6.405879904657073,0.006505200331655615,-1.1146199566719357,1.2301208872781573
6.40594495666039,-0.028935960197705488,-1.102318747799154,1.3297012748448689
6.405655597058413,-0.06621091470045029,-1.0890217350507054,1.4297817591209474
6.404993487911408,-0.10545319209367018,-1.074723917459496,1.5304663452127658
6.403938955990472,-0.14679815561702048,-1.0594192540073684,1.6318720249061454
6.402470974434301,-0.19038344387164757,-1.0431005337583068,1.7341300387065168
6.400567139995585,-0.2363494225687204,-1.0257592333712415,1.8373871317064778
6.398203645769898,-0.2848396191710976,-1.0073853620541768,1.9418067691733791
6.395355249578187,-0.33600109738524103,-0.987967294362443,2.0475702590389413
6.391995238604334,-0.3899847067969787,-0.9674915917720536,2.1548777012854723
6.388095391536364,-0.44694511218155425,-0.9459428147591988,2.263948644903797
6.383625940414548,-0.5070404634131446,-0.9233033283101608,2.375022276479577
6.378555535780417,-0.5704315052275294,-0.899553105545365,2.4883568832948777
6.372851220728141,-0.637279839140705,-0.8746695367124163,2.6042282180403293
6.366478422336734,-0.7077449278061196,-0.848627254532013,2.722926228067266
6.359400973058674,-0.781979262073946,-0.8213979922513404,2.8447493812699784
6.351581180437934,-0.8601208766708281,-0.7929504984386406,2.9699954998418767
6.342979971671226,-0.942282082726842,-0.7632505434402218,3.0989475746924904
6.333557150843958,-1.0285328656626433,-0.7322610676932969,3.2318524492729654
6.323271822187332,-1.1188768649942937,-0.6999425432005673,3.36888951439254
6.312083053537389,-1.2132172249056123,-0.6662536480566419,3.510125662923095
6.299950881288333,-1.3113089612668507,-0.631152391427411,3.6554518186062053
6.286837791675665,-1.4126940452793437,-0.5945978732413489,3.804495661193574
6.272710851222872,-1.5166156182412336,-0.5565529166294132,3.956505348110543
6.257544695040459,-1.6219095046795622,-0.5169878631483078,4.1102012850539165
6.241325599993663,-1.726875949977305,-0.47588585029776864,4.2635993514604476
6.2240568404938905,-1.829144322285793,-0.4332498567831642,4.41382229271256
6.2057653972710325,-1.925560359532414,-0.3891116338560386,4.556939032936122
6.186509793675708,-2.0121491790562196,-0.3435422435266774,4.687904226436168
6.166388301885146,-2.084230963921195,-0.2966632012623157,4.800703284289179
6.145545992245934,-2.136771630071627,-0.24865616841942392,4.888816123548519
6.1241782759452175,-2.165008722127726,-0.19976800718393872,4.946055745763246
6.10252818872394,-2.165282454688456,-0.15030744972630627,4.967686607785356
6.080875364177055,-2.1358504540513006,-0.10063058364845272,4.951520179049829
6.059516859636543,-2.077371553513547,-0.05111538185795443,4.8985579985263445
6.0387431441014074,-1.9928224550860898,-0.0021298018726909826,4.812862029954626
6.018814919550547,-1.8868594643748793,0.045998818426855284,4.700674234692976
5.999946324906798,-1.7648916712447973,0.09300556077378505,4.569154328499237
5.98229740819435,-1.6322105959276714,0.13869710405877742,4.425207867767455
5.965975302235074,-1.4934046076378307,0.18294918273645197,4.274712116771293
5.951041256158695,-1.3521033820154365,0.2256963039041649,4.1221947000621855
5.937520222338541,-1.2109732768323653,0.26691825090478677,3.970851354852541
5.925410489570217,-1.071850457674273,0.30662676445331216,3.8227455200661233
5.914691984993474,-0.9359210015869235,0.3448542196539734,3.679065662967565
5.905332774977604,-0.8038946906848319,0.38164487628364907,3.5403688291619133
5.897293828070756,-0.6761495414538503,0.4170485645752682,3.406780692607643
5.890532332656218,-0.5528421951023783,0.4511163715013446,3.2781468760136057
5.885003910705194,-0.43398771024842037,0.48389784026148064,3.154141423191822
5.88066403360271,-0.3195150080696793,0.5154392544933989,3.034341636582308
5.877468883522013,-0.2093041940833788,0.5457826708592219,2.9182781747668955
5.87537584158118,-0.10321093848159259,0.5749654526068909,2.8054676883533274
5.874343732196364,-0.0010818691341273473,0.6030201294904242,2.695433474292275
5.874332913505023,0.09723615134406748,0.6299744642333469,2.587718078477428
5.875305275018463,0.1918908415653053,0.6558516450181212,2.481890578389177
5.877224183434116,0.28302201252668324,0.680670550802013,2.3775504043921467
5.880054403559383,0.37076082018900164,0.7044460548459345,2.274328943895615
5.883762011761273,0.4552301143165609,0.7271893442848907,2.171889749832885
5.888314312904439,0.5365454499125759,0.7489082417832196,2.0699278884308563
5.893679767403564,0.6148164712889389,0.7696075206675281,1.9681687692941603
5.8998279321164535,0.690148475964518,0.7892892083604698,1.866366673472479
5.906729416876098,0.7626440311194319,0.8079528750951945,1.7643031115272616
5.914355857187293,0.8324045595353907,0.8255959062104672,1.661785089342868
5.922679902782647,0.8995318418346465,0.8422137571038959,1.5586433248171485
5.931675221200994,0.9641294021283412,0.8578001903520673,1.4547304370593763
5.941316515222277,1.0263037580781458,0.8723474947226612,1.3499191169081617
5.951579552803058,1.086165525983923,0.8858466858917428,1.2441002804959458
5.962441208062898,1.1438303782388335,0.8982876886967022,1.1371812042427427
5.973879511845286,1.199419855260634,0.9096595007391296,1.0290836387306073
5.985873710397892,1.253062037403085,0.9199503371264357,0.9197418995092732
5.9984043307719235,1.3048920847378829,0.9291477561215284,0.8091009344377289
6.011453251619303,1.355052654181487,0.9372387654659058,0.6971143693193046
6.025003778161118,1.4036942043150449,0.9442099091590989,0.5837425361439078
6.039040720204268,1.4509751984140802,0.9500473345205379,0.46895049114442916
6.053550472188409,1.4970622155973734,0.9547368394319822,0.3527060331537815
6.068521094344383,1.5421299784780187,0.95826389976352,0.2349777365777433
6.083942394129163,1.58636130302878,0.9606136771292975,0.11573301796761366
6.09980600715945,1.6299469722330269,0.9617710073089736,-0.005063738868898604
6.11610547688178,1.6730855290247568,0.9617203699202846,-0.12745296639704892
6.132836332172028,1.7159829753925147,0.9604458402563142,-0.25148156198782
6.149996161925953,1.7588523524569353,0.957931024636436,-0.3772043433171103
6.167584685450523,1.8019131596250342,0.9541589812032649,-0.504685231587646
6.185603817046773,1.8453905479240755,0.9491121288873885,-0.6339980548639989
6.204057722526014,1.8895141910729452,0.9427721483387486,-0.7652268236940725
6.222952864436743,1.9345166947225676,0.9351198801018078,-0.8984652754320577
6.242298031383968,1.9806313455523388,0.9261352273474872,-1.0338154065920115
6.262104344839492,2.028088922301932,0.9157970732815671,-1.1713846067730078
6.282385234062511,2.0771131837726546,0.904083227213837,-1.311280863965889
6.303156365900238,2.1279145065895446,0.8909704185741781,-1.4536053184574216
6.324435510966133,2.1806809599002936,0.876434365389604,-1.598441189537756
6.3462423205651355,2.2355658687049633,0.8604499534942264,-1.74583777648201
6.368597979252185,2.2926706320223467,0.8429915757294063,-1.8957878422040784
6.391524685572409,2.352021242238214,0.8240336973073655,-2.048196245694782
6.415044897994791,2.413536646708678,0.8035517348504178,-2.202837265087078
6.4391802644618785,2.47698691464423,0.781523362199547,-2.3592978024839066
6.4639501336083205,2.5419393455292756,0.7579303841747079,-2.516903894923681
6.489369527063613,2.6076915800143023,0.7327613452254711,-2.6746292285923157
6.515446442863756,2.673193089705091,0.7060150529395479,-2.830987554596859
6.542178373760807,2.7369610043426724,0.6777051773935793,-2.9839172534600555
6.569547983804234,2.797003975719815,0.6478660048589787,-3.1306770350571713
6.597518023561432,2.8507788842955435,0.616559234508407,-3.2677871790634114
6.626025812404388,2.895217731472087,0.5838813627177729,-3.3910681166050254
6.654977989719108,2.926869916150897,0.5499706815517227,-3.4958389958754
6.684246688880617,2.9421969656916054,0.5150122915929687,-3.577327393028898
6.713668658537533,2.9380199133024836,0.47923901766267973,-3.6312897470891947
6.743048857670558,2.9120517211401022,0.4429261201917878,-3.654747513765279
6.772169374881958,2.8633728491818786,0.406378645054135,-3.6466407258680382
6.800803103373777,2.792678755499116,0.3699122377954546,-3.608160630776596
6.828729890928768,2.70218764973753,0.33383063148768866,-3.5426073486702796
6.855751767426144,2.595230189260443,0.29840455800098586,-3.454805402740351
6.881704069318748,2.475669884927705,0.26385650397358235,-3.3502870074226907
6.906460768168025,2.347344046885303,0.23035363389935543,-3.234508942193069
6.929934208636879,2.2136606009162376,0.19800854447742472,-3.1122911926049723
6.952070814646041,2.0773919738159314,0.166885632551375,-2.9875332326950796
6.972844734384201,1.9406340567968456,0.1370103002244242,-2.8631616302651257
6.992251074952169,1.8048689868824657,0.10837868392177294,-2.7412223118015304
7.010299764820994,1.6710748483999438,0.08096646080375763,-2.6230375164519577
7.027010513304993,1.539843610837612,0.054736085639238055,-2.50937333370955
7.042408949413369,1.411486828243948,0.029642352302142558,-2.4005893673537546
7.056523817695809,1.2861214266407854,0.005636458628605012,-2.296760013828408
7.069385031962217,1.1637350928657548,-0.017331141509679068,-2.1977668695054615
7.0810223828908745,1.04423398550514,-0.03930881020473369,-2.1033662208468598
7.0914647227459255,0.9274764093856135,-0.060342472413202286,-2.0132368149531574
7.100739486839782,0.813295919362312,-0.08047484056273387,-1.9270128272131055
7.108872446033405,0.7015167343819968,-0.09974496883486492,-1.8443060999011176
7.115887613377224,0.5919636903804886,-0.1181880298338761,-1.7647207961408218
7.121807250281029,0.4844683826069215,-0.1358352377952843,-1.6878627941198125
7.126651934107098,0.3788726859109141,-0.15271386573648243,-1.6133454928510265
7.130440660966207,0.2750304924406673,-0.1688473206649927,-1.5407932076076665
7.133190965890614,0.17280825138857864,-0.18425525274106935,-1.4698429733216425
7.134919048404499,0.0720847135191689,-0.19895368247428577,-1.400145317240305
7.135639895539691,-0.027249844700533807,-0.21295513564668883,-1.3313643811459663
7.135367397092685,-0.12529473154221887,-0.2262687794581485,-1.263177647166361
7.134114449777263,-0.22214016061666397,-0.2389005559298121,-1.195275433661316
7.131893048171096,-0.3178686993096178,-0.25085331026642527,-1.1273602672555594
7.128714361178,-0.41255679138189494,-0.2621269129389809,-1.0591461955449684
7.124588793264181,-0.506276319421957,-0.27271837489443057,-0.9903580765436545
7.119526030069961,-0.59909618579592,-0.28262195565986714,-0.9207308615423412
7.113535068212002,-0.6910838992947429,-0.29182926427529055,-0.8500088749488218
7.1066242292190545,-0.7823071602062506,-0.30032935302477876,-0.7779450859963539
7.098801157616992,-0.8728354399734373,-0.3081088038847423,-0.7043003616762107
7.090072803217258,-0.9627415535567077,-0.31515180750150446,-0.628842687061782
7.080445387681691,-1.0521032234793546,-0.32144023437212227,-0.5513463378562182
7.069924355446898,-1.1410046345027642,-0.32695369775068445,-0.4715909902804487
7.05851430910187,-1.229537976993237,-0.3316696076534889,-0.3893607553068242
7.046218929331937,-1.3178049751948155,-0.33556321520655713,-0.3044431279279863
7.033040879579989,-1.4059183935302402,-0.33860764648583697,-0.2166278480538681
7.018981695644687,-1.4940035092224129,-0.34077392496637565,-0.1257056784594233
7.0040416605524625,-1.582199532189958,-0.3420309817509699,-0.0314671180468855
6.988219665230563,-1.6706609421672567,-0.34234565293143876,0.0662989128530812
6.971513055808891,-1.7595586966374512,-0.34168266380290796,0.1678063519910385
6.9539174688425165,-1.8490812389893843,-0.34000460028299756,0.2732731385814133
6.935426656452623,-1.939435200778666,-0.3372718688971834,0.38292206558165603
6.916032304444836,-2.030845640028633,-0.3334426482413669,0.49698110860228767
6.8957238480445495,-2.123555581966443,-0.328472837155344,0.6156828886994267
6.874488292224885,-2.2178245193717787,-0.3223160082683497,0.739262768660183
6.852310047031167,-2.3139253729089595,-0.3149233805817479,0.8679548583182966
6.829170793302077,-2.412139188728737,-0.3062438319985649,1.0019848880569866
6.80504940141479,-2.512746537248518,-0.296223983117995,1.1415584677782007
6.779921936042305,-2.616014144859324,-0.284808398440213,1.286842642027143
6.753761794593712,-2.7221747108475185,-0.2719399720199416,1.4379378418099562
6.726540047485236,-2.8313971190323644,-0.257560593601842,1.5948362992490765
6.698226076294913,-2.943743373040722,-0.24161223060935125,1.7573617712204792
6.668788642564506,-3.059107693217768,-0.22403861289714647,1.9250841956703775
6.638197565632328,-3.1771326550751127,-0.2047877709404427,2.097202167469856
6.606426239081578,-3.2970977741609406,-0.18381574926574415,2.272386931622915
6.573455261339968,-3.41777897533768,-0.16109187994951502,2.448585962536161
6.539277471586591,-3.537285262036365,-0.1366060203241534,2.622795420999087
6.503904618966228,-3.652894686919645,-0.11037806611416252,2.790833161900552
6.467375672097032,-3.760937690768297,-0.082469734495157,2.9471806732483197
6.429766295189349,-3.8568092415398754,-0.0529979277626738,3.0850093744016647
6.391198202773951,-3.935216690303382,-0.02214783401865715,3.1965424408170424
6.351846035870917,-3.9907542828969604,0.009817590389513277,3.2738802869859285
6.311938493041947,-4.018796936716162,0.04255639325937256,3.3102783188419105
6.271750523674786,-4.016521812500525,0.07565917644779166,3.3016048957396307
6.231585305549781,-3.9836884113935045,0.10867522540518797,3.247455783876498
6.191748421435846,-3.9228046922207507,0.14114978324395294,3.1513966089342795
6.152520374513638,-3.8385624506211076,0.17266374933329573,3.0201663962897958
6.114134750007427,-3.736788661454727,0.20286541329619368,2.8621898132254193
6.076766863392879,-3.62335295609172,0.23148731142844786,2.686020828535523
6.040533333831962,-3.5033802907947913,0.2583475197138031,2.4992135126028834
6.0054995309240145,-3.3808793976136955,0.2833396548398319,2.3077795065965323
5.9716907369478776,-3.258707315277367,0.3064174499057972,2.1161222514481324
5.939103663795104,-3.138724365402722,0.32757867242027855,1.9272436252645753
5.907716420141076,-3.0220162957012104,0.3468511086729243,1.7430490093384634
5.877496257184064,-2.909110264335635,0.36428159876630894,1.5646466437533328
5.848405154540708,-2.80015334497281,0.37992806520384226,1.3925962235174136
5.82040362109098,-2.695047230286473,0.3938540274390164,1.2270970449943972
5.793453148788116,-2.593544169094313,0.40612499788896034,1.0681222226508025
5.767517707097173,-2.4953125900944104,0.41680622011546836,0.9155105065066633
5.742564581196229,-2.3999806052362653,0.425961325180535,0.7690270163467541
5.718564775143866,-2.3071640499492183,0.4336515953440025,0.6284021518426409
5.695493134644374,-2.2164840203273273,0.4399356168624289,0.49335561698690555
5.6733282944411005,-2.127577423014902,0.44486917303229795,0.3636105061106556
5.652052520210952,-2.0401029528021373,0.4485052780934045,0.2389008737217
5.6316514906829305,-1.9537441219633853,0.4508942868306215,0.11897510996625345
5.612114049463297,-1.8682104164100337,0.452084037930284,0.0035966764681383823
5.593431945299196,-1.7832372810222759,0.4521200046949654,-0.10745676625948003
