th1 (rad),w1 (rad/s),th2 (rad),w2 (rad/s)
5.017261710704348,2.809528534394166,5.389114892662045,2.9185800916005875
5.04535699604829,2.9627503434189872,5.41830069357805,2.823553339649322
5.07498449948248,3.1169002791616185,5.446536226974544,2.722596879017028
5.106153502274096,3.2717331520152495,5.4737621957647145,2.6158127507823914
5.138870833794249,3.4269718303018704,5.499920323272538,2.503417393745713
5.1731405520972675,3.582293629814991,5.524954497209995,2.3857713093976343
5.208963488395417,3.7373128354725744,5.548812210303971,2.2634136025337552
5.246336616750143,3.891558757040257,5.571446346329309,2.1371018002793223
5.285252204320545,4.044449001845239,5.592817364332102,2.0078568550403513
5.325696694338998,4.195258226081233,5.612895932882506,1.877012297563839
5.36764927659981,4.343083637475939,5.631666055858145,1.746264932976833
5.411080112974569,4.486810098145603,5.6491287051879135,1.6177220836532606
5.455948213956026,4.625079878445889,5.6653059260244465,1.4939371105397965
5.502199012740484,4.7562748012625935,5.6802452971298445,1.3779210270502793
5.5497617607531105,4.878521163411569,5.694024507400347,1.273114275432806
5.5985469723872265,4.989729322130229,5.706755650154675,1.1833008328565027
5.6484442656085285,5.087678491773504,5.71858865848324,1.1124492837192146
5.6993210505262635,5.170151251068749,5.729713151320432,1.0644750737507773
5.751022563036951,5.235110618217432,5.74035790205794,1.0429361348551127
5.803373669219125,5.280896975064963,5.750787263406491,1.050697908469766
5.856182638969774,5.306407859613293,5.761294242491188,1.0896256523067163
5.909246717565908,5.311218317986934,5.772190499014256,1.1603703922737378
5.962358900745777,5.295608965365438,5.783794202936993,1.2623011154010593
6.015314990399431,5.260492280057843,5.7964172140910035,1.3936008152699404
6.06791991320001,5.207255959687626,5.810353222243703,1.5515009169243268
6.119992472796886,5.137562986038013,5.8258682314129455,1.7325959137042661
6.171368102657266,5.053153259512167,5.843194190549988,1.9331702327210123
6.221899635252388,4.955681906200746,5.862525892877198,2.149482111550782
6.271456454314396,4.846611988590402,5.884020713992705,2.377974171272913
6.3199225742003,4.727162755594507,5.907800455705434,2.6154050350284064
6.367194201756245,4.5983037624291185,5.933954506055718,2.858913050576681
6.413177239380536,4.460780972274679,5.962543636561485,3.10603034578347
6.457785049103283,4.31516152535387,5.9936039400193195,3.3546654212919194
6.500936664356821,4.16188682973394,6.027150594232238,3.6030686714768296
6.542555532654161,4.001327158438015,6.063181280947006,3.8497903369762776
6.582568804238541,3.833834043091257,6.101679184316769,4.0936359627721375
6.620907144669453,3.659789105625304,6.1426155439444905,4.333621039921907
6.657505035725706,3.479649594499241,6.1859517543437095,4.5689241714709645
6.692301531670699,3.2939919414605634,6.231640996058419,4.7988366332262125
6.725241451085305,3.103555263296486,6.279629362390682,5.0227053984830174
6.756277003718269,2.9092869451905976,6.329856416375512,5.239866466008613
6.7853698731701755,2.712392173453905,6.3822550810355985,5.449565744312257
6.812493794904714,2.5143882926414403,6.436750738478721,5.650866090982951
6.837637677831129,2.31716273084578,6.49325939938855,5.842541919098993
6.860809305139587,2.123029421212147,6.55168481857954,6.022967807231939
6.8820395993517085,1.9347726533264729,6.61191449665186,6.1900155090215385
6.901387325884973,1.7556591426625834,6.673814651742075,6.340984739763055
6.918943917311599,1.5893902423763688,6.737224499139705,6.472605382267126
6.934837819735362,1.4399606434621928,6.801950552962376,6.581157130293386
6.949237426169984,1.3113947874400227,6.86776212426531,6.662747574086395
6.962351374044384,1.2073559891461176,6.934389600006174,6.713759914838955
6.974424933935845,1.1306691990628286,7.001527199154563,6.731422096621594
6.985731625926474,1.082854887074189,7.068841420120779,6.714374967954641
6.9965601747972155,1.0638084318750576,7.135985169800326,6.663067941633143
7.007198259115966,1.0717418672388446,7.202615849216657,6.579832461038488
7.017915677788355,1.1034243297501043,7.268414173827042,6.468587516893118
7.0289499210858555,1.154650979420014,7.333100048995973,6.33426850528269
7.040496430880055,1.2207981767373117,7.396442734048799,6.182161269402807
7.0527044126474285,1.29732125590145,7.458264346742827,6.017321393659194
7.065677625206443,1.3801064752344834,7.518437560679419,5.844184822743515
7.079478689958788,1.465657848735448,7.576879408906854,5.666386599832702
7.094135268446142,1.5511479657783263,7.633543274905181,5.486744407678162
7.109646748103925,1.634380099013506,7.688410718981962,5.307343396730717
7.12599054909406,1.7137053584609288,7.741484152949269,5.129666127027579
7.143127602678669,1.7879259780511372,7.792780814219545,4.954729439687065
7.161006862459181,1.8562027628380229,7.842328108616416,4.783207503350453
7.179568890087562,1.917974973314392,7.89016018364992,4.61553276233518
7.198748639820706,1.9728949291209747,7.936315511273272,4.451973834008994
7.218477589111916,2.0207765130781747,7.980835249613362,4.292692924236824
7.238685354242698,2.061555486415701,8.02376217885573,4.1377865432049585
7.259300909106854,2.095259257523701,8.06514004428778,3.9873133200789264
7.2802535016820915,2.1219839467030925,8.10501317748857,3.8413122189851956
7.301473341149123,2.1418769582670647,8.14342629967842,3.6998138194210117
7.322892110731794,2.155123659086441,8.180424437872631,3.5628467139001407
7.344443347322659,2.161937105242384,8.216052905011633,3.4304405593702674
7.366062718375082,2.162550036253295,8.250357310605336,3.3026269088960083
7.387688218737615,2.157208570408915,8.283383579694297,3.1794386361293787
7.4092603044417045,2.1461671941469174,8.315177966055591,3.0609085299555012
7.4307219763831736,2.129684754147355,8.345787051355146,2.947067463018024
7.452018823924647,2.1080212431717427,8.375257725985326,2.83794241067296
7.4730990363563645,2.081435228251223,8.403637150092056,2.73355450443092
7.493913388638877,2.0501818094523543,8.430972695136365,2.6339172370854964
7.5144152067334,2.0145110243307407,8.45731186750722,2.5390348887557623
7.534560316976707,1.9746666312069674,8.482702216394777,2.448901209033563
7.554306983288777,1.9308852164064922,8.507191228485112,2.363498366679419
7.573615835452842,1.8833955786354473,8.530826212151906,2.2827961621724313
7.592449791239197,1.832418349155779,8.55365417377363,2.206751487901288
7.610773974730755,1.7781658103675848,8.575721688652642,2.135308014398248
7.628555632834431,1.720841878468751,8.597074768796624,2.068396077643994
7.6457640516191185,1.6606422184709815,8.617758729573064,2.0059327412562107
7.662370473803828,1.597754462268313,8.637818056985626,1.9478220076690693
7.678348018426512,1.5323585028241242,8.657296277062317,1.8939551537195887
7.693671603454753,1.4646268399319886,8.676235828599513,1.8442111680055553
7.708317871854073,1.3947249554307277,8.694677940279568,1.7984572696875478
7.7222651214083795,1.3228116982011724,8.712662512976443,1.7565494908675725
7.735493238390391,1.2490396617129207,8.730228007885119,1.7183333071387104
7.74798363500752,1.1735555392906196,8.747411340956505,1.6836443032572974
7.759719190400427,1.0965004446001503,8.764247783989079,1.6523088630669107
7.770684194846428,1.0180101870912928,8.780770872619748,1.624144874750223
7.780864296717341,0.938215494259446,8.79701232136725,1.5989624441649894
7.790246451659935,0.8572421745983505,8.8130019458089,1.5765646104093431
7.798818873405919,0.7752112170101902,8.828767591912992,1.5567480588423692
7.806570985576021,0.6922388242266733,8.844335072501416,1.5393038275484348
7.813493373818288,0.6084363794856567,8.8597281107769,1.5240180036747466
7.819577737613145,0.5239103473135375,8.874968290813646,1.5106724061963026
7.82481684108628,0.43876211079169836,8.89007501487561,1.4990452514865134
7.8292044621941965,0.35308774913740437,8.905065467390475,1.4889117976237058
7.832735339685571,0.2669777607991718,8.919954585366712,1.4800449626862069
7.835405117293562,0.18051673853808958,8.934755034993573,1.4722159114393736
7.837210284678943,0.09378300411536523,8.949477194107967,1.4651946038684818
7.838148114720097,0.006848211200876406,8.964129140146651,1.4587502980449856
7.838216596832106,-0.08022307407792648,8.9787166431271,1.4526519989208797
7.837414366091326,-0.16737380494841642,8.99324316311631,1.4466688439191489
7.835740628041842,-0.25455488784548264,9.0077098515555,1.4405704157154664
7.833195079163387,-0.34172560793829493,9.022115555712654,1.4341269724643697
7.829777823084004,-0.428854036204032,9.036456825437298,1.4271095859721994
7.825489282721963,-0.5159174084342157,9.050727921297021,1.4192901789980135
7.820330108637621,-0.6029024673153328,9.064920823087002,1.410441453987683
7.814301083964468,-0.6898057596744911,9.07902523762688,1.4003367071070283
7.807403026367723,-0.7766338820542537,9.09302860469795,1.3887495234077465
7.7996366875471805,-0.8634036688945068,9.106916099932029,1.3754533512895242
7.7910026508582355,-0.9501423186583365,9.120670633444924,1.360220957058406
7.781501227671652,-1.036887454142757,9.134272843015507,1.342823763269224
7.771132353130224,-1.123687113862826,9.147701080648199,1.3230310776297025
7.759895481991596,-1.2105996716930958,9.160931391424496,1.30060922250148
7.747789485274665,-1.2976936818067237,9.17393748364951,1.2753205784454742
7.734812548456597,-1.3850476452959166,9.186690689433965,1.24692255883789
7.720962072003638,-1.4727496936291609,9.199159915022344,1.2151665363678892
7.706234575067346,-1.560897182259434,9.211311580386022,1.1797967462837555
7.690625603244752,-1.6495961852204293,9.22310954784886,1.1405491956684515
7.674129641392548,-1.73896087843199,9.234515039805546,1.0971506128995248
7.656740032608228,-1.8291127957012212,9.245486545934542,1.0493174768881302
7.638448904651216,-1.9201799370985138,9.255979720703422,0.9967551717928723
7.61924710528023,-2.012295704587284,9.26594727242135,0.9391573197330818
7.599124148234358,-2.1055976346141203,9.27533884561868,0.8762053515984831
7.578068171888217,-2.20022589199863,9.284100899134666,0.8075683843044273
7.55606591296823,-2.296321484146905,9.29217658297771,0.7329034815982299
7.533102698126761,-2.394024149686545,9.299505617793692,0.6518563844565601
7.509162456629896,-2.493469871532876,9.306024181638257,0.5640628057072579
7.484227757914566,-2.594787961724919,9.31166480969533,0.46915039100529454
7.458279878297318,-2.6980976648427193,9.316356313605382,0.36674145365743693
7.431298901648891,-2.803504229315102,9.320023728141956,0.2564565926803562
7.403263859355739,-2.911094402470982,9.32258829406876,0.13791930023228768
7.374152915331029,-3.020931316902815,9.323967487071084,0.010761654231489143
7.3439436021620015,-3.1330487537470124,9.3240751036134,-0.12536882758168896
7.312613114624531,-3.2474447938882482,9.322821415337582,-0.27080112684863
7.280138666685649,-3.3640749016148144,9.320113404069096,-0.42583145609367445
7.246497917669501,-3.4828445270995094,9.315855089508158,-0.59071284056135
7.211669472398506,-3.6036013636178934,9.309947961102544,-0.7656436823399868
7.175633458762327,-3.7261274508346,9.302291524279145,-0.9507555260727802
7.138372184253981,-3.8501313735148193,9.292783969018418,-1.146100342608353
7.099870870518833,-3.9752408607322525,9.281322965592334,-1.351637747200469
7.060118461911511,-4.100996137520381,9.26780658812033,-1.5672226628705404
7.019108500536307,-4.226844411190889,9.252134361491624,-1.7925940151262396
6.976840056424398,-4.352135880028887,9.234208421340362,-2.0273650874166234
6.933318697624109,-4.476121625404916,9.213934770466196,-2.2710161634237953
6.888557481370059,-4.597953684627916,9.191224608831957,-2.5228900208063867
6.8425779445237795,-4.71668750049589,9.165995708623894,-2.782190714880709
6.795411069518821,-4.831286809772396,9.138173801475087,-3.0479859017909186
6.747098201421097,-4.940630878856063,9.107693942457178,-3.3192127114069385
6.697691892632537,-5.043523839491884,9.074501815343108,-3.594686914362479
6.6472566542376175,-5.138705744268464,9.038554946199483,-3.8731148693463266
6.595869596794933,-5.2248648764845695,8.99982379750602,-4.153107526550052
6.543620948030087,-5.300650834946437,8.958292722240518,-4.433195642345957
6.4906144396806225,-5.364687987361779,8.913960765817059,-4.711845363746381
6.436967559807004,-5.415589050611813,8.866842312179596,-4.987473490375553
6.382811669300886,-5.45196880188268,8.816967577275841,-5.258462018511994
6.328291981282059,-5.472458224717958,8.76438295709072,-5.5231719950683615
6.27356739903488,-5.475719706009564,8.709151237140038,-5.779957214010386
6.218810201974784,-5.460464167853891,8.651351664999934,-6.027178806430642
6.164205560296245,-5.425471176988626,8.591079876935629,-6.2632222234456965
6.109950848526359,-5.369613056359161,8.528447654701171,-6.486518392960862
6.0562547179627675,-5.291883766796997,8.463582470771563,-6.695570851638956
6.003335880294798,-5.191432789370111,8.396626762255174,-6.888990330801389
5.951421552401096,-5.067603413263224,8.32773685894716,-7.065537561407086
5.900745518268464,-4.91997376535206,8.25708148333309,-7.2241739665041385
5.851545780614944,-4.748397718647359,8.184839743668048,-7.364118515371949
5.80406180342847,-4.5530416718146665,8.111198558514328,-7.48490749915641
5.758531386710324,-4.334412341911202,8.036349483522764,-7.586452616206353
5.715187263291212,-4.093370414315221,7.960484957360701,-7.669091841436163
5.67425355914806,-3.831125356360038,7.8837940389463395,-7.7336273998145355
5.635942305584459,-3.5492080103435586,7.806457764948194,-7.7813459734754336
5.600450225481024,-3.2494196400826127,7.7286443052134395,-7.814018070247745
5.5679560290801975,-2.933758615167735,7.650504124510962,-7.8338760714086035
5.53861844292852,-2.6043284247985823,7.572165363796876,-7.8435734584337515
5.5125751586805345,-2.2632327123426856,7.493729629212539,-7.846130579531728
5.489942831557108,-1.9124640864811453,7.415268323417222,-7.844874566236403
5.470818190692296,-1.553793364577047,7.336819577754858,-7.84338231564576
5.4552802570465255,-1.188664660547556,7.258385754598401,-7.845435726445126
5.44339361044105,-0.8180995974968117,7.17993139733395,-7.8549977777145505
5.435212614466082,-0.4426113129300189,7.101381419556804,-7.876216902938563
5.430786501336782,-0.062126300625070574,7.022619250527419,-7.91346580699871
5.430165238330532,0.32409001882457356,6.943484592457432,-7.971419624098984
5.4334061385187775,0.7175092213314977,6.8637703962164425,-8.05517694859136
5.440581230732093,1.1204216606618131,6.7832186267305286,-8.170424795116453
5.451785447338711,1.5360236233277937,6.701514378779364,-8.323642224471335
5.467145683571989,1.9684958099246663,6.618277956534651,-8.522320596967877
5.486830641671236,2.4230257249324176,6.533054750564972,-8.775135718729457
5.51106089892056,2.905647790685101,6.445303393377677,-9.091902907500474
5.540117376827411,3.4225939751223846,6.354384364302672,-9.482900738276953
5.574343316578634,3.978448841177194,6.259555356919902,-9.95659999337753
5.614127804990406,4.571606599993896,6.159989356986127,-10.513723378444602
5.659843870990345,5.184337202822344,6.054852123201681,-11.133870659264405
5.711687243018568,5.764812485929803,5.943513416609037,-11.75089108753341
5.769335367877867,6.207259846299103,5.826004505733703,-12.225205572907248
5.831407966340858,6.366338235084279,5.703752450004631,-12.36259239582284
5.8950713486917,6.156335413533101,5.580126526046402,-12.049039793517913
5.9566347028270314,5.656851144096408,5.459636128111223,-11.393359111959265
6.013203214267995,5.043040566606812,5.34570253699163,-10.629347266705105
6.0636336199340635,4.44095482166121,5.239409064324579,-9.920059434194455
6.108043168150676,3.898006350991825,5.1402084699826345,-9.321862183766283
6.147023231660595,3.4195071807845565,5.046989848144972,-8.836194693385659
6.18121830346844,2.996775874890525,4.958627901211115,-8.447682018076987
6.211186062217346,2.618723960637026,4.8741510810303454,-8.139225217380718
6.237373301823716,2.2754086582890554,4.792758828856538,-7.896267676865683
6.260127388406606,1.9587337713507362,4.713796152087881,-7.70736812382261
6.279714726120114,1.662308020682888,4.636722470849655,-7.563761962938285
6.296337806326942,1.3811277435237068,4.561084851220272,-7.458764119064034
6.310149083762179,1.111280665780498,4.486497210029632,-7.387244337515904
6.321261890419985,0.8497154300026604,4.4126247666544725,-7.34521299384974
6.329759044720011,0.5940765159167898,4.339172636715975,-7.329502867846643
6.335699809879179,0.34259352138431404,4.265877608037508,-7.337523018236193
6.339125745093022,0.09401332532568174,4.1925023778551465,-7.367063594814714
6.340065878346279,-0.1524344284367074,4.118831741906999,-7.416135524466701
6.338541534061912,-0.39704625387832415,4.044670386662332,-7.482833879496051
6.334571071523129,-0.6396348103026138,3.9698420478673717,-7.565217932599768
6.328174723420103,-0.8795064282603613,3.894189868541374,-7.661204577252194
6.3193796591375,-1.1154332803444666,3.8175778227688517,-7.768475179952222
6.308225326334055,-1.3456285809136421,3.7398930709693294,-7.884399158161769
6.294769040524919,-1.5677348167056944,3.6610490793877117,-8.005980572707344
6.279091692357862,-1.7788364795530363,3.5809892736606384,-8.129836459702338
6.261303327562332,-1.9755093899821752,3.499690909063615,-8.25221691144835
6.24154823366251,-2.1539175992025683,3.4171687399491315,-8.369076260971461
6.220009057670484,-2.3099651883305334,3.3334779773394168,-8.476201358419726
6.196909405787178,-2.4395035534247045,3.2487159637552194,-8.56939645121627
6.172514370252931,-2.5385852580883204,3.163021999243057,-8.644715001970233
6.147128517672048,-2.6037446488521256,3.0765748492233547,-8.698718419819365
6.1210910711835265,-2.6322756488229833,2.989587665025161,-8.728732686768856
6.094768314695297,-2.62247147572094,2.9023003381574726,-8.733069143105197
6.068543599938088,-2.5737919384006336,2.8149696467264205,-8.711177445298897
6.042805680554081,-2.486932269496894,2.7278578722734315,-8.663707358357327
6.017936357859112,-2.363781744396632,2.6412207986898584,-8.592469883457001
5.994298540415145,-2.2072773253083535,2.5552960998552883,-8.500303948324238
5.972225767162062,-2.0211731981332632,2.470293060372046,-8.3908688053458
5.95201403518073,-1.8097578752295456,2.386384372318588,-8.268391516205199
5.933916456428434,-1.577554632914034,2.303700457156536,-8.137402107907944
5.918140910099293,-1.329038442531104,2.222326436077456,-8.00248641918551
5.904850525673982,-1.0683948143115456,2.142301571885601,-7.868079788192836
5.894166577530867,-0.7993355506563964,2.0636207740036725,-7.738315658602401
5.886173222024303,-0.5249758209531427,1.9862376174176486,-7.616934025189268
5.880923463814772,-0.24776817649157673,1.910068277165756,-7.507247070442697
5.878445782049856,0.030516828578276978,1.834995806461329,-7.412154304720419
5.878750950335639,0.30877670929400547,1.7608742634141248,-7.334197212310472
5.881838717428579,0.5865436046627075,1.68753229129102,-7.275643457396972
5.887704153475206,0.8639439577405505,1.6147758567170503,-7.238592458998374
5.896343593052611,1.1416620400149808,1.5423899321270664,-7.225096908576436
5.907760213452761,1.4209160346931213,1.470138963041302,-7.237298014869922
5.921969373799692,1.7034537546907942,1.3977659828926028,-7.277575539919309
5.9390039113466,1.991573972994362,1.3249902274934098,-7.348716795395215
5.958919651076544,2.2881786525328716,1.2515030595394576,-7.454111425569757
5.981801437601872,2.596860473369331,1.17696194528376,-7.5979803486083
6.007770042335565,2.9220273795455727,1.100982141797677,-7.7856458027484825
6.036990316131021,3.269057499866702,1.0231256837701923,-8.023840085937081
6.069680891129688,3.6444541582577994,0.9428872829108215,-8.321020553203757
6.1061254327122665,4.055908308098318,0.8596770773787838,-8.687575799178509
6.1466845157932495,4.512017715700984,0.7728013193869987,-9.135594223461167
6.191804692950259,5.02102603478486,0.6814453771523871,-9.67733670036275
6.242014953298108,5.587056067464254,0.5846720101487596,-10.32032369583278
6.2978855139727505,6.20055196052228,0.4814687731904318,-11.054484862509746
6.3598910335779735,6.81764951575159,0.37092392456533435,-11.82396359735722
