th1 (rad),w1 (rad/s),th2 (rad),w2 (rad/s),a1 (rad/s^2),a2 (rad/s^2)
2.7064312939475617,-0.3950263107375636,1.4391489481668716,-0.12364562249541086,-2.8356353546102278,-8.718785574721867
2.702481030840186,-0.4233826642836659,1.4379124919419175,-0.21083347824262955,-2.8799987213580343,-8.6744727585689
2.6982472041973495,-0.45218265149724624,1.4358041571594913,-0.29757820582831856,-2.937297550963081,-8.62457766386728
2.693725377682377,-0.48155562700687704,1.432828375101208,-0.38382398246699134,-3.0073887810601803,-8.56888472385484
2.688909821412308,-0.5116295148174789,1.4289901352765382,-0.46951282970553976,-3.0901158724678126,-8.507167688993873
2.6837935262641333,-0.542530673542157,1.4242950069794829,-0.5545845065954785,-3.1853076104408813,-8.439186748463646
2.6783682195287115,-0.5743837496465658,1.4187491619135282,-0.638976374080115,-3.292776734653275,-8.364685172621925
2.6726243820322457,-0.6073115169930986,1.412359398172727,-0.7226232258063342,-3.4123183926830607,-8.283385507914922
2.6665512668623146,-0.6414347009199292,1.4051331659146635,-0.8054570808854834,-3.5437084126196674,-8.194985358897913
2.6601369198531155,-0.6768717850461259,1.3970785951058087,-0.8874069344744625,-3.6867013920345872,-8.099152796165235
2.653368202002654,-0.7137387989664717,1.388204525761064,-0.9683984624361148,-3.841028603039375,-7.9955214342178555
2.6462308140129895,-0.7521490849968655,1.378520541136703,-1.0483536767782935,-4.006395716624362,-7.883685229727838
2.6387093231630208,-0.7922130421631092,1.36803700436892,-1.127190529075572,-4.182480354097324,-7.763193058367988
2.6307871927413897,-0.8340378457040825,1.3567650990781643,-1.2048224596592518,-4.368929479429806,-7.633543137401062
2.622446814284349,-0.8777271404983805,1.3447168744815718,-1.2811578910332624,-4.565356653906491,-7.494177371565231
2.6136695428793653,-0.9233807070374455,1.3319052955712392,-1.3560996647489147,-4.771339183914654,-7.344475711407096
2.6044357358089907,-0.971094098876592,1.31834429892375,-1.4295444218629858,-4.986415204266582,-7.183750626005687
2.5947247948202246,-1.0209582509192578,1.30404885470512,-1.5013819281230427,-5.210080753365245,-7.011241805847473
2.584515212311032,-1.0730590584529103,1.2890350354238898,-1.5714943461815174,-5.441786913019067,-6.826111226226886
2.573784621726503,-1.127476927583101,1.2733200919620746,-1.6397554584437863,-5.680937104948135,-6.62743871664218
2.562509852450672,-1.1842862986325822,1.2569225373776367,-1.706029845610208,-5.926884658088519,-6.41421819679921
2.5506669894643466,-1.2435551452134674,1.2398622389215346,-1.7701720275782002,-6.178930785677463,-6.1853547544486425
2.538231438012212,-1.305344453070242,1.2221605186457525,-1.8320255751226866,-6.436323138645992,-5.939662753607992
2.5251779934815097,-1.369707684456702,1.2038402628945257,-1.8914222026587666,-6.698255131756113,-5.675865172785406
2.5114809166369425,-1.436690235774263,1.184926040867938,-1.9481808543866206,-6.963866270713571,-5.392594380398156
2.4971140142792,-1.5063288984813987,1.165444232324072,-2.002106798190602,-7.232243741471661,-5.088394557144148
2.482050725294386,-1.5786513358961154,1.145423164342166,-2.0529907437620434,-7.502425556195889,-4.76172597079424
2.466264211935425,-1.6536755914580743,1.1248932569045456,-2.100608003469986,-7.77340558271878,-4.41097129553837
2.4497274560208444,-1.731409647285262,1.1038871768698457,-2.1447177164253697,-8.044140814370948,-4.0344441431026095
2.4324133595479918,-1.8118510554289715,1.082439999705592,-2.185062157856396,-8.313561263189802,-3.6303999334935155
2.414294848993702,-1.8949866680608696,1.0605893781270281,-2.221366157191331,-8.580582879851704,-3.1970491762786484
2.3953449823130932,-1.9807924968593866,1.0383757165551148,-2.253336648954117,-8.844123916291514,-2.732573155449657
2.3755370573444994,-2.069233736022302,1.0158423500655738,-2.2806623805086135,-9.103125149891367,-2.2351419087576496
2.3548447199842766,-2.1602649875212157,0.9930357262604876,-2.30301379959619,-9.356574379490496,-1.702934262722541
2.3332420701090646,-2.2538307313161208,0.9700055882645258,-2.3200431422234153,-9.603535581767627,-1.1341595244568143
2.3107037627959035,-2.349866087133797,0.9468051568422916,-2.3313847374679835,-9.843183080827103,-0.5270802388839565
2.2872051019245654,-2.4482979179420683,0.9234913094676118,-2.336655539856823,-10.074841033997702,0.11996480614681058
2.262722122745145,-2.5490463282820452,0.9001247540690436,-2.335455891795355,-10.298028474049833,0.8085384033958599
2.2372316594623243,-2.6520266130225436,0.87677019515109,-2.327370507761396,-10.512510074919392,1.5400849443302178
2.2107113933320988,-2.7571517137717376,0.853496490073476,-2.311969658318094,-10.718352729120815,2.3159143120077865
2.183139876194381,-2.8643352410629457,0.8303767934902951,-2.2888105151980165,-10.915987946930198,3.1371916594371547
2.154496523783752,-2.9734951205322475,0.807488688338315,-2.257438598603645,-11.106280018756278,4.004935417613267
2.1247615725784295,-3.0845579207198104,0.7849143023522785,-2.2173892444275123,-11.290599833134207,4.920026195436876
2.0939159933712315,-3.1974639190511525,0.7627404099080034,-2.1681889824731435,-11.470904224161597,5.883229510520919
2.06194135418072,-3.3121729612927684,0.741058520083272,-2.109356687367934,-11.649820742722069,6.895235489841394
2.028819624567792,-3.428671168719989,0.7199649532095926,-2.04040433246952,-11.830737808020224,7.956718751956509
1.9945329128805922,-3.5469785468001915,0.6995609098848974,-1.9608371449499549,-12.017900288403268,9.068421554433218
1.9590631274125903,-3.6671575496842244,0.6799525384353978,-1.8701529294056227,-12.216510644790041,10.231262848669116
1.922391551915748,-3.789322656132125,0.6612510091413416,-1.7678403009189316,-12.432835758548046,11.446474950073776
1.8844983253544267,-3.9136510137176055,0.6435726061321523,-1.6533755514181938,-12.674319283135262,12.71576780800473
1.8453618152172506,-4.040394206548958,0.6270388506179704,-1.5262178733381466,-12.949698476999844,14.041517843637333
1.804957873151761,-4.169891191318957,0.611776671884589,-1.3858026949017732,-13.26912239936524,15.42697314638886
1.7632589612385714,-4.302582415312609,0.5979186449355712,-1.2315329634378847,-13.644264021664563,16.87645796665542
1.7202331370854453,-4.439025055529255,0.5856033153011924,-1.0627683837713304,-14.08841035617402,18.39554426350615
1.675842886530153,-4.579909159090995,0.5749756314634791,-0.878812941136269,-14.616498843785935,19.991131913260922
1.630043794939243,-4.726074147528855,0.5661875020521164,-0.6789016220036597,-15.245039216657561,21.671333926859692
1.5827830534639544,-4.87852453969543,0.5593984858320799,-0.46218828273506274,-15.991807820702874,23.444984515434655
1.533997808067,-5.038442617902459,0.5547766030047292,-0.22773843758071619,-16.875108639262894,25.32045178123718
1.4836133818879755,-5.207193704295088,0.552499218628922,0.025466080231655613,-17.912232820589082,27.30320243900993
1.4315414448450245,-5.386316032500979,0.5527538794312385,0.29849810462175497,-19.116469348222523,29.391168131647674
1.3776782845200148,-5.577480725983204,0.5557388604774561,0.5924097859382318,-20.49155472959924,31.566307452821807
1.3219034772601828,-5.782396273279196,0.5616629583368384,0.9080728604664499,-22.0217204503085,33.779740721750436
1.2640795145273909,-6.0026134777822815,0.5707436869415029,1.2458702676839541,-23.654488025731716,35.92644980314526
1.204053379749568,-6.239158358039599,0.5832023896183425,1.6051347657154067,-25.27238031771695,37.804249206553486
1.141661796169172,-6.491882161216768,0.5992537372754966,1.9831772577809414,-26.650124723974866,39.05252840922228
1.0767429745570043,-6.758383408456517,0.619085509853306,2.3737025418731643,-27.399743632035793,39.07491844352013
1.0091591404724392,-7.032380844776875,0.6428225352720377,2.7644517263083657,-26.92594269077346,36.97905227496002
0.9388353320246704,-7.30164027168461,0.6704670525351214,3.134242249057966,-24.45908637430269,31.630965907425313
0.8658189293078243,-7.546231135427637,0.701809475025701,3.450551908132219,-19.28871310587003,22.000786311661283
0.790356617953548,-7.739118266486337,0.7363149941070232,3.670559771248832,-11.281444239288417,7.918857300452812
0.7129654352886846,-7.851932708879222,0.7730205918195114,3.74974834425336,-1.4461653191206272,-9.10013357985381
0.6344461081998924,-7.8663943620704275,0.810518075262045,3.6587470084548217,8.1407929748177,-25.955598541737704
0.5557821645791882,-7.784986432322251,0.8471055453465932,3.3991910230374445,15.414140057810037,-39.51572067831377
0.47793230025596567,-7.63084503174415,0.8810974555769676,3.0040338162543065,19.492848979565135,-48.33546984802351
0.4016238499385242,-7.435916541948499,0.9111377937395106,2.5206791177740713,20.794203195827627,-52.86618876625395
0.3272646845190392,-7.227974509990223,0.9363445849172514,1.9920172301115318,20.30995973556955,-54.439859746781764
0.2549849394191369,-7.024874912634528,0.9562647572183667,1.4476186326437142,18.959501587675177,-54.33210336589182
0.18473619029279165,-6.8352798967577755,0.9707409435448038,0.904297598984796,17.362596170842203,-53.41454841985423
0.11638339132521389,-6.661653935049354,0.9797839195346517,0.37015211478625376,15.868716632024148,-52.17960754308427
0.04976685197472035,-6.502966768729112,0.9834854406825142,-0.15164396064458896,14.650465376655104,-50.86580877395936
-0.01526281571257078,-6.356462114962561,0.9819690010760683,-0.6603020483841826,13.780720739903956,-49.56617947025229
-0.07882743686219638,-6.218654907563521,0.9753659805922265,-1.1559638430867054,13.280609457479521,-48.2982695678547
-0.1410139859378316,-6.085848812988726,0.9638063421613594,-1.6389465387652524,13.145653067308974,-47.04442877820408
-0.20187247406771885,-5.954392282315636,0.9474168767737069,-2.109390826547293,13.358845213483328,-45.77385579561583
-0.2614163968908752,-5.820803830180803,0.9263229685082339,-2.5671293845034513,13.89667429093929,-44.45449203023448
-0.31962443519268324,-5.68183708727141,0.9006516746631994,-3.011674304805796,14.731608498660151,-43.05946912808114
-0.3764428060653974,-5.534521002284809,0.8705349316151414,-3.4422689960866073,15.83297282735338,-41.57063163328371
-0.43178801608824546,-5.3761912740112745,0.8361122416542753,-3.8579753124194442,17.167249654704804,-39.98041310250607
-0.48554992882835823,-5.2045187774642265,0.7975324885300809,-4.257779443444505,18.69834526809052,-38.29268530472554
-0.5375951166030005,-5.017535324783322,0.7549546940956358,-4.640706296491761,20.388094566694107,-36.52287233974175
-0.5877704698508337,-4.813654379116381,0.7085476311307182,-5.005935019889178,22.19711845467071,-34.69747496455978
-0.6359070136419975,-4.591683194569674,0.6584882809318264,-5.352909769534776,24.086047704400098,-32.853101173847556
-0.6818238455876943,-4.350822717525673,0.6049591832364787,-5.681440781273252,26.017056902121222,-31.035099419422984
-0.725332072762951,-4.090652148504461,0.5481447754237462,-5.991791775467481,27.955601140683164,-29.295911806998365
-0.7662385942479956,-3.811096137097629,0.48822685766907137,-6.284750893537465,29.87221202331927,-27.693286477159063
-0.8043495556189718,-3.512374016864436,0.4253793487336967,-6.561683758309056,31.744185647491967,-26.28849559339274
-0.8394732957876162,-3.1949321603895164,0.35976251115060615,-6.824568714242983,33.55697850162769,-25.144683120388233
-0.8714226173915114,-2.8593623753732396,0.2915168240081763,-7.076015545446865,35.30510597307388,-24.32539717337723
-0.9000162411452438,-2.5063113156425008,0.22075666855370762,-7.319269517180638,36.99228877801831,-23.89321827498746
-0.9250793543016689,-2.1363884278623178,0.14756397338190125,-7.558201699930513,38.630471153742725,-23.908129313451035
-0.946443238580292,-1.7500837163248906,0.07198195638259612,-7.797282993065023,40.23706290207021,-24.424793901918136
-0.9639440757435409,-1.3477130873041885,-0.00599087354805411,-8.041530932084205,41.829199641909945,-25.487044737282254
-0.9774212066165828,-0.9294210908850891,-0.08640618286889616,-8.296401379457027,43.41274698427727,-27.116326451960116
-0.9867154175254337,-0.49529362104231633,-0.16937019666346642,-8.567564643976628,44.96186735250948,-29.288116673645344
-0.9916683537358568,-0.04567494751722151,-0.2550458431032327,-8.860445810713081,46.38193021288894,-31.885993564784037
-0.9921251032110291,0.4181443546116679,-0.3436503012103635,-9.179305746360921,47.444885745973174,-34.61757837621811
-0.9879436596649124,0.8925932120713996,-0.4354433586739727,-9.525481530123102,47.68603171536102,-36.87543660207159
-0.9790177275441984,1.3694535292250098,-0.5306981739752037,-9.894235896143817,46.26962292566687,-37.549876973188645
-0.9653231922519483,1.8321497584816786,-0.6296405329366419,-10.269734665875703,41.906183791334904,-34.90221299822053
-0.9470016946671315,2.2512115963950277,-0.732337879595399,-10.618756795857909,33.08001097025268,-26.8479535210357
-0.9244895787031812,2.5820117060975543,-0.8385254475539781,-10.887236331068266,18.99322768031646,-12.20764184558949
-0.8986694616422056,2.771943982900719,-0.9473978108646607,-11.009312749524161,1.1095825365323553,7.222610308183701
-0.8709500218131985,2.7830398082660426,-1.0574909383599023,-10.937086646442324,-16.42739692604483,26.115897098260458
-0.8431196237305381,2.618765839005594,-1.1668618048243256,-10.67592767545972,-29.27103245643619,38.94338456647567
-0.8169319653404821,2.326055514441232,-1.2736210815789228,-10.286493829794964,-35.93501731975279,44.008677632707474
-0.7936714101960698,1.966705341243704,-1.3764860198768725,-9.846407053467889,-37.755394194551535,43.267005999145724
-0.7740043567836328,1.5891513992981887,-1.4749500904115513,-9.413736993476432,-36.832549215533575,39.5323897014544
-0.7581128427906509,1.2208259071428529,-1.5690874603463156,-9.018413096461888,-34.72847022549431,34.80117535057435
-0.7459045837192224,0.8735412048879098,-1.6592715913109346,-8.670401342956145,-32.3007705429463,30.104176273057647
-0.7371691716703433,0.5505334994584468,-1.745975604740496,-8.369359580225568,-29.938951698290424,25.86008719028382
-0.7316638366757588,0.25114398247554254,-1.8296692005427517,-8.11075870832273,-27.787304135039815,22.18319359261603
-0.7291523968510034,-0.026729058874855605,-1.9107767876259791,-7.88892677239657,-25.877121857605996,19.058080302789364
-0.7294196874397519,-0.28550027745091555,-1.9896660553499448,-7.698345969368677,-24.193088436981004,16.423374379376114
-0.7322746902142611,-0.5274311618207256,-2.0666495150436317,-7.5341122255749156,-22.70393813722652,14.20799760005154
-0.7375490018324683,-0.7544705431929908,-2.1419906372993807,-7.3920322495744,-21.37575334297882,12.345253632322363
-0.7450937072643982,-0.968228076622779,-2.2159109597951248,-7.268579713251176,-20.177263058738532,10.77723141416473
-0.754775988030626,-1.1700007072101644,-2.2885967569276366,-7.160807399109529,-19.081593608968106,9.455249660469162
-0.7664759951027276,-1.3608166432998454,-2.360204830918732,-7.066254902504837,-18.066517725490023,8.338861316737493
-0.780084161535726,-1.5414818205547456,-2.4308673799437805,-6.982866289337462,-17.114121049558364,7.394482359858516
-0.7954989797412735,-1.7126230310503292,-2.500696042837155,-6.908921465738877,-16.210286695217718,6.594066118508384
-0.8126252100517768,-1.8747258980025063,-2.569785257494544,-6.842980804553793,-15.344163037074503,5.9139666596456735
-0.8313724690318018,-2.028167528373251,-2.638215065540082,-6.783841137957337,-14.507674759072758,5.334019506539291
-0.8516541443155343,-2.1732442759639787,-2.7060534769196556,-6.730500942891944,-13.69509193465379,4.836823686883648
-0.8733865870751741,-2.3101951953105164,-2.773358486348575,-6.682132706023108,-12.902653968675926,4.407195126657114
-0.8964885390282793,-2.439221734997276,-2.840179813408806,-6.638060754756537,-12.128239562381248,4.031759706539806
-0.9208807563782521,-2.560504130621088,-2.9065604209563713,-6.597743157691139,-11.37107347665383,3.6986570767381926
-0.946485797684463,-2.6742148653876265,-2.9725378525332826,-6.560756586923757,-10.631462520600385,3.397330332129371
-0.9732279463383392,-2.78052949059363,-3.0381454184025203,-6.526783283602463,-9.910555383835735,3.118380642423876
-1.0010332412442755,-2.8796350444319874,-3.103413251238545,-6.495599477178224,-9.21012298574657,2.853469529890781
-1.0298295916885953,-2.971736274289453,-3.168369246010327,-6.4670647818793165,-8.532357650290596,2.5952546470342477
-1.05954695443149,-3.057059850792359,-3.2330398938291203,-6.4411122354089745,-7.879690540603669,2.337347693170788
-1.0901175529394136,-3.135856756198396,-3.29745101618321,-6.417738758477267,-7.25462741323436,2.074285597499277
-1.1214761205013974,-3.2084030303307394,-3.3616284037679827,-6.396995902502274,-6.659602940017575,1.8015083381709125
-1.1535601508047049,-3.274999059730915,-3.4255983627930053,-6.3789808191205655,-6.09685368769998,1.5153387830208764
-1.186310141402014,-3.3359675966079148,-3.489388170984211,-6.363827431290357,-5.568309445199553,1.2129617252259595
-1.2196698173680933,-3.3916506910599105,-3.5530264452971148,-6.351697814038097,-5.07550205033036,0.8924008303252615
-1.2535863242786924,-3.442405711563214,-3.616543423437496,-6.342773805734844,-4.619490288225353,0.5524934912605396
-1.2880103813943247,-3.4886006144454678,-3.6799711614948443,-6.337248870822239,-4.200798894239336,0.19286459211810728
-1.3228963875387794,-3.530608603387861,-3.743343650203067,-6.335320224901058,-3.819369258428664,-0.1860990944535856
-1.3582024735726579,-3.5688022959721475,-3.8066968524520775,-6.337181215845594,-3.474519141735843,-0.5832716995878087
-1.3938904965323793,-3.603547487389506,-3.8700686646105336,-6.3430139328414725,-3.1649086040504106,-0.9968058694310402
-1.4299259714062744,-3.6351965734300102,-3.9334988039389485,-6.352981991535783,-2.8885094270534104,-1.4241428678522483
-1.4662779371405745,-3.6640816677005446,-3.9970286238543062,-6.367223420214305,-2.6425755985072175,-1.8620131063708414
-1.5029187538175799,-3.6905074236856166,-4.06070085805645,-6.385843551278014,-2.4236129160541644,-2.3064255089269565
-1.539823828054436,-3.714743552846158,-4.12455929356923,-6.408907806367283,-2.2273464777620706,-2.7526448010578437
-1.5769712635828976,-3.7370170176237787,-4.188648371632903,-6.436434254377862,-2.0486857711848634,-3.195156722524658
-1.6143414337591355,-3.7575038753356274,-4.253012714176681,-6.468385821603109,-1.8816882795566643,-3.6276223350243635
-1.6519164725124917,-3.776320758131194,-4.3176965723927125,-6.504662044953353,-1.7195240282338164,-4.04282408513429
-1.6896796800938036,-3.793515998413532,-4.382743192842246,-6.5450902858046955,-1.5544453351961671,-4.432608152298542
-1.727614840077939,-3.8090604517654936,-4.448194095700293,-6.589416367327681,-1.3777682373266973,-4.787829929565692
-1.765705444595594,-3.8228381341387605,-4.51408825937357,-6.637294666623338,-1.1798746443916348,-5.0983123011524905
-1.8039338259369815,-3.8346368805826767,-4.580461206039804,-6.688277789634863,-0.9502471761539718,-5.352829699187656
-1.8422801947428082,-3.844139352344216,-4.647343983936152,-6.741806086626739,-0.6775517220671697,-5.539134654648058
-1.8807215882662505,-3.850914869564888,-4.71476204480242,-6.79719743317322,-0.34978573928734596,-5.644047465587988
-1.9192307369618993,-3.8544127269577615,-4.7827340191341525,-6.8536379078291,0.04548732034030367,-5.653633223840663
-1.957774864231477,-3.8539578537543586,-4.851270398212444,-6.910174240067507,0.5207960472518173,-5.55349299664393
-1.9963144427690205,-3.8487498932818403,-4.920372140613119,-6.965709170033946,1.0882915654868048,-5.329196306572532
-2.034801941701839,-3.8378669776269723,-4.990029232313458,-7.019001133099672,1.7591356092070418,-4.966878662604253
-2.073180611478109,-3.820275621534902,-5.060219243644455,-7.068669919725714,2.542741666548544,-4.4540189575527975
-2.111383367693458,-3.7948482048694165,-5.130905942841712,-7.113210109301242,3.445881537184183,-3.78039526419823
-2.1493318497421523,-3.7603893894975746,-5.202038043934724,-7.151014061943225,4.471693644358321,-2.9391926950866814
-2.186935743637128,-3.7156724530539913,-5.273548184554157,-7.180405988894091,5.618659774819202,-1.9282036787374437
