th1 (rad),w1 (rad/s),th2 (rad),w2 (rad/s)
2.3993839047722876,-0.7461933543439158,0.7992605946341881,0.4480306162725507
2.3919219712288484,-0.8144141781447259,0.8037409007969136,0.3813454498973171
2.3837778294474012,-0.8824840805603241,0.8075543552958868,0.31623801111135125
2.374952988641798,-0.9505150539974443,0.8107167354070003,0.25284178894252696
2.3654478381018236,-1.0186172677712473,0.8132451532964255,0.19129458027487484
2.355261665424111,-1.0868988420135675,0.8151580990991742,0.13173908140734858
2.344392677003975,-1.1554656691327547,0.8164754899132477,0.07432344872326244
2.3328380203126478,-1.2244212856174255,0.8172187244004803,0.019201831344060984
2.3205938074564734,-1.2938667980756096,0.8174107427139209,-0.03346512137130643
2.307655139475717,-1.363900868581845,0.8170760915002079,-0.08350977456738581
2.294016130789899,-1.4346197656697985,0.8162409937545341,-0.13075704180692335
2.279669933133201,-1.5061174886603368,0.8149334233364648,-0.17502393480226314
2.264608758246598,-1.5784859744591055,0.8131831839884421,-0.21611912513742565
2.248823898502007,-1.6518153974989387,0.8110219927370679,-0.2538425134631835
2.2323057445270176,-1.7261945751468364,0.808483567602436,-0.28798480068662113
2.2150437987755494,-1.8017114926491675,0.8056037195955698,-0.31832705439893166
2.1970266838490575,-1.8784539635583444,0.8024204490515804,-0.3446402621437064
2.178242144213474,-1.956510443574472,0.7989740464301434,-0.3666848610803067
2.1586770397777295,-2.0359710178483708,0.7953071978193403,-0.38421023111071306
2.138317329599246,-2.1169285840236363,0.7914650955082332,-0.3969541355999565
2.1171480437590096,-2.199480255628707,0.7874955541522336,-0.4046420904484233
2.0951532412027225,-2.2837290128271235,0.7834491332477493,-0.4069866385402213
2.0723159510744513,-2.369785629918736,0.7793792668623472,-0.4036865026506737
2.048618094775264,-2.4577709112143826,0.7753424018358405,-0.3944255860354451
2.02404038566312,-2.547818268728958,0.7713981459754861,-0.37887178663821375
1.9985622029758303,-2.6400766761175793,0.7676094281091039,-0.3566755889600068
1.9721614362146545,-2.734714032681858,0.7640426722195038,-0.3274683984508341
1.9448142958878358,-2.8319209678762407,0.7607679882349955,-0.29086058891759475
1.9164950862090735,-2.9319151085384285,0.7578593823458195,-0.24643924722485588
1.8871759351236892,-3.034945814775228,0.7553949898735709,-0.19376562675969367
1.8568264769759368,-3.1412993607419812,0.753457333605974,-0.13237237003690366
1.825413483368517,-3.25130448488613,0.752133609905605,-0.06176064452036675
1.7929004385196556,-3.365338146805694,0.7515160034604013,0.018602525141125897
1.7592470570515988,-3.4838311826508277,0.7517020287118125,0.10928621821759334
1.7244087452250905,-3.6072733128583327,0.7527948908939884,0.21089599603223308
1.6883360120965072,-3.736216569450114,0.7549038508543108,0.32407123585477526
1.650973846402006,-3.871275588415009,0.7581445632128585,0.4494770317779257
1.612261090517856,-4.013122222850918,0.7626393335306377,0.5877868158706041
1.5721298682893468,-4.162470377164407,0.7685172016893438,0.7396495882056129
1.5305051645177026,-4.320044565145082,0.7759136975713999,0.9056321901548764
1.4873047188662518,-4.486522110064735,0.7849700194729488,1.0861219428660918
1.4424394977656045,-4.662433814769799,0.7958312389016097,1.2811677915718218
1.3958151596179065,-4.848001363987697,0.8086429168173279,1.4902289648553133
1.3473351459780294,-5.0428829036344744,0.823545206465881,1.7117909445121695
1.2969063169416846,-5.245795476378945,0.8406631159110027,1.9428055632140768
1.244448362177895,-5.453995128552891,0.8600911715431435,2.177930995189669
1.189908410892366,-5.662644283346757,0.8818704814950402,2.4086194554817384
1.1332819680588986,-5.86421327895899,0.9059566760498576,2.622270935962759
1.0746398352693087,-6.048266415467335,0.9321793854094852,2.801964660604004
1.0141571711146353,-6.2021991168585195,0.9601990320155253,2.9275898287404094
0.9521351799460501,-6.313449745206894,0.9894749303029293,2.979132740380934
0.8890006824939812,-6.373011153954755,1.0192662577067386,2.941870296618655
0.8252705709544337,-6.378781441133665,1.0486849606729252,2.8113645538905585
0.761482756543097,-6.336605519211979,1.0767986062118307,2.5951431660513244
0.6981167013509773,-6.2580987008882385,1.1027500378723438,2.309703454642031
0.6355357143420949,-6.1566728046389345,1.1258470724187641,1.9748270627495041
0.5739689862957056,-6.044114258010248,1.145595343046259,1.6085783930028759
0.5135278437156031,-5.92894838640388,1.161681126976288,1.2248130297510889
0.4542383598515643,-5.816354276576783,1.1739292572737987,0.8329200623520451
0.39607481708579645,-5.708836169931999,1.1822584578973192,0.4386912704689945
0.3389864553864765,-5.607036191149961,1.1866453706020093,0.045436136920136594
0.28291609347497687,-5.5104095291558695,1.1870997319712107,-0.3450706220339867
0.22781199818341819,-5.417702337424673,1.1836490257508707,-0.7319099196102976
0.17363497480917145,-5.327262681063757,1.1763299265547678,-1.11457598891921
0.12036234799853388,-5.237234241686399,1.1651841666655756,-1.4927075396359815
0.06799000558166989,-5.14567549557049,1.1502570912692158,-1.8659358939627158
0.01653325062596498,-5.050634604280746,1.1315977323295887,-2.233809277066038
-0.03397309541684248,-4.950199442457732,1.1092596395589283,-2.595766339259504
-0.0834750898414198,-4.84253441179784,1.0833019761663332,-2.9511418655185224
-0.1319004339593982,-4.72591050810734,1.053790557511148,-3.299193946300911
-0.1791595390404716,-4.598731762880992,1.0207986180481388,-3.639145659874524
-0.22514685666928153,-4.459559051468043,0.9844071614493936,-3.9702364497711273
-0.26974244718396195,-4.30713092929894,0.9447047969516823,-4.291779526821492
-0.31281375647695137,-4.140380371964623,0.9017870016834674,-4.60322222762522
-0.3542175601965976,-3.958445908993575,0.8557547794072151,-4.9042066110772415
-0.39380201928653336,-3.7606755745055405,0.8067127132964427,-5.194627854464416
-0.43140877503158875,-3.5466223051501404,0.7547664347517985,-5.47468832293027
-0.4668749980830902,-3.3160298699968696,0.7000195515224958,-5.744945565302978
-0.5000352967830589,-3.068809105652716,0.642570095869466,-6.006352903052789
-0.5307233878395861,-2.805005163330231,0.5825065668389381,-6.260291617685781
-0.5587734394728884,-2.5247577125582277,0.5199036506620802,-6.508593791723432
-0.5840210165984706,-2.228257748234807,0.4548177127448459,-6.753554249731906
-0.6063035940808187,-1.9157071616334655,0.3872821702475268,-6.99792815186596
-0.6254606656971533,-1.5872912460626019,0.3173028887288672,-7.244906544705479
-0.6413335781577794,-1.243181071940591,0.2448538232818124,-7.498053743175055
-0.6537653888771853,-0.8835943604551726,0.16987328585006184,-7.761174715618054
-0.662601332481737,-0.5089635791279703,0.09226153869388129,-8.03805273615451
-0.6676909682730168,-0.12029315970134441,0.011881011332336183,-8.331950612946796
-0.6688938998700302,0.28016245105291776,-0.07143849479713178,-8.644696972224239
-0.666092275359501,0.6877094387992975,-0.15788546451937419,-8.975091008831516
-0.659215180971508,1.093305824743677,-0.24763637460768934,-9.31632034360092
-0.6482821227240713,1.4809125823628562,-0.34079957804369854,-9.652319060867582
-0.6334729969004427,1.8248430268571785,-0.43732276865237435,-9.954000709373396
-0.6152245666318709,2.0895722057733006,-0.5368627757461083,-10.178639039637478
-0.5943288445741378,2.236336042778549,-0.6386491661424831,-10.27824914116029
-0.5719654841463523,2.238701227580438,-0.741431657554086,-10.219977264465474
-0.5495784718705479,2.099040686194428,-0.8436314301987408,-10.00768092936347
-0.5285880650086036,1.8497848430527957,-0.9437082394923755,-9.683141813809492
-0.5100902165780756,1.5362394572585987,-1.0405396576304704,-9.303072297085158
-0.49472782200548965,1.1975446867044768,-1.133570380601322,-8.914438766132252
-0.4827523751384449,0.8589959576454976,-1.2227147682626445,-8.545324181634202
-0.4741624155619899,0.5337706237242621,-1.3081680100789865,-8.208049236855201
-0.4688247093247473,0.22735620046905586,-1.3902485024475386,-7.905415136291867
-0.46655114732005676,-0.058835926881663,-1.4693026538104572,-7.635539788431991
-0.4671395065888734,-0.32527263067606554,-1.545658051694777,-7.394675985401796
-0.47039223289563403,-0.573138023246177,-1.619604811548795,-7.178624838928212
-0.4761236131280958,-0.8037741174471515,-1.6913910599380773,-6.983366608051353
-0.48416135430256735,-1.018436252498501,-1.7612247260185907,-6.805300922082123
-0.49434571682755235,-1.218203810388211,-1.8292777352394118,-6.641306398552392
-0.5065277549314344,-1.4039639220602178,-1.8956907992249357,-6.488723646305858
-0.5205673941520366,-1.5764272696758144,-1.9605780356879943,-6.345310546671248
-0.5363316668487947,-1.7361561690128606,-2.024031141154707,-6.209191584265046
-0.5536932285389233,-1.8835955730178637,-2.0861230569973572,-6.078810089107196
-0.5725291842691019,-2.01910274489202,-2.1469111578884292,-5.952886303849299
-0.5927202117180221,-2.1429738087168277,-2.206440020926922,-5.830381585194844
-0.6141499498051904,-2.255466549693898,-2.2647438367788704,-5.710468022975584
-0.6367046153021294,-2.356819374477783,-2.3218485170086263,-5.592502463373086
-0.6602728090469072,-2.4472665844764694,-2.377773541642357,-5.4760039470830355
-0.6847454748916719,-2.5270502218415376,-2.4325335811131876,-5.360633724999463
-0.7100159771100873,-2.596428795437995,-2.486139918363182,-5.246177202066165
-0.7359802650644673,-2.655683216858825,-2.5386016903838438,-5.13252734240728
-0.7625370972330556,-2.7051202885835477,-2.5899269638079168,-5.019669227534191
-0.7895883001188911,-2.7450740921506203,-2.640123656083259,-4.907665587687061
-0.8170390410403974,-2.77590562417321,-2.6892003119601293,-4.7966432232941125
-0.8447980972821295,-2.7980010214075803,-2.7371667441930705,-4.686780301157161
-0.8727781074962053,-2.811768702228383,-2.784034547204642,-4.5782945518889075
-0.9008957945184891,-2.8176357307706863,-2.829817492723531,-4.471432415705048
-0.929072151826196,-2.8160436824059802,-2.8745318168805816,-4.366459187559677
-0.9572325886502557,-2.807444256484265,-2.9181964087561783,-4.263650204366768
-0.9853070312150984,-2.792294846135856,-2.960832910799846,-4.163283100874597
-1.013229979676457,-2.7710542372595954,-3.0024657418085923,-4.065631140299659
-1.0409405220490529,-2.7441785714230225,-3.043122053211589,-3.9709576040571544
-1.068382307763283,-2.712117671817903,-3.0828316292521603,-3.8795112041090993
-1.095503484481462,-2.6753117988669217,-3.1216267412932512,-3.791522463160707
-1.1222566024701313,-2.634188873403869,-3.1595419659248583,-3.7072009931223353
-1.14859849120417,-2.589162181023467,-3.1966139758560814,-3.626733591349019
-1.1744901130144048,-2.5406285513664786,-3.232881311769572,-3.5502830671970176
-1.1998963985280695,-2.488966990655949,-3.268384142441542,-3.4779877081286203
-1.224786068434629,-2.434537734420202,-3.303164019522828,-3.4099612944948348
-1.249131445778831,-2.3776816795865314,-3.3372636324677765,-3.346293574670322
-1.2729082625746964,-2.31872015049287,-3.37072656821448,-3.287051116811669
-1.2960954640796252,-2.2579549513048764,-3.4035970793825965,-3.232278459580192
-1.318675013592674,-2.1956686573150686,-3.4359198639783983,-3.1819994911841887
-1.3406317001658246,-2.132125099146618,-3.46773985889024,-3.1362189935911693
-1.3619529511572908,-2.0675699965454366,-3.4991020488261517,-3.0949242963529477
-1.382628651122745,-2.0022317018366733,-3.530051291789681,-3.058086991867396
-1.4026509681411117,-1.9363220169219522,-3.560632161708355,-3.025664670834277
-1.4220141883103312,-1.8700370516355194,-3.590888808416698,-2.997602642977064
-1.4407145588266863,-1.8035580951472958,-3.620864834846469,-2.9738356136805426
-1.4587501397781593,-1.7370524757312142,-3.6506031909832743,-2.9542892919616364
-1.4761206645354714,-1.6706743874795793,-3.6801460839028906,-2.9388819091083764
-1.4928274084102673,-1.6045656653417832,-3.7095349029939744,-2.927525630373369
-1.508873065063685,-1.5388564921268204,-3.738810159297708,-2.9201278442935275
-1.5242616299849532,-1.4736660227810092,-3.7680114377406433,-2.916592315535549
-1.5389982902127632,-1.4091029122964633,-3.797177360895999,-2.9168201876479065
-1.5530893193357278,-1.3452657339936263,-3.826345562772478,-2.9207108217446254
-1.566541976675664,-1.2822432746317234,-3.855552670989924,-2.928162455959813
-1.5793644094219814,-1.220114691820442,-3.884834295549522,-2.939072668496785
-1.5915655563401858,-1.1589495175292033,-3.91422502223449,-2.95333862425241
-1.6031550515154778,-1.0988074891247255,-3.943758408477014,-2.970857081331982
-1.614143126406725,-1.0397381863423576,-3.973466979290334,-2.9915241293051107
-1.6245405082701485,-0.9817804489762549,-4.003382220583385,-3.0152346258465457
-1.634358312759911,-0.9249615459785326,-4.03353456684185,-3.0418812925783922
-1.6436079282196965,-0.8692960622957449,-4.063953379767634,-3.0713534247064636
-1.652300888842654,-0.8147844654806091,-4.094666914014699,-3.103535162810205
-1.66044873349746,-0.7614113104261676,-4.125702265642801,-3.1383032695310735
-1.6680628466017218,-0.7091430382762937,-4.157085298338111,-3.175524349885813
-1.6751542769844847,-0.6579253258388122,-4.188840541836969,-3.215051452973345
-1.6817335302428729,-0.6076799463267051,-4.220991056366702,-3.2567199970692213
-1.68781032970614,-0.5583011132701317,-4.253558256337394,-3.300342972484583
-1.6933933408388413,-0.5096513000318732,-4.28656168606224,-3.3457054011331646
-1.69848985383916,-0.46155656143048757,-4.3200187400735715,-3.3925580737306205
-1.703105419453465,-0.4138014362732986,-4.353944320810878,-3.440610651401724
-1.707243433816198,-0.36612358546130436,-4.3883504273248946,-3.489524315615591
-1.710904669670811,-0.3182084250411789,-4.423245670481051,-3.5389042864309572
-1.7140867539212228,-0.2696841511347969,-4.4586347133453605,-3.5882927102578552
-1.7167835954325708,-0.22011772462307538,-4.494517640447939,-3.6371626468366616
-1.7189847726788015,-0.16901258167139924,-4.530889266916306,-3.6849141546099156
-1.7206748984955154,-0.11580904451627227,-4.5677384084624055,-3.7308737635985847
-1.721832988940678,-0.05988859227601457,-4.605047146098391,-3.7742988937167197
-1.7224318748634382,-0.0005832606269953397,-4.6427901350355585,-3.814388955430266
-1.7224377074697081,0.06280860224656287,-4.680934024589861,-3.8503048609342247
-1.7218096214472425,0.13099927667553002,-4.719437073199203,-3.881198358046915
-1.7204996286804872,0.20468096753554305,-4.758249056779673,-3.9062518574628737
-1.7184528190051318,0.28448809067566116,-4.797311575354302,-3.9247281821041207
-1.715607938098375,0.3709545028161334,-4.836558857175343,-3.9360279526525908
-1.7118983930702139,0.4644691298862596,-4.875919136701869,-3.9397503252156296
-1.7072537017713512,0.5652348363603762,-4.915316639954026,-3.9357508957041696
-1.7016013534077474,0.6732362445810998,-4.954674148911067,-3.9241893134841623
-1.6948689909619363,0.7882221468147068,-4.9939160420459086,-3.90555905860496
-1.6869867694937892,0.9097068954616188,-5.032971632631958,-3.880693303223897
-1.677889700539173,1.0369927572804314,-5.071778565664197,-3.8507437789547203
-1.6675197729663687,1.1692120987210946,-5.110286003453744,-3.8171335979984726
-1.6558276519791577,1.3053851456732737,-5.148457339433729,-3.7814891211849826
-1.642773800522425,1.4444867120757472,-5.186272230645579,-3.745559211469637
-1.6283289334016675,1.5855142875898185,-5.223727822760275,-3.711131783164647
-1.6124737905257693,1.7275503777163226,-5.260839140591922,-3.6799571921742062
-1.595198286748606,1.8698137300229836,-5.297638712513664,-3.653686009376801
-1.5765001494483764,2.0116964964390562,-5.334175572607432,-3.633825770038191
-1.5563831844839857,2.1527868474881386,-5.3705138303078135,-3.621718198913789
-1.5348553160091043,2.2928785778553906,-5.406731012296952,-3.6185358269236825
-1.5119265302305505,2.431970568796913,-5.442916370566189,-3.6252952051169967
-1.4876068245425813,2.570259580393549,-5.479169322617358,-3.6428831538495694
-1.461904228738646,2.708129876417321,-5.515598154155854,-3.6720925174735286
-1.4348229299744726,2.8461428489870615,-5.552319079330589,-3.713664487286651
-1.406361501484602,2.9850293198855473,-5.5894557242034555,-3.7683354649575995
-1.3765112082857465,3.1256867179034535,-5.627139078853031,-3.8368874758114075
-1.345254341106712,3.2691829788972315,-5.6655079536111455,-3.9202021905503
-1.3125625113177397,3.416768849906851,-5.704709975516648,-4.019319627725695
-1.2783948228186712,3.569900326152367,-5.744903171793905,-4.135503589181595
-1.2426958195571476,3.73027320747076,-5.786258207685721,-4.270316850677364
-1.20539308748244,3.899872194056944,-5.8289613761924945,-4.425710098616828
-1.1663943655418705,4.0810374513710785,-5.873218477178662,-4.60412949886766
-1.1255839910281598,4.2765519065934035,-5.919259772167339,-4.808648313056337
-1.0828184719622258,4.489752060852523,-5.967346255297903,-5.043127313658131
-1.0379209513537007,4.724662269912102,-6.017777528434484,-5.312404788175302
-0.9906743286545796,4.986143558747229,-6.0709015763162375,-5.622504542242512
-0.9408128930671074,5.280024294876437,-6.127126621738663,-5.980817267669003
-0.888012650118343,5.613120765391157,-6.186934794415353,-6.3961280541648025
-0.8318814424644314,5.992913311494227,-6.250896074957001,-6.878164122134925
-0.7719523093494891,6.426314882755477,-6.31967771617835,-7.43587717365468
-0.7076891605219343,6.916263023267373,-6.394036487914897,-8.072685918814384
-0.6385265302892605,7.453608026299831,-6.474763347103041,-8.775137166106251
-0.5639904500262622,8.000743826542699,-6.5625147187641035,-9.489990900474348
-0.48398301176083525,8.46817032098813,-6.657414627768847,-10.091353012114308
-0.39930130855095397,8.710472475068558,-6.75832815788999,-10.374919197440335
-0.3121965838002684,8.60370338126949,-6.862077349864393,-10.166137806430585
-0.22615954998757348,8.1809813902128,-6.963738727928699,-9.509658877659884
-0.1443497360854455,7.617246566144689,-7.058835316705298,-8.647703017306773
-0.0681772704239986,7.064707598713629,-7.145312346878366,-7.790596789224057
0.0024698055631376947,6.586670744954972,-7.223218314770606,-7.025149522657439
0.06833651301268742,6.192250243154305,-7.29346980999718,-6.3631881645998
0.13025901544423046,5.871917800159084,-7.357101691643178,-5.790884569284034
0.18897819344582129,5.612885512703573,-7.415010537336019,-5.290001296518663
0.24510704857285703,5.403772989653478,-7.467910550301205,-4.844307493806003
0.2991447784693918,5.2354710847083465,-7.516353625239265,-4.4407634929321285
0.3514994893164753,5.100913966645649,-7.5607612601685865,-4.069220727126839
0.40250862898293177,4.994636477156058,-7.601453467439855,-3.721842321565304
0.45245499375449233,4.912363103668927,-7.638671890655508,-3.392580241820231
0.5015786247911816,4.850678432731097,-7.67259769307371,-3.0767751522312743
0.5500854091184926,4.806774076698231,-7.703365444596023,-2.770869840178092
0.5981531498854749,4.778255973262283,-7.731074142997803,-2.472211266736713
0.6459357096180977,4.762997303052751,-7.755796255665171,-2.178916994486411
0.6935656826486252,4.7590263309564635,-7.777585425610035,-1.8897857429747222
0.7411559459581898,4.764442412891511,-7.796483283039783,-1.604235506856109
0.7888003700871049,4.7773564926536976,-7.812525638108344,-1.322255431039483
0.8365739350136419,4.7958544948783794,-7.825748192418739,-1.044359774138868
0.8845324799624257,4.817983076090367,-7.836191790160127,-0.7715343318170365
0.9327123107233294,4.841757236532759,-7.8439071334782975,-0.505168120666635
0.981129883088657,4.8651884022253915,-7.848958814684964,-0.24696623688720187
1.0297817671109109,4.88632997666196,-7.851428477053836,0.0011564017101008683
1.0786450668775305,4.903335422501526,-7.851416913036735,0.23719660310951737
1.1276784211025457,4.9145221888150825,-7.849044947005639,0.45919212656785946
1.1768236429906964,4.918433791877082,-7.844453025739961,0.6653483140673417
1.2260079809094673,4.91389248466953,-7.837799542599288,0.8541509749008821
1.2751469057561626,4.900036317750552,-7.829258032850279,1.0244555402217417
1.3241472689336682,4.876336760854777,-7.8190134774480615,1.1755454766712503
1.372910636542216,4.842595905651725,-7.807258022681349,1.307157016882022
