th1 (rad),w1 (rad/s),th2 (rad),w2 (rad/s)
1.2803899482757946,-1.1240321066604773,3.0722119552660305,1.2427412774375637
1.2691496272091898,-1.2146684670622525,3.0846393680404063,1.2037500470179359
1.2570029425385671,-1.3063133022713327,3.0966768685105857,1.1616551748946191
1.2439398095158538,-1.3990654958460154,3.108293420259532,1.1161639213549273
1.2299491545573937,-1.4930310231255182,3.119455059473081,1.0669749286370862
1.2150188443261385,-1.5883221143056285,3.1301248087594518,1.013778146211879
1.1991356231830823,-1.6850562065451569,3.1402625902215706,0.9562550010484014
1.1822850611176308,-1.7833546491601946,3.1498251402320547,0.8940788803654518
1.1644515146260288,-1.8833411222972132,3.158765929035709,0.8269160026823804
1.1456181034030566,-1.9851397264981614,3.1670350890625327,0.7544267607878805
1.125766706138075,-2.08887269880613,3.1745793566704115,0.6762676268135938
1.1048779791500136,-2.1946577111807706,3.1813420329385473,0.5920937139456555
1.082931402038206,-2.3026047098249913,3.1872629700780037,0.5015620901557235
1.059905354939956,-2.412812260541956,3.192278590979561,0.4043359351051099
1.0357772323345364,-2.5253633765315837,3.1963219503306117,0.30008962021126034
1.0105235985692207,-2.6403208222313204,3.1993228465327244,0.18851477169767183
0.9841203903469075,-2.7577219109679016,3.201207994249701,0.06932734515093446
0.9565431712372284,-2.8775728461292496,3.2019012677012104,-0.0577243042563302
0.9277674427759359,-2.999842695617852,3.201324024658647,-0.19285043054413598
0.8977690158197574,-3.1244571370584358,3.199395520353206,-0.33621013303893027
0.8665244444491731,-3.25129216504482,3.1960334190228163,-0.48790105546293955
0.8340115227987249,-3.3801680086417654,3.191154408468187,-0.6479488812178503
0.8002098427123072,-3.510843562775345,3.1846749196560085,-0.8162970598722891
0.7651014070845538,-3.6430116847271345,3.1765119490572857,-0.9927972968238991
0.7286712902372824,-3.776295738938177,3.1665839760890466,-1.177201418335511
0.6909083328479007,-3.9102477811951437,3.1548119619056916,-1.3691552735977448
0.6518058550359492,-4.044348748800418,3.141120409169714,-1.5681953394178731
0.611362367547945,-4.178010960118253,3.1254384557755355,-1.7737486383491137
0.5695822579467625,-4.3105831220523205,3.1077009693920443,-1.9851364585548075
0.5264764267262393,-4.441357899759205,3.0878496048064963,-2.2015821715036896
0.4820628477286472,-4.569581927599575,3.0658337830914593,-2.422223189120799
0.43636702845265146,-4.694467948555882,3.0416115512002513,-2.646126803058074
0.38942234896709266,-4.815208580698179,3.0151502831696706,-2.8723093326170828
0.3412702631601109,-4.930991045860703,2.9864271898435,-3.099757708422504
0.29196035270150383,-5.041012078645086,2.955429612759275,-3.327452371788828
0.24155023191505298,-5.144492179641436,2.9221550890413868,-3.55439020629357
0.19010531011863863,-5.240688393986727,2.886611186978451,-3.779606160118183
0.13769842617877134,-5.328904884172777,2.8488151253772696,-4.00219227334909
0.08440937733704357,-5.408500714181962,2.8087932026437787,-4.221312986802796
0.03032437019522395,-5.478894453184781,2.7665800727757506,-4.436215857934845
-0.024464574336623857,-5.5395654200866,2.7222179141964022,-4.646237115839778
-0.07986022853748986,-5.590051604338312,2.6757555430380044,-4.850801818692276
-0.13576074458087298,-5.629944496607442,2.627247524851082,-5.049418703038899
-0.1920601895469474,-5.658881234273399,2.576753337820693,-5.241670111916906
-0.2486490018896814,-5.676534607335852,2.524336636701524,-5.427197644227411
-0.3054143479630399,-5.682601582486985,2.4700646602592498,-5.605684377464296
-0.36224036378790975,-5.676791093342881,2.414007816484607,-5.776834684487948
-0.41900827472133856,-5.658811921294459,2.3562394696397275,-5.9403528025114625
-0.47559639393428316,-5.62836156088577,2.2968359416146127,-6.095921430209574
-0.5318800095431409,-5.585117028536694,2.235876727312517,-6.24318173546308
-0.5877311798285078,-5.528728629416154,2.1734449099578863,-6.381716253500529
-0.6430184661226693,-5.458817731100398,2.109627747422881,-6.511036234548705
-0.6976066434336733,-5.374979581181311,2.044517385077394,-6.6305750401163905
-0.7513564392454863,-5.276792116699079,1.97821163467623,-6.73968915249077
-0.8041243604124771,-5.163831507158724,1.9108147431513223,-6.837668205726445
-0.8557626754840644,-5.035694810703403,1.8424380610940578,-6.923755114968241
-0.9061196235910984,-4.892029575490548,1.7732005099443755,-6.997176825683194
-0.955039919346004,-4.732569480095883,1.7032287416875436,-7.057185397528246
-1.0023656141469628,-4.5571742120681025,1.6326568877122611,-7.103108092270193
-1.0479373562676437,-4.365870819416222,1.5616258067895592,-7.134403924649117
-1.091596064461806,-4.158892879327105,1.490281767543068,-7.150722903893018
-1.133184993255077,-3.9367131998548466,1.4187745385041377,-7.151963151830239
-1.1725521252536255,-3.7000656036467423,1.3472549069858353,-7.138320476928383
-1.209552781290093,-3.44995179844881,1.2758717022165516,-7.11032503893074
-1.244052299274581,-3.1876304794999895,1.2047684518272441,-7.06886059482714
-1.275928604069581,-2.9145875519865707,1.1340798458789727,-7.01516346161254
-1.3050744795894467,-2.6324884695054944,1.0639282112628474,-6.9508005713967425
-1.3313993642845017,-2.343115799803009,0.99442020554888,-6.87762847754212
-1.3548305222825319,-2.04829685718847,0.9256439207734588,-6.797737461703333
-1.3753134908544167,-1.7498272525590894,0.8576665461564255,-6.7133865839313485
-1.3928117633800077,-1.4493963312706786,0.790532680317112,-6.626936339389045
-1.4073057266927145,-1.1485197162720806,0.7242633169232215,-6.540785464541141
-1.4187909238554353,-0.8484827467310077,0.6588554622778101,-6.4573175059063646
-1.4272757513227454,-0.5502968083746803,0.5942822872187464,-6.3788613076623815
-1.4327787194064923,-0.2546687189763883,0.5304936741421227,-6.307667933749948
-1.4353254065962562,0.03801826975619366,0.4674169948046232,-6.245905032148908
-1.4349452238986942,0.3277145001084342,0.4049579444831341,-6.195668502011759
-1.4316680788976097,0.6147083742665376,0.3430012594630165,-6.159010653426769
-1.4255209951549443,0.8996290214314282,0.28141115292874885,-6.1379838625124865
-1.41652470494063,1.1834509628709813,0.220031314303624,-6.134698942659055
-1.4046901953119202,1.467504363816233,0.15868432487703343,-6.151397926263755
-1.3900151516737578,1.753494026319031,0.09717034561439589,-6.190541445672078
-1.3724802114105674,2.04352947796062,0.0352649311576751,-6.254911022574653
-1.3520449166309612,2.3401669036109083,-0.027284179068071436,-6.347725570905811
-1.328643247594852,2.646460183000374,-0.09076143477712956,-6.472767740043173
-1.3021786457648483,2.966010565037077,-0.15548911217756128,-6.634506068242436
-1.2725185401144776,3.302987416862418,-0.22183417285998563,-6.838176188623147
-1.2394886659458535,3.6620552120776138,-0.2902159347462171,-7.0897334706968
-1.2028681138250774,4.048062335521188,-0.3611132694531851,-7.395479514868556
-1.1623874904698654,4.465183569920102,-0.43506806460187064,-7.7609369711154494
-1.1177356547706645,4.91489696292497,-0.5126774343130251,-8.188111139277892
-1.0685866851414147,5.391691454532329,-0.594558545705804,-8.669592564228672
-1.0146697705960914,5.8750852742286535,-0.6812544713480908,-9.177490313705135
-0.9559189178538049,6.318165528277234,-0.7730293744851422,-9.647416239232898
-0.8927372625710326,6.6409607331632365,-0.8695035368774712,-9.96899562981531
-0.8263276552394002,6.752022056017792,-0.9691934931756243,-10.015399824011121
-0.7588074346792223,6.611969273336613,-1.0693474914157355,-9.731068889086684
-0.6926877419458561,6.279489758864558,-1.1666581803066023,-9.194966595040988
-0.6298928443572106,5.864835903193004,-1.258607846257012,-8.555941079979661
-0.5712444853252806,5.453132792303742,-1.3441672570568086,-7.927412505277121
-0.5167131574022432,5.083511952440359,-1.42344138210958,-7.359686437016574
-0.4658780378778396,4.7657091360349275,-1.4970382464797456,-6.863374195116
-0.4182209465174903,4.4970381652575275,-1.5656719884309056,-6.43274596080845
-0.37325056486491504,4.271138992950088,-1.62999944803899,-6.057564698242829
-0.3305391749354142,4.08141605970448,-1.6905750950214185,-5.7276249523438665
-0.2897250143383694,3.922121085789106,-1.7478513445448571,-5.434108523004314
-0.25050380348047835,3.788546914020083,-1.8021924297749004,-5.169767641069743
-0.21261833434027752,3.6769296639756233,-1.8538901061855977,-4.928742323452157
-0.1758490377005213,3.584280341067652,-1.9031775294201192,-4.706304721709241
-0.14000623428984477,3.5082202719902194,-1.9502405766372115,-4.498625787215348
-0.10492403156994257,3.446840505432809,-1.9952268345093649,-4.302588182069196
-0.07045562651561448,3.3985865164554387,-2.038252716330057,-4.115645540123599
-0.03646976135106009,3.3621639180127962,-2.079409171731293,-3.9357216207171093
-0.002848122170932124,3.336459959613955,-2.118766387938464,-3.7611421975304973
0.030516477425207425,3.320476243734498,-2.156377809913769,-3.590593466963123
0.0637212398625524,3.313269207712757,-2.1922837445834,-3.423101817132436
0.09685393193967998,3.3138961611973463,-2.2265147627547246,-3.25803043930121
0.12999289355165344,3.321365969360628,-2.2590950671477366,-3.095088326430761
0.16320655324525973,3.334594833782806,-2.2900459504120443,-2.9343466826632865
0.1965525015830878,3.3523690247314275,-2.319389417238677,-2.7762567661869144
0.23007619183040207,3.37331775774465,-2.347151984900546,-2.6216619383307407
0.26380936940784855,3.395900467972991,-2.3733686042838538,-2.4717955871815303
0.29776837408757845,3.4184131904625596,-2.398086560155669,-2.328256189343055
0.33195250599220405,3.439018221434244,-2.4213691220490996,-2.192951709925271
0.3663426882065465,3.4557994019946827,-2.4432986391483524,-2.068008366776992
0.40090068222649333,3.466842165223941,-2.4639787228161225,-1.9556436881756252
0.43556910387873277,3.470333267971577,-2.4835351596978787,-1.858010332734202
0.4702724365584485,3.464670711025286,-2.5021152630252206,-1.7770241289776616
0.5049191436687014,3.4485708901173098,-2.5198855043149972,-1.714195476957327
0.5394048525698745,3.421158655787339,-2.5370274590845705,-1.6704858283195079
0.5736164391277478,3.382027380663048,-2.5537323173677655,-1.646209245622035
0.6074367129343783,3.3312602531011586,-2.5701944098239857,-1.6409930277521265
0.6407493154653898,3.2694099498302003,-2.586604340101507,-1.6538023472693046
0.6734434149636919,3.197440192839551,-2.6031423635741997,-1.683023925413982
0.7054178168920874,3.116638037412877,-2.6199726028283394,-1.7265952689622894
0.7365841972662162,3.0285090367844134,-2.6372385555179623,-1.7821606406781392
0.7668692876340603,2.9346682815380665,-2.6550601619247436,-1.8472334698996857
0.7962159704494409,2.836738937317722,-2.6735324966237406,-1.919347040212812
0.8245833598226181,2.7362669616615305,-2.6927259670258685,-1.9961799690859614
0.8519460294392334,2.634657016655562,-2.712687766716728,-2.0756488350625832
0.878292599605789,2.5331310079239784,-2.733444255067354,-2.1559659974993877
0.9036239096850288,2.4327077598894995,-2.755003915042348,-2.235665234635075
0.9279509872839238,2.33420038666028,-2.7773605673886985,-2.313600818684599
0.9512929911505266,2.2382269728994624,-2.8004965755755444,-2.3889270191943583
0.9736752608795212,2.145230079801429,-2.824385845767488,-2.4610650612126888
0.9951275616775355,2.055501078931512,-2.848996496379615,-2.52966369679885
1.0156825724668506,1.9692061199551398,-2.8742931333476034,-2.5945582183937335
1.035374633666402,1.8864114317412555,-2.9002387155315406,-2.655731307876722
1.0542387479838147,1.8071064857921988,-2.926796028610308,-2.713277812415363
1.0723098128417368,1.7312242332344614,-2.9539288067344613,-2.767374488565014
1.0896220551740814,1.65865813454128,-2.9816025516201115,-2.8182549921822475
1.1062086365194943,1.5892760440406557,-3.009785101541934,-2.866189890801237
1.122101396959901,1.5229312171573923,-3.0384470004499464,-2.9114711875009607
1.1373307091314748,1.4594708111960841,-3.067561712324956,-2.954400714492866
1.1519254172434357,1.3987422823317321,-3.0971057194698846,-2.9952817291200025
1.1659128400667529,1.340598068749636,-3.1270585367610844,-3.03441308320091
1.1793188207542493,1.284898912361844,-3.1574026675930935,-3.072085408280144
1.1921678098778679,1.2315161229146878,-3.188123521675895,-3.108578843835677
1.2044829711070146,1.180333037335131,-3.219209310114252,-3.1441619201053066
1.216286301480366,1.1312458789201962,-3.250650929315305,-3.1790912848329893
1.227598760269568,1.0841641780016118,-3.2824418421636348,-3.2136120305962264
1.238440402049584,1.0390108789343626,-3.3145779624695972,-3.2479584355173845
1.2488305108389277,0.9957222276035279,-3.347057546824771,-3.282354975492874
1.258787733114963,0.9542475085272251,-3.3798810965797,-3.3170175016678316
1.2683302082002352,0.9145486802148617,-3.413051271596378,-3.352154504048997
1.2774756950023838,0.8765999407985916,-3.446572816636868,-3.3879684021734926
1.2862416944103696,0.8403872421784588,-3.480452500658603,-3.4246568177643097
1.2946455668321541,0.8059077591381014,-3.5146990688362463,-3.4624137932010077
1.302704644423535,0.773169309274238,-3.5493232067682565,-3.5014309240493104
1.3104363375162775,0.7421897093441507,-3.5843375160087496,-3.541898374180166
1.317858234609719,0.7129960429733498,-3.6197564997505514,-3.5840057382327175
1.3249881950394524,0.6856238027412023,-3.6555965571328786,-3.6279427080979545
1.3318444330668644,0.6601158555495875,-3.691875984213858,-3.6738994871549178
1.3384455916223603,0.6365211628186376,-3.7286149790854073,-3.7220668772536905
1.3448108032505468,0.6148931652051197,-3.7658356478579442,-3.772635937585329
1.350959734902598,0.5952877137510979,-3.8035620072337974,-3.825797079853222
1.356912612040109,0.5777603939752558,-3.84181997803233,-3.8817384183719645
1.3626902159798615,0.5623630445945141,-3.8806373622160497,-3.9406431343104686
1.3683138464258067,0.5491392165220453,-3.9200437935591546,-4.002685537564945
1.373805238591027,0.538118249201463,-3.960070648934804,-4.068025415375295
1.3791864210830418,0.5293075601756533,-4.000750903088557,-4.136800142911015
1.3844794966847984,0.5226826528556866,-4.042118904517667,-4.209113900209157
1.3897063232133553,0.5181742550403379,-4.084210043519759,-4.285023201530815
1.3948880657637588,0.5156519249522679,-4.127060275535067,-4.364517819605782
1.4000445850132814,0.5149034369841222,-4.170705453731125,-4.4474961222334075
1.4051936193831227,0.5156093463678405,-4.215180414953458,-4.533733910627979
1.4103497128468012,0.5173124280896644,-4.260517754059738,-4.622846186271683
1.4155228371276978,0.519382334962286,-4.306746215922455,-4.714242068779899
1.4207166604773207,0.5209770129141699,-4.353888636610255,-4.807074598688702
1.4259264306064623,0.521004352206502,-4.401959382597142,-4.900189667141314
1.4311364741285273,0.5180903641426468,-4.450961279268555,-4.992081997991733
1.4363173777699538,0.51056369817589,-4.500882099248472,-5.08087077889236
1.4414230147517126,0.49646980915173716,-4.551690807037396,-5.164312221095231
1.44638771284323,0.4736298842193585,-4.603333929248348,-5.239868809709717
1.4511240116854236,0.43975711994581057,-4.6557326173454445,-5.30485177592709
1.4555215828848818,0.39263331403689594,-4.708781135104715,-5.356640642020987
1.4594479160252507,0.33033111349542094,-4.762347541524925,-5.392960385176641
1.462751227160205,0.25144542663438585,-4.816277145376691,-5.4121679745227835
1.4652656814265488,0.15528104702676454,-4.870398825121918,-5.413478684664746
1.4668184918968163,0.04194420477109273,-4.924533611968566,-5.3970643819173665
1.4672379339445272,-0.08769094652449766,-4.9785042557877395,-5.363987957893777
1.4663610244792822,-0.2321317252820658,-5.032144135366678,-5.315989320643922
1.4640397072264615,-0.38948831567604847,-5.085304028573117,-5.255183877407415
1.460144824069701,-0.5577086591472946,-5.1378558673471915,-5.183752205260431
1.454567737478228,-0.7347773947713147,-5.189693389399796,-5.103685584166936
1.4472199635305147,-0.9188525038878053,-5.2407302452414655,-5.016619953267325
1.4380314384916366,-1.1083368757751184,-5.2908964447741385,-4.923759182900468
1.4269480697338854,-1.301897301730538,-5.340134036603144,-4.825868781928521
1.41392909671658,-1.4984489091477473,-5.388392724422428,-4.723314810904793
1.3989446076251026,-1.6971217090616448,-5.435625872531476,-4.616125477831625
1.3819733905344862,-1.8972215665161956,-5.481787127309793,-4.5040593387266155
1.3630011748693243,-2.098193222835913,-5.526827720697058,-4.386670565509413
1.3420192426409652,-2.2995892748160727,-5.570694426352152,-4.263366754300409
1.3190233498928043,-2.5010465228655416,-5.613328093895157,-4.133457957322455
1.294012884664149,-2.7022696402282396,-5.654662673468382,-3.9961973745341983
1.2669901882618666,-2.903021363987534,-5.694624647213724,-3.8508149227575115
1.2379599746219914,-3.1031180753299665,-5.733132796441299,-3.696545129004663
1.2069287938686917,-3.3024295112344415,-5.770098247731346,-3.5326507695978293
1.1739044987563472,-3.500881295478724,-5.805424755427324,-3.358443591795792
1.13889568580156,-3.69845890744729,-5.839009191345282,-3.1733034343322877
1.101911096727087,-3.895211564200689,-5.870742225688605,-2.9766971943704896
1.0629589810850801,-4.091254225139285,-5.900509197632309,-2.7681994452208194
1.0220464388336872,-4.286765484853042,-5.928191192084517,-2.547517171133447
0.9791787839851568,-4.481978429377827,-5.953666363795851,-2.314522147529076
0.9343589996913785,-4.6771605075863425,-5.976811585271142,-2.0692960684101807
0.8875873946155151,-4.8725770195295715,-5.997504545955244,-1.8121957153838448
0.8388616244202194,-5.068430888841738,-6.0156265031090825,-1.5439483145671191
0.788177315531802,-5.264769052748376,-6.031065986254753,-1.2657905477790878
0.7355296250043183,-5.46134354569625,-6.043723891732544,-0.9796676951829533
0.6809161895473558,-5.657414519618461,-6.053520568684373,-0.6885100280651357
0.6243420443511711,-5.851486082630816,-6.060405668965024,-0.3965973316289833
0.5658271835248629,-6.040979758987649,-6.064371642281314,-0.11000088016668513
0.5054173859349864,-6.221883564164733,-6.065471651082981,0.16295752963243554
0.4431985502933391,-6.388476247109307,-6.063842075786656,0.411380381967272
0.379313787822246,-6.53331321347495,-6.059728271966984,0.6218799264530027
0.3139806556874965,-6.647732356552003,-6.053509472702454,0.7794523568913865
0.24750333212197648,-6.723092014653149,-6.04571494913354,0.869445668714004
0.18027241197544497,-6.75266354393696,-6.0370204924464,0.8804965508220804
0.11274577653607537,-6.733589635374593,-6.02821552693818,0.8075586016569485
0.04540988018232944,-6.667947840145586,-6.02013994092161,0.6535934631153338
-0.021269598219126412,-6.562232921817583,-6.013604006290457,0.4288880953277467
-0.08689192743730224,-6.4254754686042315,-6.00931512533718,0.14828389333319442
-0.15114668212334456,-6.266982283871728,-6.007832286403848,-0.172248768770341
-0.21381650496206184,-6.094659209772424,-6.009554774091551,-0.5182556151969995
-0.2747630970597861,-5.914272245831709,-6.014737330243522,-0.878091683350638
-0.33390581951810316,-5.729459300847524,-6.023518247077028,-1.2430945781050617
-0.3912004125265784,-5.542126296824536,-6.035949192858079,-1.6071545711838235
-0.44662167549482373,-5.352939159177066,-6.052020738569918,-1.9661044348080958
-0.5001510670865944,-5.161762419269702,-6.071681782917999,-2.3171573181290643
-0.5517686912792914,-4.967996638696875,-6.094853356099289,-2.658473185543617
-0.6014486576662601,-4.770817453513602,-6.121438087954726,-2.988857329996241
-0.6491568322013961,-4.569336208063845,-6.151326661254688,-3.3075658295871353
-0.6948501942820345,-4.362703503672099,-6.18440231955056,-3.614188095544932
-0.7384772293187556,-4.15017294195734,-6.220544200506009,-3.908580891009092
-0.779978958738329,-3.9311376021289273,-6.2596300094161,-4.190834354372662
-0.8192903347596183,-3.7051479863616477,-6.301538352959827,-4.461256019365183
-0.8563418146232348,-3.471917600536964,-6.346150913153479,-4.720362927982172
-0.8910609906286044,-3.2313208618683884,-6.3933545424333005,-4.9688747225393
-0.9233741992472884,-2.983387410919121,-6.443043289658694,-5.207702274288197
