th1 (rad),w1 (rad/s),th2 (rad),w2 (rad/s),a1 (rad/s^2),a2 (rad/s^2)
6.06332955968423,1.1419964346726192,5.126445491449418,-2.873167953955976,-5.040781023987394,13.008305667804608
6.074749524030956,1.0915886244327453,5.097713811909859,-2.74308489727793,-4.632103011321094,12.660626926883586
6.085665410275284,1.0452675943195344,5.07028296293708,-2.616478628009094,-4.239471919461976,12.342841051000269
6.096118086218479,1.0028728751249147,5.044118176656989,-2.4930502174990914,-3.864916839697773,12.055485441242643
6.106146814969728,0.964223706727937,5.019187674481998,-2.372495363086665,-3.509473907190317,11.797936380679324
6.115789052037007,0.9291289676560338,4.9954627208511315,-2.254515999279872,-3.173538157308449,11.568858860231428
6.125080341713567,0.8973935860829493,4.972917560858333,-2.1388274106775573,-2.8571048823950522,11.366509734974718
6.134054277574397,0.8688225372589987,4.9515292867515575,-2.0251623133278103,-2.5599331826016796,11.188938869017946
6.142742502946987,0.8432232054329819,4.931277663618279,-1.9132729246376308,-2.2816552907283745,11.034120152989944
6.151174735001317,0.8204066525256981,4.912144934371903,-1.8029317231077313,-2.0218483974572483,10.90003478452099
6.159378801526574,0.8001881685511256,4.894115617140826,-1.6939313752625214,-1.7800807137245072,10.784722360661092
6.167380683212086,0.7823873614138805,4.8771763033882,-1.5860841516559105,-1.555939946227515,10.686310495697024
6.175204556826224,0.7668279619516054,4.861315461871641,-1.4792210466989404,-1.3490498527777,10.603030302739729
6.18287283644574,0.7533374634238285,4.846523251404651,-1.3731907436715431,-1.1590787898610022,10.5332227410908
6.190406211079978,0.7417466755252184,4.832791343967936,-1.267858516260635,-0.9857429442963331,10.475339223089083
6.19782367783523,0.7318892460822551,4.82011275880533,-1.1631051240297443,-0.8288060944564527,10.427938771380251
6.2051425702960525,0.7236011851376906,4.808481707565032,-1.0588257363159417,-0.6880771607104647,10.389683263742842
6.212378582147429,0.7167204135305859,4.797893450201872,-0.9549289036785132,-0.5634063999971195,10.359331788722145
6.219545786282735,0.7110863495306147,4.788344161165087,-0.8513355857912918,-0.45468082032028445,10.33573478597969
6.226656649778041,0.7065395413274118,4.779830805307174,-0.7479782379314949,-0.3618191990241158,10.317828408537686
6.233722045191316,0.7029213493371707,4.772351022927859,-0.644799953846118,-0.2847669573385842,10.304629384303464
6.240751258684687,0.7000736797637848,4.765903023389398,-0.5417536600030833,-0.22349105447458154,10.295230546906488
6.247751995482325,0.697838769219039,4.760485486789367,-0.4388013545340185,-0.17797500475400288,10.288797134167242
6.254730383174516,0.6960590191714989,4.756097473244027,-0.33591338319234604,-0.14821408206570155,10.284563904920402
6.261690973366231,0.6945768783508419,4.752738339412103,-0.23306774414314202,-0.13421075123034623,10.281833093537918
6.26863674214974,0.6932347708385385,4.750407661970671,-0.13024941320776284,-0.13597035139135363,10.279973200938175
6.275569089858125,0.6918750673246249,4.749105167838594,-0.027449681198381093,-0.15349704937066297,10.278418607441944
6.282487840531371,0.6903400968309182,4.74883067102661,0.07533450487603835,-0.1867900789713549,10.276669984049688
6.289391241499681,0.6884721960412047,4.749584016075371,0.17810120471653523,-0.23584028401998733,10.274295472900517
6.296275963460093,0.6861137932010049,4.751365028122536,0.2808441594455404,-0.3006269874837347,10.270932603743143
6.303137101392103,0.6831075233261675,4.754173469716991,0.38355348548297186,-0.3811152155175218,10.2662909105283
6.309968176625365,0.6792963711709923,4.758009004571821,0.48621639458825483,-0.4772533132272657,10.26015521034306
6.316761140337075,0.6745238380387196,4.762871168517703,0.5888179466916854,-0.5889709978312843,10.252389505694305
6.323506378717462,0.6686341280604068,4.76875934798462,0.6913418417486284,-0.7161779043878759,10.242941470624737
6.330192719998066,0.6614723490165281,4.775672766402106,0.7937712564548758,-0.8587626889990013,10.231847481455704
6.336807443488231,0.652884722126538,4.783610478966655,0.8960897312694328,-1.0165927640779495,10.2192381543496
6.343336290709496,0.6427187944857585,4.79257137627935,0.9982821128129288,-1.1895147495657112,10.20534435470652
6.349763478654354,0.6308236469901014,4.802554197407479,1.100335556359994,-1.377355732567863,10.190503648054033
6.356071715124255,0.6170500896644228,4.813557552971078,1.2022405928405342,-1.5799254354175467,10.17516716898958
6.362242216020899,0.6012508353102473,4.825579958899484,1.30399226453043,-1.7970193982837765,10.159906894329515
6.368254724374002,0.5832806413274095,4.838619881544788,1.4055913334737251,-2.0284232867394194,10.145423319300159
6.374087530787276,0.5629964084600153,4.852675794879525,1.5070455666667266,-2.2739184367331693,10.132553551660052
6.379717494871876,0.5402572240926836,4.867746250546193,1.6083711021833271,-2.5332887486474864,10.122279858155109
6.385120067112803,0.5149243366062087,4.8838299615680265,1.7095939007648782,-2.806329037904524,10.115738720440595
6.390269310478865,0.4868610462271635,4.900925900575675,1.8107512879692842,-3.0928549410009873,10.114230482806644
6.395137920941137,0.4559324968171536,4.919033413455368,1.9118935927973506,-3.3927144616030285,10.119229700197193
6.399697245909309,0.4220053522011233,4.9381523493833415,2.0130858897993225,-3.7058012194365775,10.132396319436028
6.40391729943132,0.3849473400067575,4.958283208281335,2.1144098529936826,-4.03206943210062,10.155587844857696
6.407766772831387,0.3446266456857513,4.979427306811272,2.2159657314422594,-4.371550611805337,10.1908726446826
6.411213039288245,0.30091113956769794,5.0015869641256945,2.3178744578890855,-4.7243718878507135,10.240544535572578
6.414222150683922,0.2536674206891908,5.024765708704585,2.4202799032448112,-5.090775759600165,10.307138723055786
6.416758824890814,0.20275966309318916,5.048968507737033,2.523351290475369,-5.471140925346078,10.393449049142198
6.418786421521746,0.14804825383972836,5.074202020641787,2.627285780966791,-5.866003591197889,10.502546265961849
6.420266904060144,0.08938821792774948,5.100474878451455,2.7323112436264094,-6.276078296671635,10.637796655058875
6.4211607862394215,0.026627434961033133,5.127797990887719,2.838689210176998,-6.702276731680896,10.802879652990853
6.421427060589032,-0.04039533235577583,5.156184882989488,2.9467180067069068,-7.145722157848817,11.001802081897454
6.421023107265475,-0.111852553934264,5.1856520630565575,3.0567360275258815,-7.607755723578941,11.238904898095713
6.419904581726132,-0.18793011117005343,5.216219423331816,3.1691250765068384,-8.089928928635349,11.518855722666503
6.418025280614431,-0.2688294004564069,5.247910674096885,3.2843136337335035,-8.59397336979897,11.846616282738925
6.4153369866098675,-0.3547691341543966,5.28075381043422,3.4027797965608926,-9.12173410554201,12.227367470399573
6.411789295268323,-0.4459864752098167,5.314781608399829,3.525053471264888,-9.675045641162468,12.666364802517718
6.407329430516225,-0.5427369316214414,5.350032143112478,3.6517171192900655,-10.255518359030415,13.168681820876316
6.401902061200011,-0.6452921152117456,5.386549314305379,3.7834039374988286,-10.864186325036268,13.738775755450215
6.395449140047893,-0.7539339784621082,5.4243833536803665,3.920791695053331,-11.500942203293588,14.379774884982439
6.387909800263272,-0.868943400495044,5.4635912706309,4.064589443903155,-12.163648246021491,15.092335727975625
6.379220366258322,-0.990579882955259,5.504237165069932,4.2155128011829115,-12.846760677914784,15.872845474931761
6.369314567428769,-1.119047489734407,5.546392293081761,4.374241255932229,-13.539237048640693,16.7106485136647
6.358124092531425,-1.2544398602208138,5.590134705641083,4.541347741068876,-14.221418993022839,17.583863579585536
6.345579693929217,-1.3966540501510423,5.635548183051772,4.717186376864731,-14.860524694794593,18.453267414731183
6.331613153427707,-1.5452592970989882,5.682720046820419,4.901719051012043,-15.404425156206573,19.253758670014214
6.3161605604567175,-1.699303548661054,5.73173723733054,5.094256637712186,-15.773698138002533,19.88333161483692
6.299167524970107,-1.8570405300410793,5.782679803707662,5.293089953860555,-15.852910121739614,20.19077656612948
6.280597119669697,-2.0155696312584754,5.835610703246267,5.49499771952185,-15.48422647567002,19.966259939375977
6.260441423357112,-2.1704118960151755,5.890560680441486,5.694660318915609,-14.470285249738952,18.944223710605648
6.2387373043969605,-2.315114748512565,5.947507283630642,5.8841025560216655,-12.598119068959498,16.834792998682996
6.215586156911835,-2.4410959392021603,6.006348309190859,6.052450486008495,-9.697517238280703,13.402251023507057
6.191175197519813,-2.5380711115849675,6.066872814050944,6.186472996243566,-5.735741921602771,8.593527797717213
6.165794486403963,-2.5954285308009952,6.128737544013379,6.272408274220738,-0.9167031418853318,2.673219173177045
6.139840201095954,-2.6045955622198487,6.191461626755586,6.299140465952509,4.289056073181416,-3.7357505077348807
6.1137942454737555,-2.5617050014880345,6.254453031415111,6.26178296087516,9.2515905215872,-9.79869187917942
6.088177195458875,-2.4691890962721623,6.317070861023863,6.163796042083366,13.3992746459858,-14.765196440785871
6.063485304496153,-2.3351963498123043,6.378708821444697,6.016144077675507,16.411307784556367,-18.228014649421077
6.04013334099803,-2.1710832719667406,6.438870262221452,5.833863931181296,18.264536678598915,-20.181357457488303
6.018422508278363,-1.9884379051807515,6.4972089015332655,5.632050356606412,19.143424965540234,-20.893856243001434
5.998538129226555,-1.7970036555253492,6.553529405099329,5.423111794176398,19.3101920105226,-20.730640403008746
5.980568092671302,-1.6039017354201233,6.607760523041093,5.21580539014631,19.01170721335339,-20.028382702302014
5.964529075317101,-1.4137846632865894,6.659918576942556,5.01552156312329,18.43957926374735,-19.04384965680903
5.950391228684235,-1.2293888706491158,6.710073792573789,4.8250830665552,17.72603848034573,-17.950830028524376
5.938097339977744,-1.0521284858456585,6.758324623239341,4.645574766269956,16.95505525678994,-16.856942616174308
5.927576055119287,-0.8825779332777591,6.804780370902041,4.477005340108213,16.17629843569368,-15.823519487352435
5.918750275786509,-0.7208149489208223,6.849550424303123,4.318770145234688,15.41690913714685,-14.881979173208137
5.911542126297301,-0.5666458575493538,6.89273812575547,4.169950353502607,14.69001213646907,-14.045455515673934
5.905875667721808,-0.4197457361846631,6.934437629290496,4.0294957983458675,14.000395419094247,-13.316426199674572
5.901678210359961,-0.27974178199372063,6.974732587273955,3.8963315363491215,13.348124930796018,-12.691476464569824
5.898880792540024,-0.14626053268576045,7.013695902637447,3.7694167717034235,12.730774113380525,-12.164170310178154
5.897418187213166,-0.0189527915519552,7.051390070354481,3.647775068601642,12.144765703962053,-11.726728085356626
5.897228659297646,0.10249486548766533,7.087867821040497,3.5305077877480757,11.58615986311146,-11.370973460856803
5.8982536079525225,0.21835646411877993,7.123172898917978,3.416798053139508,11.051102945480991,-11.088843262773358
5.90043717259371,0.32886749357358985,7.1573408794493725,3.305909620511774,10.536070859840384,-10.872641392296046
5.903725847529446,0.4342282021719937,7.19039997565449,3.1971832065888135,10.037989422924161,-10.715146847559703
5.908068129551166,0.5346080964012353,7.222371807720378,3.0900317381132165,9.554281879317237,-10.609641755463853
5.913414210515179,0.6301509151944077,7.2532721251015095,2.983935320558578,9.082873899566797,-10.549898374598609
5.919715719667123,0.7209796541900757,7.283111478307095,2.878436336812592,8.62217424697616,-10.53014770435521
5.926925516209024,0.8072013966598373,7.311895841675221,2.7731348597690397,8.171041957943666,-10.545042500262587
5.934997530175622,0.888911816239274,7.339627190272911,2.667684434766414,7.728746460785406,-10.589621601759339
5.943886648338014,0.966199280847128,7.366304034620575,2.5617882187488203,7.294924421370413,-10.659278970754892
5.953548641146486,1.039148525060832,7.391921916808063,2.4551954290412716,6.869535549287287,-10.749738774945202
5.963940126397094,1.107843880553705,7.416473871098476,2.3476980412918196,6.4528186959855764,-10.85703665942805
5.975018565202631,1.1723720675135607,7.439950851511394,2.239127674697539,6.045249063312172,-10.977506689835232
5.986742285877766,1.2328245581466823,7.46234212825837,2.129352607799187,5.647497056153678,-11.107773112089573
5.999070531459233,1.2892995287082192,7.483635654336362,2.018274876678291,5.260389158355481,-11.244745931954512
6.011963526746315,1.341903420291774,7.5038184031031445,1.9058274173587462,4.88487112732587,-11.38561929491017
6.025382560949232,1.3907521315650326,7.522876677276732,1.7919712244096444,4.521973754367076,-11.5278716962638
6.039290082264883,1.4359718691087033,7.540796389520828,1.6766925074470065,4.172781404324504,-11.669267143286532
6.05364980095597,1.4776996831519484,7.557563314595298,1.5599998360141412,3.8384035183562792,-11.807856506826903
6.06842679778749,1.5160837183355111,7.573163312955439,1.4419212709458722,3.519949231894318,-11.941978427113856
6.083587634970845,1.5512832106544543,7.5875825256648985,1.3225014866747336,3.218505223977486,-12.070259269212828
6.09910046707739,1.5834682628942292,7.600807540531646,1.2017988939826052,2.9351168738063875,-12.191611752273632
6.114935149706333,1.612819431632293,7.612825529471472,1.0798827764598689,2.670772756337154,-12.305231999370037
6.131063344022656,1.6395271591956646,7.6236243572360705,0.9568304564661685,2.4263924621772897,-12.410594868483118
6.147458615614613,1.6637910838174375,7.633192661800732,0.8327245077813373,2.202817679227669,-12.507447527779432
6.164096526452787,1.6858192606097142,7.641519906878545,0.7076500325035431,2.0008064255433813,-12.595801327910625
6.180954719058884,1.705827324865148,7.648596407203581,0.5816920192244368,1.821030275577154,-12.675922098900504
6.198012992307536,1.7240376276209197,7.654413327395825,0.45493279823543176,1.6640743757237404,-12.748319057553177
6.215253368583745,1.740678371378157,7.658962655378179,0.3274496076599,1.530439999766937,-12.81373255127647
6.232660152297527,1.7559827713758265,7.662237151454778,0.1993122821471353,1.42054934962112,-12.873120883438476
6.250219980011285,1.7701882648720377,7.66423027427625,0.07058107331275054,1.3347522599423736,-12.927646460886441
6.267921862660005,1.7835357874714615,7.664936085009377,-0.05869539129611387,1.2733344138685652,-12.978661472084937
6.28575722053472,1.7962691316101471,7.664349131096416,-0.18848200601696324,1.2365266168684323,-13.02769323900388
6.303719911850821,1.8086343977788315,7.6624643110362465,-0.3187589384070021,1.2245145998528983,-13.07642927970164
6.3218062558286094,1.8208795437773604,7.659276721652176,-0.4495232312040185,1.2374487218647154,-13.126701960508353
6.340015051266383,1.8332540309960075,7.654781489340136,-0.5807902508091021,1.2754528034233727,-13.180472391024432
6.358347591576344,1.8460085590302413,7.648973586832045,-0.7125949747193464,1.3386311251743919,-13.239812899090543
6.376807677166646,1.8593948702819851,7.641847637084852,-0.8449931037102518,1.4270723466665325,-13.306886983863087
6.395401625869465,1.8736655937486504,7.63339770604775,-0.9780619735488827,1.5408487004354334,-13.383925036619578
6.4141382818069514,1.8890740807530046,7.623617086312261,-1.1119012239150785,1.6800082467044577,-13.47319327500747
6.433029022614481,1.9058741632200493,7.61249807407311,-1.2466331566651532,1.8445571645862595,-13.576952164679355
6.452087764246682,1.924319734865912,7.6000317425064585,-1.3824026783119467,2.0344279122128364,-13.697398974644013
6.471330961595341,1.9446640139880405,7.586207715723339,-1.519376668058387,2.2494274840375956,-13.836586855331547
6.490777601735221,1.9671582888284165,7.571013949042755,-1.6577425366117025,2.4891577630361272,-13.996309711525303
6.510449184623505,1.9920498664587778,7.554436523676638,-1.7977056337269555,2.7528969014210514,-14.177937875242483
6.530369683288093,2.019578835472988,7.536459467339369,-1.9394850124793803,3.0394265259767437,-14.38218382555875
6.550565471642823,2.0499731007327555,7.517064617214575,-2.0833068507349677,3.346784118616596,-14.608769612013251
6.571065202650151,2.0834409419189215,7.496231548707225,-2.2293945468551,3.6719130396667388,-14.8559580082531
6.59189961206934,2.120160072315589,7.473937603238674,-2.377954126937631,4.010174541161317,-15.119897986188315
6.613101212792496,2.160261817727202,7.450158061969298,-2.529153106799514,4.354677754183248,-15.393723167947904
6.634703830969768,2.2038085952690345,7.424866530901303,-2.6830903384789933,4.695377704682752,-15.666333096039178
6.656741916922458,2.250762372315862,7.398035627516514,-2.8397536694393852,5.01789386022927,-15.920789572248305
6.679249540645617,2.3009413109181547,7.36963809082212,-2.9989615651618684,5.302024313766969,-16.132290132632583
6.702258953754798,2.3539615540558243,7.339648475170501,-3.160284466488194,5.519994623175454,-16.265767149344075
6.725798569295357,2.409161500287579,7.308045630505619,-3.322942137981635,5.634619381641655,-16.27335097423492
6.749890184298232,2.4655076941039957,7.274816209125802,-3.485675647723984,5.597813870701603,-16.092291711469013
6.774545261239273,2.521485832811012,7.239959452648563,-3.646598564838674,5.350311385678318,-15.644511025159632
6.799760119567383,2.574988946667795,7.203493467000176,-3.8030436750902705,4.82399645788836,-14.83972271969887
6.825510009034061,2.6232289112466787,7.165463030249273,-3.9514409022872594,3.948755951563293,-13.584743584632484
6.851742298146528,2.6627164707623114,7.1259486212264,-4.087288338133584,2.6656466229980103,-11.801476499608007
6.878369462854151,2.6893729369922914,7.085075737845065,-4.205303103129665,0.9465841691030035,-9.453844069800713
6.905263192224074,2.6988387786833212,7.043022706813768,-4.299841543827672,-1.1830826772680307,-6.578633234881242
6.932251580010907,2.687007951910641,7.0000242913754915,-4.365627876176484,-3.6280789799332562,-3.3078433770716655
6.959121659530013,2.650727162111308,6.956368012613726,-4.398706309947201,-6.224833515758114,0.13407838150583765
6.985628931151126,2.588478826953727,6.9123809495142545,-4.397365526132143,-8.768657464797071,3.46823661204508
7.011513719420663,2.5007922523057564,6.8684072942529335,-4.362683160011692,-11.060482021400972,6.42598182029295
7.036521641943721,2.390187432091747,6.824780462652817,-4.298423341808763,-12.953547474529294,8.812972103634587
7.060423516264638,2.260651957346454,6.78179622923473,-4.2102936207724175,-14.379173647416415,10.543790772067549
7.083030035838103,2.1168602208722898,6.739693293027005,-4.104855713051742,-15.344012666258392,11.63696035735296
7.104198638046826,1.9634200942097058,6.698644735896488,-3.9884861094782122,-15.907175876956044,12.182380335929738
7.123832838988923,1.8043483354401453,6.658759874801706,-3.866662306118915,-16.152126188440533,12.30201083168333
7.141876322343324,1.64282707355574,6.620093251740516,-3.7436421978020817,-16.16433630472815,12.11898151515892
7.158304593078881,1.4811837105084584,6.582656829762495,-3.6224523826504926,-16.01838560344784,11.740024639821545
7.173116430183966,1.32099985447398,6.546432305935991,-3.505052136252277,-15.773095205034224,11.249111118521848
7.186326428728706,1.1632689024236378,6.511381784573468,-3.3925610250670584,-15.471633102175113,10.707928816121822
7.1979591177529425,1.0085525714018866,6.477456174322797,-3.2854817369058402,-15.143910804980267,10.159450080095274
7.208044643466962,0.8571134633520839,6.444601356953739,-3.1838872361048876,-14.809585386822224,9.632251905241525
7.216615778100483,0.7090176094838617,6.41276248459269,-3.0875647170524725,-14.480834899540444,9.144452639458438
7.223705954195322,0.5642092604884573,6.381886837422165,-2.996120190657888,-14.16460889078227,8.706871661797047
7.229348046800206,0.4225631715806346,6.351925635515586,-2.9090514740399174,-13.864325697127558,8.325389469272448
7.233573678516013,0.28391991460935906,6.322835120775188,-2.825797579347193,-13.581096656277916,8.002631474529375
