th1 (rad),w1 (rad/s),th2 (rad),w2 (rad/s),a1 (rad/s^2),a2 (rad/s^2)
5.49858827531112,2.6175387643461465,5.472899369943786,2.6131831677315,6.39502896157759,0.8830155595839636
5.524763662954582,2.6814890539619225,5.499031201621101,2.6220133233273395,6.195754986905107,0.9123222513200065
5.551578553494201,2.7434466038309737,5.525251334854374,2.6311365458405396,5.975249900581665,0.961689628813962
5.5790130195325105,2.8031991028367904,5.55156270031278,2.640753442128679,5.73309022512052,1.031908346041407
5.607045010560879,2.8605300050879956,5.5779702347340665,2.6510725255890932,5.469066021336801,1.1234567427418998
5.635650310611759,2.9152206653013635,5.604480959989957,2.662307093016512,5.183206144255422,1.2364549796725066
5.664802517264772,2.9670527267439177,5.631104030920122,2.674671642813237,4.875801136785049,1.3706234738843905
5.694473044532211,3.0158107381117683,5.657850747348254,2.688377877552081,4.547422610327742,1.5252479141286543
5.724631151913329,3.0612849642150457,5.684734526123775,2.7036303566933673,4.198937930128744,1.699153186240263
5.755244001555479,3.103274343516333,5.7117708296907095,2.72062188855577,3.8315190758882998,1.8906884267603141
5.786276744990642,3.141589534275216,5.738977048576267,2.739528772823373,3.4466446976509,2.097725127232665
5.8176926403333935,3.1760559812517246,5.7663723363045,2.7605060240956996,3.046094636556477,2.3176697250668634
5.849453200145911,3.2065169276172893,5.793977396545458,2.783682721346368,2.6319365208360654,2.547491454269525
5.881518369422084,3.23283629282565,5.821814223758921,2.8091576358890635,2.2065044572059223,2.7837654288658906
5.913846732350341,3.2549013373977096,5.849905800117812,2.8369952901777222,1.772370281733945,3.0227300540020257
5.946395745724318,3.272625040215049,5.878275753019589,2.8672225907177427,1.3323082681966978,3.2603569823690384
5.9791219961264686,3.285948122897016,5.906947978926767,2.899826160541433,0.8892545679588667,3.4924310430705776
6.011981477355438,3.2948406685766045,5.935946240532181,2.934750470972139,0.4462629286428193,3.7146369498529266
6.0449298840412045,3.2993032978630326,5.965293745241903,2.9718968404706683,0.006458374737183894,3.9226492143368055
6.077922917019835,3.2993678816104044,5.995012713646609,3.0111233326140363,-0.4270094864712228,4.112221590748388
6.110916595835939,3.2950977867456923,6.02512394697275,3.0522455485215203,-0.8510120441422726,4.279272572672691
6.143867573703396,3.2865876663042695,6.055646402457965,3.0950382742482474,-1.2624849651201606,4.419963926538244
6.176733450366439,3.273962816653068,6.086596785200448,3.1392379135136297,-1.6584683938713336,4.53076992735217
6.2094730785329695,3.2573781327143547,6.117989164335584,3.184545612787151,-2.0361437309086288,4.608535783527175
6.242046859860113,3.2370166954052686,6.149834620463455,3.230630970622423,-2.3928670809326027,4.650524611470307
6.274417026814166,3.2130880245959426,6.1821409301696795,3.277136216737126,-2.726199829662467,4.6544531583475575
6.306547907060125,3.185826026299318,6.214912292337051,3.3236807483206015,-3.0339370690434664,4.618517193841567
6.338406167323118,3.1554866556088834,6.248149099820257,3.3698659202590173,-3.3141347136779133,4.541408036085023
6.369961033879207,3.1223453084721045,6.281847759022847,3.4152800006198674,-3.5651361210836336,4.422322001147049
6.401184486963928,3.086693947261268,6.316000559029046,3.459503220631338,-3.7855988436109467,4.260964649033256
6.432051426436541,3.0488379588251586,6.3505955912353595,3.5021128671216704,-3.9745218130534505,4.057551542553349
6.462539806024792,3.009092740694624,6.385616719906576,3.5426883825472038,-4.131272814816878,3.8128068581801218
6.492630733431739,2.9677800125464553,6.4210436037320475,3.580816451129005,-4.2556155824798205,3.5279606272374013
6.5223085335572035,2.925223856721657,6.456851768243338,3.616096057401379,-4.347735281189528,3.2047446947847673
6.55156077212442,2.8817465039097616,6.493012728817352,3.6481435043492265,-4.408260604335153,2.8453867311576664
6.580378237163518,2.83766389786641,6.529494163860844,3.676597371660803,-4.438280244993574,2.452600899803246
6.608754876142182,2.7932810954164746,6.566260137577451,3.7011233806588355,-4.439351189445251,2.029573167667128
6.636687687096347,2.748887583522022,6.603271371384039,3.7214191123355067,-4.413496181943943,1.5799388373961811
6.6641765629315675,2.704752621702583,6.640485562507394,3.7372185007094685,-4.3631878864690705,1.1077497734230106
6.6912240891485935,2.661120742837892,6.677857747514489,3.7482959984436985,-4.2913177611974875,0.6174290545773087
6.717835296576973,2.618207565225917,6.7153407074989255,3.7544702889894714,-4.2011484717937915,0.11371144457189654
6.744017372229232,2.5761960805079793,6.75288541038882,3.7556074034351905,-4.09624976478648,-0.3984308934456434
6.769779333034312,2.5352335828601147,6.790441484423171,3.7516230945007343,-3.9804190187540174,-0.9138766841786066
6.795131668862913,2.4954293926725746,6.8279577153681785,3.742484327658948,-3.857589060091082,-1.427455596862924
6.820085962789639,2.456853502071664,6.865382558644768,3.728209771690319,-3.731727110894992,-1.934056397739491
6.844654497810356,2.419536230962714,6.902664656361671,3.708869207712924,-3.6067297586885134,-2.428738326142553
6.868849860119983,2.383468933375829,6.939753348438801,3.6845818244514987,-3.4863194504232218,-2.906840053630442
6.892684549453741,2.348605738871597,6.976599166683316,3.6555134239151945,-3.3739481140722973,-3.3640803806322546
6.916170606842457,2.314866257730874,7.013154300922468,3.621872620108872,-3.272713068087144,-3.7966452342692256
6.939319269419766,2.2821391270500024,7.049373027123557,3.58390616776618,-3.185289439218285,-4.201256510125796
6.962140660690266,2.2502862326578197,7.085212088801218,3.541893602664922,-3.1138819918695098,-4.575219718155349
6.984643523016844,2.2191474127391246,7.120631024827867,3.4961414054833684,-3.0601977466954136,-4.916449055226443
7.006834997144235,2.1885454352721707,7.155592438882701,3.446976914931104,-3.0254392212138654,-5.223470216251898
7.028720451496957,2.158291043060032,7.190062208032012,3.394742212768585,-3.010316735939243,-5.495402769759968
7.050303361927558,2.1281878757006396,7.224009630159698,3.339788185070985,-3.015077130698129,-5.73192510719531
7.0715852406845645,2.0980371043936583,7.257407512010408,3.282468933999032,-3.0395455057794374,-5.933225739917164
7.092565611728501,2.067641649335864,7.290232201350398,3.2231366765998604,-3.0831762602720945,-6.099945045710502
7.11324202822186,2.036809886733143,7.3224635681163965,3.162137226142755,-3.1451097126483982,-6.233111499684735
7.133610127089192,2.005358789606659,7.354084940377824,3.0998061111459076,-3.224230887268309,-6.334076046203073
7.153663714985258,1.9731164807339758,7.385083001489283,3.036465350683877,-3.3192275473899486,-6.4044476823241965
7.173394879792598,1.9399242052600763,7.415447654996122,2.972420873860635,-3.428645160761287,-6.446032632836097
7.192794121845199,1.9056377536524634,7.445171863734728,2.907960547532274,-3.5509371185424796,-6.460778791946799
7.211850499381724,1.8701283824670385,7.474251469210051,2.843352759612806,-3.6845091304223563,-6.450726454546147
7.230551783206394,1.833283291162815,7.502684996806179,2.7788454950673445,-3.827757246822905,-6.417965803676955
7.248884616118023,1.7950057186945858,7.530473451756853,2.7146658370305747,-3.9790993906411423,-6.3646011809872185
7.2668346733049685,1.7552147247881744,7.557620110127159,2.6510198252207027,-4.137000609455516,-6.292721846064826
7.28438682055285,1.7138447186936192,7.584130308379366,2.5880926067600543,-4.299992489409456,-6.2043787187798385
7.301525267739787,1.6708447937995246,7.610011234446966,2.5260488195722557,-4.466687316173827,-6.101566478914474
7.318233715677782,1.6261779206377862,7.635271722642688,2.465033154783111,-4.6357876421419375,-5.986210349328215
7.33449549488416,1.5798200442163668,7.6599220541905195,2.4051710512898286,-4.806091938784318,-5.8601568927408
7.350293695326323,1.5317591248285236,7.683973764703418,2.3465694823624204,-4.976496994302217,-5.7251681901116855
7.365611286574609,1.4819941548855013,7.707439459527042,2.2893178004613035,-5.145997672688844,-5.582918825886211
7.380431228123464,1.430534178158613,7.730332637531655,2.2334886122024415,-5.313684591814339,-5.43499517082966
7.39473656990505,1.3773973322404696,7.752667523653679,2.1791386604941447,-5.478740213403886,-5.282896518800038
7.408510543227455,1.3226099301064307,7.774458910258621,2.126309695306144,-5.640433772644738,-5.1280376944562525
7.421736642528519,1.2662055923799833,7.795722007211682,2.0750293183615818,-5.798115413509908,-4.971752801679972
7.434398698452319,1.2082244382448841,7.816472300395298,2.025311790344782,-5.951209839992557,-4.815299826265834
7.446480942834768,1.1487123398449586,7.836725418298746,1.9771587920821236,-6.099209744343933,-4.659865841312451
7.457968066233217,1.0877202424015193,7.856497006219567,1.930560133668999,-6.241669231234026,-4.5065725906763285
7.468845268657232,1.0253035500891792,7.875802607556257,1.8854944077622358,-6.3781974210170205,-4.356482246298202
7.479098304158124,0.961521575879009,7.8946575516338795,1.8419295852992537,-6.5084523850811085,-4.210603150919576
7.488713519916914,0.8964370520281979,7.913076847486872,1.799823553790058,-6.63213554045777,-4.069895370512719
7.4976778904371955,0.8301156966236202,7.931075083024773,1.7591246000849308,-6.74898660821535,-3.9352758924545514
7.505979047403431,0.7626258305414667,7.948666329025622,1.7197718411603853,-6.85877921942237,-3.8076233177589773
7.513605305708846,0.694038038347243,7.9658640474372255,1.6816956079827956,-6.961317232472889,-3.6877819100184026
7.520545686092318,0.6244248660225141,7.982681003517054,1.6448177888826117,-7.05643180530673,-3.5765648813054955
7.526789934752544,0.5538605479694468,7.99912918140588,1.6090521400695568,-7.143979244728015,-3.4747568170424854
7.532328540232238,0.4824207555221667,8.015219702806576,1.574304571899132,-7.223839632087552,-3.383115168274842
7.53715274778746,0.41018235920129115,8.030962748525567,1.5404734202163834,-7.295916199822189,-3.3023707709752754
7.541254571379473,0.33722319720306926,8.046367482727732,1.5074497125066306,-7.360135406858969,-3.233227387566177
7.544626803351504,0.26362184313447956,8.061441979852798,1.475117438630969,-7.416447633190401,-3.1763603048858036
7.5472630217828485,0.18945736680257555,8.076193154239109,1.443353835582111,-7.464828385878294,-3.132414063926644
7.5491575954508745,0.1148090829437926,8.09062669259493,1.4120296949428446,-7.505279881565332,-3.1019994379446163
7.550305686280312,0.039756284128139294,8.104746989544358,1.3810097005633983,-7.537832845771003,-3.0856898146672043
7.550703249121594,-0.03562204432957074,8.118557086549991,1.3501528024167262,-7.562548348515174,-3.0840171727235703
7.550347028678298,-0.11124752781472247,8.132058614574158,1.3193126306894905,-7.579519480896292,-3.0974678693832822
7.549234553400151,-0.18704272262368538,8.145251740881053,1.2883379519956577,-7.588872669788068,-3.1264784736480435
7.547364126173914,-0.2629314493215661,8.15813512040101,1.2570731672591773,-7.590768429150772,-3.1714318834973767
7.544734811680699,-0.33883913361307383,8.170705852073601,1.2253588484242035,-7.585401357448397,-3.2326539570876043
7.541346420344568,-0.4146931471875578,8.182959440557843,1.1930323088533275,-7.572999211556779,-3.3104108642613195
7.537199488872693,-0.4904231393031256,8.194889763646376,1.1599282002107143,-7.553820917837571,-3.404907327203034
7.532295257479661,-0.5659613484815013,8.206489045648484,1.1258791269386839,-7.528153419457634,-3.5162858689653125
7.5266356439948465,-0.6412428826760777,8.217747836917871,1.0907162682490308,-7.496307303543669,-3.644627128466665
7.520223215168086,-0.7162059557115144,8.228654999600362,1.054269996964364,-7.4586111997705,-3.7899512339439423
7.513061155610971,-0.7907920677092194,8.239197699570006,1.0163704846249246,-7.415404990503685,-3.952220157903809
7.5051532349338785,-0.8649461176142562,8.249361404416256,0.9768482830458866,-7.367031918557681,-4.131340909847785
7.496503773757736,-0.9386164367998331,8.259129887246715,0.9355348739474088,-7.313829719088749,-4.327169362831471
7.487117609389737,-1.0117547339907205,8.268485235986189,0.892263180319094,-7.2561209346936035,-4.539514460163936
7.4770000620498305,-1.0843159433376566,8.27740786778938,0.8468680357174546,-7.19420259572873,-4.768142512331207
7.466156902616454,-1.156257969294944,8.285876548146554,0.7991866105941425,-7.128335460380248,-5.012781273548676
7.454594322923505,-1.2275413238987465,8.293868414252495,0.7490587978586558,-7.058733011226231,-5.27312348305002
7.442318909684517,-1.2981286540110089,8.301359002231083,0.6963275630281556,-6.985550397977078,-5.548829567998995
7.4293376231444075,-1.3679841579907797,8.308322277861365,0.6408392673481657,-6.908873501568755,-5.839529231472264
7.4156577815645,-1.4370728930064671,8.314730670534846,0.582443975033443,-6.828708275211522,-6.144821688273566
7.401287052634435,-1.5053599757585823,8.32055511028518,0.5209957581507074,-6.744970496093237,-6.464274360938845
7.38623345287685,-1.5728096807195147,8.325765067866687,0.456353014541319,-6.657476040016102,-6.79741990560529
7.370505356069654,-1.6393844411196756,8.3303285980121,0.3883788154852661,-6.565931772973481,-7.14375150004879
7.3541115116584574,-1.7050437588494105,8.334212386166953,0.3169413004847782,-6.469927140866105,-7.5027163921591145
7.337061074069964,-1.7697430302580717,8.337381799171801,0.24191413656318705,-6.368926533038249,-7.8737077749875235
7.3193636437673835,-1.833432295588454,8.339800940537433,0.16317705881331182,-6.262262498319381,-8.256055123444265
7.301029320811499,-1.896054920571648,8.341432711125567,0.08061650757886918,-6.1491299043855845,-8.649013197492298
7.282068771605783,-1.9575462196155038,8.342238876201355,-0.005873624396053809,-6.028581152461709,-9.051749987487534
7.262493309409628,-2.017832031140121,8.342180139957394,-0.09639112427092915,-5.899522588987821,-9.463333949646875
7.242314989098227,-2.0768272570299993,8.341216228714686,-0.1910244637673979,-5.760712292574754,-9.882720954041691
7.221546716527927,-2.1344343799557466,8.339305984077011,-0.2898516733078148,-5.6107594564778225,-10.308741444396302
7.200202372728369,-2.190541974520525,8.336407467343934,-0.3929390877517778,-5.448125631439998,-10.740088388272087
7.178296952983164,-2.2450232308349247,8.332478076466415,-0.5003399716344987,-5.271128138020865,-11.175306677223235
7.155846720674814,-2.2977345122151336,8.32747467675007,-0.6120930384067311,-5.077945997764173,-11.612784717622127
7.132869375552663,-2.3485139721927752,8.321353746366002,-0.7282208855829524,-4.8666287644952115,-12.050749031411678
7.109384235830736,-2.3971802598377274,8.314071537510173,-0.8487283758970692,-4.6351086558292005,-12.487262758209535
7.085412433232358,-2.4435313463960195,8.305584253751203,-0.9736010034791646,-4.381216385236842,-12.920229010896527
7.060977119768398,-2.487343510248388,8.295848243716412,-1.1028032935881298,-4.102701070961764,-13.347400079821917
7.036103684665914,-2.528370520958006,8.28482021078053,-1.236277294386349,-3.7972545437002725,-13.76639349878478
7.0108199794563335,-2.5663430663950084,8.272457437836668,-1.3739412293741968,-3.46254028428466,-14.17471597101984
6.985156548792383,-2.600968469237855,8.258718025542926,-1.5156883890843953,-3.096227090166654,-14.569796097277758
6.9591468641000045,-2.6319307401395218,8.243561141652082,-1.6613863500571728,-2.696027390776326,-14.949026742843209
6.9328275566986095,-2.6588910140472852,8.22694727815151,-1.810876617485605,-2.259739903961421,-15.309817719211013
6.906238646558137,-2.6814884130868992,8.208838511976653,-1.963974794677715,-1.7852960482059703,-15.649659234426677
6.879423762427268,-2.699341373568959,8.189198764029875,-2.120471387021982,-1.2708092009173082,-15.966196282169857
6.852430348691579,-2.712049465578132,8.167994050159656,-2.2801333498436804,-0.7146255285805733,-16.257313796054667
6.8253098540357975,-2.719195720863938,8.145192716661219,-2.442706487804227,-0.11537472177379442,-16.52123200005585
6.798117896827158,-2.7203494680816758,8.120765651783177,-2.6079188078047855,0.527981435629859,-16.75661095214957
6.770914402146341,-2.715069653725377,8.094686463705129,-2.775484917326281,1.2161051245587664,-16.962662826304875
6.743763705609088,-2.7029086024797895,8.066931614531866,-2.94511154558933,1.9492459852942925,-17.13927003419186
6.71673461958429,-2.6834161426268466,8.037480499075972,-3.1165042459312486,2.7272151252844217,-17.28710688370411
6.6899004581580215,-2.656143991374002,8.00631545661666,-3.28937531476829,3.549372861428364,-17.407762140339866
6.663339018244281,-2.6206502627597184,7.973421703468977,-3.4634529361716884,4.414633389886588,-17.503859631164744
6.637132515616684,-2.5765039288608524,7.938787174107261,-3.638491532483336,5.321489320208652,-17.57917393141998
6.611367476328075,-2.523289035658766,7.902402258782427,-3.8142832717975357,6.2680584628248335,-17.638738201859784
6.586134585971488,-2.4606084510305175,7.864259426064452,-3.9906706538161334,7.252154343815529,-17.688941363652486
6.561528501461183,-2.388086907592362,7.82435271952629,-4.1675600674526585,8.271380539241555,-17.737611906628675
6.5376476323852595,-2.3053731021999466,7.782677118851764,-4.344936186518945,9.323246929516559,-17.79408552264693
6.51459390136326,-2.2121406329047812,7.739227756986574,-4.5228770417454145,10.40530314460498,-17.869253072282554
6.492472495034212,-2.1080876014587315,7.69399898656912,-4.70156957246824,11.515280421873578,-17.97558350283282
6.471391619019625,-1.9929347972399958,7.646983290844438,-4.881325407496568,12.651227176490703,-18.12711219286655
6.451462271047225,-1.8664225254750888,7.5981700367694724,-5.0625965294252335,13.811614665098089,-18.33937707678304
6.432798045792474,-1.728306378824108,7.54754407147522,-5.245990300193064,14.995375287201,-18.629269960889975
6.4155149820042325,-1.578352625952098,7.495084168473289,-5.432282999801964,16.201814076654546,-19.01474401030798
6.399731455744711,-1.4163344851855524,7.440761338475269,-5.6224304399050435,17.430298412812725,-19.514272819200027
6.385568110892856,-1.2420315010574252,7.384537034076219,-5.817573168097044,18.67957320827623,-20.14587941205104
6.373147795882281,-1.055235768974663,7.326361302395249,-6.0190319622175545,19.94645516542727,-20.925425496494523
6.3625954381925345,-0.8557712173203903,7.266170982773073,-6.2282862171825,21.22351013789154,-21.863643311073044
6.354037726019331,-0.6435361159414749,7.203888120601248,-6.446922650293231,22.495086665582654,-22.96106624803001
6.347602364859916,-0.41858524928564833,7.139418894098315,-6.676533312773531,23.730745103602672,-24.199534469532097
6.343416512367059,-0.18127779824962162,7.07265356097058,-6.918528657468852,24.874705345777055,-25.52833328189544
6.341603734384563,0.06746925520814895,7.003468274395892,-7.173811990287806,25.829606121256717,-26.842476826489772
6.342278426936645,0.3257653164207161,6.931730154493014,-7.442236758552704,26.43321143402216,-27.950952794866076
6.345536080100851,0.5900974307609377,6.857307786907487,-7.721746286501364,26.429259531342606,-28.53598694267498
6.351437054408461,0.8543900260743638,6.780090324042473,-8.007106155928113,25.441628536494925,-28.11497568048907
6.359980954669204,1.108806311439313,6.700019262483192,-8.288255912733003,22.978713762601636,-26.040748452001775
6.371069017783597,1.3385934490653293,6.617136703355862,-8.548663397253021,18.521123006097532,-21.611933057692617
6.38445495227425,1.5238046791263047,6.531650069383332,-8.764782727829948,11.753420391507978,-14.376852643829027
6.399692999065514,1.6413388830413844,6.444002242105032,-8.908551254268238,2.9181127980417925,-4.60380004477218
6.416106387895928,1.6705200110218024,6.354916729562349,-8.954589254715959,-6.944312783277068,6.399602820517514
6.432811588006146,1.6010768831890316,6.2653708370151895,-8.890593226510784,-16.23732909977819,16.61203748303761
6.448822356838036,1.4387035921912497,6.176464904750081,-8.724472851680408,-23.545082441479682,24.277872843525415
6.463209392759949,1.2032527677764528,6.089220176233277,-8.481694123245154,-28.268888830533918,28.73276404421854
