th1 (rad),w1 (rad/s),th2 (rad),w2 (rad/s),a1 (rad/s^2),a2 (rad/s^2)
5.262384313604424,1.9984938959406322,1.0083843884806347,2.559323959818921,9.605408497620205,-7.621753813311789
5.28236925256383,2.0945479809168344,1.033977628078824,2.483106421685803,9.162951081889357,-8.244152212314615
5.303314732372999,2.186177491735728,1.058808692295682,2.4006648995626567,8.707143236861214,-8.882177383799648
5.325176507290356,2.27324892410434,1.0828153412913086,2.31184312572466,8.241045427636633,-9.530952814723129
5.3479089965314,2.355659378380706,1.1059337725485552,2.216533597577429,7.768040933432985,-10.185539877740894
5.371465590315207,2.433339787715036,1.1280991085243295,2.11467819880002,7.291799344461853,-10.84099749520834
5.395798988192357,2.5062577811596545,1.1492458905123297,2.0062682238479366,6.816236221129454,-11.492448051543473
5.420861566003954,2.574420143370949,1.169308572750809,1.8913437433325018,6.345468943425225,-12.135149503525184
5.446605767437664,2.637874832805201,1.188222010184134,1.7699922482972499,5.88376890906985,-12.764573443067327
5.472984515765716,2.696712521895899,1.2059219326671067,1.6423465138665767,5.435510469463816,-13.376488537750916
5.4999516409846745,2.751067626590537,1.2223453978057723,1.5085816284890676,5.005117321270454,-13.967048333595885
5.5274623172505795,2.8011187998032416,1.237431214090663,1.3689111451531089,4.597007480595839,-14.53288189822198
5.555473505248612,2.8470888746092,1.251120325542194,1.2235823261708891,4.215538422187373,-15.07118527693879
5.583944393994704,2.8892442588310736,1.263356148803903,1.0728704734015013,3.8649544210502578,-15.57981130908196
5.612836836583015,2.927893803041576,1.274084853537918,0.9170723603106817,3.549338534491459,-16.05735509011522
5.642115774613431,2.9633871883864904,1.2832555771410248,0.7564988094095295,3.2725719554984187,-16.503232341064557
5.671749646497296,2.9961129079414746,1.2908205652351201,0.591466485998884,3.038303609098891,-16.917748214377028
5.701710775576711,3.0264959440324635,1.296735230095109,0.4222890038551137,2.8499328240379116,-17.30215464690645
5.731975735017035,3.0549952722728424,1.30095812013366,0.2492674573860492,2.7106076867717563,-17.658695251551606
5.762525687739764,3.0821013491405598,1.3034507947075205,0.07268050487053312,2.6232412910612948,-17.990637865370942
5.79334670123117,3.108333762051173,1.3041775997562257,-0.1072258737831763,2.590547572677989,-18.302296154877965
5.824430038851681,3.134239237777953,1.303105341018394,-0.29024883533195595,2.615097815976641,-18.599043002070694
5.855772431229461,3.1603902159377193,1.3002028526650744,-0.4762392653526629,2.699398288161956,-18.887319621383277
5.887376333388838,3.187384198819339,1.2954404600115477,-0.6651124615664957,2.8459888305911862,-19.174645336659932
5.919250175377031,3.2158440871252507,1.2887893353958828,-0.8568589149330951,3.0575616050366694,-19.469633505639983
5.951408616248283,3.2464197031756172,1.2802207462465518,-1.051555249989495,3.3370984726453314,-19.782018998430697
5.98387281328004,3.2797906879020706,1.2697051937466568,-1.249375439973802,3.688024468093746,-20.122701595010774
6.01667072015906,3.316670932583008,1.2572114393469187,-1.4506024559239097,4.114373115131258,-20.503807134451275
6.04983742948489,3.3578146637343207,1.2427054147876797,-1.6556405272684225,4.620956174446861,-20.938763292418113
6.083415576122233,3.404024225478789,1.2261490095149954,-1.8650281601926035,5.213524518025664,-21.442377809071246
6.117455818377021,3.456159470659046,1.2074987279130693,-2.079451938283316,5.898895904553666,-22.030890825724775
6.152017413083612,3.5151484297045825,1.1867042085302362,-2.299760846540564,6.685005493138427,-22.72194432667658
6.187168897380658,3.581998484635967,1.1637066000648306,-2.5269802898073297,7.580798979544111,-23.53436094151328
6.222988882227018,3.657806474431408,1.1384367971667573,-2.7623238992224626,8.595824054190388,-24.487534664033205
6.259566946971332,3.7437647149733118,1.1108135581745326,-3.0071992458627945,9.739262385544478,-25.600078097591407
6.2970045941210655,3.8411573388287565,1.0807415657159047,-3.2632000268387085,11.017946098633045,-26.88709522812506
6.335416167509353,3.951336799815087,1.0481095654475177,-3.532070979119959,12.432563396397232,-28.354976603080388
6.374929535507504,4.075662433779059,1.012788855656318,-3.815620745150763,13.970698330393335,-29.991833844828935
6.415686159845294,4.215369417082993,0.9746326482048104,-4.115539083599052,15.594492560617828,-31.750493126288905
6.457839854016124,4.371314342689171,0.9334772573688199,-4.433044014861942,17.219609084260036,-33.519414499404704
6.501552997443016,4.543510433531772,0.8891468172202005,-4.768238159855989,18.681398049858924,-35.0757984565641
6.546988101778334,4.730324414030361,0.8414644356216406,-5.11899614442163,19.685917956081454,-36.01755781604544
6.594291345918638,4.927183593591176,0.7902744741774244,-5.479171722582085,19.753787419255726,-35.68520988165412
6.6435631818545495,5.124721467783733,0.7354827569516035,-5.836023821398626,18.195398649762726,-33.1274152860447
6.694810396532387,5.30667545428136,0.6771225187376172,-6.167297974259073,14.214792812301257,-27.246049239225695
6.7478771510752,5.448823382404373,0.6154495389950264,-6.43975846665133,7.2824412201014175,-17.31664345265864
6.802365384899244,5.5216477946053875,0.5510519543285131,-6.612924901177917,-2.2295055496137683,-3.874311761417612
6.857581862845298,5.499352739109249,0.48492270531673387,-6.651668018792093,-12.643379161696343,10.726970381162602
6.91257539023639,5.372918947492286,0.4184060251288129,-6.544398314980467,-21.57866722557347,23.1640379992295
6.966304579711313,5.157132275236551,0.35296204197900827,-6.312757934988172,-27.36675192936961,31.123268293820846
7.017875902463678,4.883464755942855,0.28983446262912654,-6.001525252049963,-29.847092023515387,34.40393520429726
7.066710550023107,4.584993835707701,0.2298192101086269,-5.65748590000699,-29.900096374393552,34.25437906104429
7.112560488380184,4.285992871963765,0.17324435110855702,-5.314942109396547,-28.589418746612942,32.17031695115582
7.155420417099822,4.000098684497636,0.12009493001459154,-4.993238939884989,-26.703851557226862,29.257596280132383
7.195421403944798,3.733060168925367,0.07016254061574165,-4.700662977083665,-24.702730658245585,26.159364249980964
7.232752005634052,3.486032862342911,0.023155910844904995,-4.439069334583856,-22.811610457316114,23.191681005193594
7.267612334257481,3.25791675776975,-0.02123478250093356,-4.20715252453192,-21.121627713917434,20.48305544678408
7.300191501835179,3.0467004806305757,-0.06330630774625276,-4.002321970064079,-19.65551116613815,18.066807332146386
7.330658506641484,2.8501453689691942,-0.10332952744689355,-3.8216538967426152,-18.404589421437635,15.932727249591371
7.359159960331176,2.6660994747548177,-0.14154606641431972,-3.6623266242467016,-17.347755225839045,14.05350145056215
7.385820955078724,2.4926219224964274,-0.17816933265678675,-3.52179160974108,-16.460567779135147,12.397377458996132
7.410747174303689,2.328016244705076,-0.21338724875419757,-3.397817835151119,-15.719306802405091,10.93380029076765
7.43402733675074,2.1708231766810253,-0.24736542710570875,-3.2884798322434423,-15.102551586637054,9.635608004321181
7.45573556851755,2.0197976608146546,-0.28025022542814315,-3.1921237522002306,-14.591597285257402,8.479612693685347
7.475933545125697,1.8738816879620805,-0.3121714629501455,-3.1073276252633772,-14.170358840390726,7.446469941678722
7.494672362005318,1.7321780995581733,-0.34324473920277926,-3.0328629258465902,-13.825076914458815,6.520272042627786
7.5119941430009,1.593927330413585,-0.37357336846124517,-2.9676602054203123,-13.543972758737299,5.688067685999528
7.527933416305036,1.458487602826212,-0.4032499705154483,-2.910779528560317,-13.316916739101798,4.939396813585062
7.542518292333298,1.325318435435194,-0.43235776580105145,-2.8613855604244662,-13.1351356230436,4.2658745819356785
7.55577147668765,1.1939670792047579,-0.46097162140529613,-2.8187268146051094,-12.990965232548884,3.660832889330632
7.567711147479698,1.064057426879269,-0.48915888955134723,-2.7821184857118033,-12.877646930336354,3.1190168254417636
7.578351721748491,0.9352809575759056,-0.5169800744084653,-2.7509283174573858,-12.78916326423459,2.636329230848463
7.58770453132425,0.8073893249335596,-0.5444893575830392,-2.7245650251489013,-12.720107277391381,2.209615620647885
7.595778424573585,0.6801882521596458,-0.5717350078345282,-2.7024688689424226,-12.665580185106919,1.8364822147560433
7.602580307095182,0.5535324503085767,-0.5987596965239524,-2.6841040467948623,-12.621112685765267,1.5151408473738985
7.608115631598268,0.427321323450924,-0.6256007369919011,-2.668952638321123,-12.582605816966163,1.2442756860406488
7.612388844832777,0.30149526528126236,-0.6522902633751123,-2.6565098814607166,-12.546287861214294,1.0229277926534384
7.61540379748559,0.1760323866691194,-0.6788553621897195,-2.646280603534182,-12.508684304393046,0.850394530984977
7.617164121352281,0.05094554362518894,-0.7053181682250613,-2.6377766582243325,-12.466598250724369,0.7261416444915358
7.617673576788532,-0.07372043888205475,-0.7316959348073047,-2.6305152417794173,-12.41709901422395,0.6497264930018525
7.616936372399712,-0.19789142902429424,-0.7580010872250988,-2.624017976849399,-12.357516860302493,0.6207314535061869
7.614957458109469,-0.32146659762731916,-0.7842412669935929,-2.617810662314337,-12.285442085271484,0.6387068671536206
7.611742792133196,-0.444321018480034,-0.8104193736167362,-2.611423593642801,-12.19872681776767,0.7031231606184671
7.6072995819483955,-0.5663082866577107,-0.8365336095531642,-2.6043923620366165,-12.095488122868856,0.8133318948815894
7.601636499081819,-0.6872631678863993,-0.8625775331735304,-2.5962590430878008,-11.974111200669327,0.9685355097381422
7.594763867402954,-0.8070042798930925,-0.8885401236044084,-2.5865736879904193,-11.83325170451265,1.167765452653203
7.586693824604024,-0.925336796938219,-0.9144058604843126,-2.574896033463887,-11.671836462030653,1.4098682246658718
7.577440456634641,-1.0420551615585256,-0.9401548208189515,-2.560797351217228,-11.489062160452148,1.6934986670183367
7.567019905019056,-1.1569457831630472,-0.9657627943311238,-2.543862364547045,-11.284391846290024,2.0171195772142636
7.555450447187426,-1.2697897016259474,-0.9912014179765942,-2.5236911687749024,-11.057549373510712,2.3790065123177584
7.5427525501711665,-1.3803651953610545,-1.0164383296643433,-2.499901103651725,-10.808512195175023,2.7772564415525713
7.528948898217556,-1.4884503173128047,-1.0414373407008606,-2.4721285392361994,-10.537503111266041,3.209798779425897
7.514064395044428,-1.5938253484254652,-1.0661586260932225,-2.4400305514419403,-10.244981740505013,3.6744072906115246
7.498126141560173,-1.6962751658305153,-1.0905589316076418,-2.403286478535825,-9.931636559671956,4.168711428289649
7.481163389901869,-1.7955915314272348,-1.114591796393,-2.3615993642529287,-9.598378338320368,4.6902058597099385
7.4632074745875965,-1.8915753148104386,-1.1382077900355294,-2.3146973056558293,-9.246335684211097,5.236257247561462
7.444291721439492,-1.9840386716525495,-1.1613547630920877,-2.262334733180215,-8.876853207181119,5.804107783566816
7.424451334722966,-2.0728072037243606,-1.1839781104238898,-2.2042936553445465,-8.491492516437104,6.390875490820228
7.403723262685722,-2.1577221288887314,-1.2060210469773351,-2.140384900436344,-8.09203590637326,6.993551892556563
7.382146041396835,-2.238642487952464,-1.2274248959816987,-2.0704493815107785,-7.680492184424072,7.608998246775497
7.3597596165173105,-2.3154474097967044,-1.2481293897968064,-1.9943593990430235,-7.259103683187624,8.233942120445851
7.3366051424193435,-2.3880384466285807,-1.2680729837872367,-1.912019977838565,-6.830353115239987,8.864976570741446
7.312724757953058,-2.4563419777809807,-1.2871931835656223,-1.8233702121311506,-6.3969686130773695,9.498564558776108
7.288161338175248,-2.5203116639117544,-1.3054268856869338,-1.7283845665433895,-5.961925089561866,10.13105139049727
7.262958221536131,-2.579930914807373,-1.3227107313523676,-1.6270740526384166,-5.52843999469897,10.758687913708034
7.2371589123880575,-2.6352153147543627,-1.3389814718787518,-1.5194871735013362,-5.099961664662646,11.377666866631245
7.210806759240514,-2.6862149314009893,-1.3541763436137653,-1.4057105048350238,-4.680148779762586,11.984174158731484
7.183944609926504,-2.733016419198615,-1.3682334486621155,-1.285868763247709,-4.272839974680872,12.574455981646432
7.156614445734518,-2.775744818945424,-1.3810921362945925,-1.1601242034312447,-3.8820133616969423,13.14490154151713
7.128856997545064,-2.8145649525623933,-1.3926933783289048,-1.0286751880160734,-3.5117365975011827,13.692139952177625
7.10071134801944,-2.849682318537405,-1.4029801302090656,-0.8917537884942971,-3.166109084759331,14.213148542096857
7.072214524834067,-2.881343409384998,-1.4118976680940085,-0.7496223030733286,-2.849198868672278,14.705368641913102
7.0434010907402165,-2.909835398071721,-1.419393891124742,-0.6025686166541975,-2.5649776711297894,15.16682398062006
7.0143027367594994,-2.935485174783019,-1.4254195772912839,-0.4509003768479969,-2.3172582034707925,15.596236267065901
6.984947885011669,-2.958657756817727,-1.429928581059764,-0.2949380141773379,-2.1096383279258193,15.993132482161984
6.955361307443492,-2.979754140096985,-1.4328779612015374,-0.13500668935571805,-1.9454567381945205,16.357938921728152
6.925563766042522,-2.99920870747893,-1.4342280280950945,0.028572699861563466,-1.8277645800775935,16.692058114219652
6.895571678967733,-3.017486353279706,-1.433942301096479,0.19549328100375998,-1.7593168575429272,16.99792632826775
6.865396815434936,-3.035079521855135,-1.4319873682864412,0.3654725442864375,-1.7425866370267153,17.279051356494037
6.835046020216384,-3.0525053882254025,-1.428332642843577,0.5382630578513778,-1.779804079233202,17.540032442937708
6.80452096633413,-3.0703034290177347,-1.4229500122650631,0.713663382280755,-1.8730213213702043,17.78656641831629
6.773817932043952,-3.0890336422314366,-1.4158133784422555,0.8915290464639178,-2.0242033339158696,18.025446131827252
6.742927595621638,-3.1092756755705953,-1.4068980879776163,1.0717835077821904,-2.235344194847025,18.264558959647747
6.711834838865932,-3.1316291175190654,-1.3961802528997944,1.2544290973786678,-2.5086078286569844,18.51289440744169
6.680518547690741,-3.1567151958056354,-1.3836359619260077,1.4395580414530846,-2.84649215099442,18.780570518583968
6.648951395732684,-3.18518011731558,-1.3692403815114769,1.6273637466389244,-3.2520156563258125,19.078888863537863
6.617099594559528,-3.217700273878838,-1.3529667440450877,1.818152635274303,-3.7289255726871358,19.420427163112855
6.58492259182074,-3.254989529605709,-1.3347852176923447,2.0123569069054317,-4.281926377291526,19.819176742450097
6.5523726965246825,-3.2978087933786244,-1.3146616486232905,2.2105486743299325,-4.9169259892944055,20.290728271046575
6.519394608590896,-3.3469780532715685,-1.2925561618799912,2.4134559570403984,-5.641293029033154,20.85250207933694
6.48592482805818,-3.4033909835619,-1.2684216023095873,2.621980977833768,-6.4641098072858805,21.52400574616281
6.451890918222561,-3.4680320816347585,-1.2422017925312496,2.837221035295396,-7.396387891756048,22.327075884709956
6.417210597406213,-3.541995960552319,-1.2138295821782956,3.0604917941424956,-8.451178281140754,23.286012309439947
6.38179063780069,-3.6265077433637267,-1.1832246642368707,3.2933519172368952,-9.643441766606637,24.42742083954665
6.345525560367053,-3.7229421610297933,-1.1502911450645017,3.537626125632362,-10.98941996722006,25.779408391262507
6.308296138756755,-3.832836360701994,-1.1149148838081782,3.7954202095449867,-12.505014488295798,27.369452049577795
6.269967775149735,-3.957886505584952,-1.0769606817127282,4.069114730040765,-14.202253043500379,29.21967004534838
6.230388910093885,-4.099909036019955,-1.0362695344123205,4.361311430494249,-16.082150296422423,31.33715101573352
6.189389819733686,-4.26073053898418,-0.992656420107378,4.674682940651584,-18.120942942108965,33.69514603099999
6.146782514343844,-4.441939968405269,-0.9459095907008621,5.011634400961584,-20.244593506855164,36.198009701913556
6.102363114659791,-4.644385903473821,-0.8957932466912463,5.37361449798072,-22.283878479684116,38.619144456554395
6.055919255625053,-4.867224688270662,-0.8420571017114391,5.759805942546263,-23.90161852420676,40.50006392105729
6.007247008742346,-5.106240873512729,-0.7844590422859765,6.164806581756836,-24.493348904264735,41.012145240554084
5.9561846000072185,-5.351174362555377,-0.7228109764684082,6.574928034162377,-23.105427539532943,38.84209379837753
5.902672856381665,-5.582228637950706,-0.6570616961267844,6.963348972146152,-18.522174338857273,32.31236639592732
5.846850570002158,-5.767450381339279,-0.5874282064053229,7.286472636105425,-9.805211967523745,20.131673424986005
5.789176066188766,-5.865502501014516,-0.5145634800442687,7.487789370355285,2.6110410868723775,2.9197291922704958
5.730521041178621,-5.839392090145792,-0.4396855863407158,7.51698666227799,16.129327237054483,-15.699292340128075
5.672127120277163,-5.678098817775248,-0.3645157197179359,7.359993738876709,27.094121052669678,-30.64962805543591
5.61534613209941,-5.407157607248551,-0.2909157823291688,7.05349745832235,33.3271515913531,-38.93784871124268
5.561274556026925,-5.073886091335019,-0.22038080774594532,6.664118971209923,35.15245698073164,-41.058106636493825
5.510535695113575,-4.722361521527703,-0.1537396180338461,6.253537904844985,34.18052971588245,-39.27740622421682
5.463312079898298,-4.3805562243688785,-0.09120423898539623,5.860763842602817,31.916283254467988,-35.696641991358135
5.419506517654609,-4.061393391824199,-0.032596600559368055,5.503797422689236,29.291660027733318,-31.609593875060245
5.378892583736367,-3.7684767915468655,0.022441373667524307,5.187701483938634,26.763090817425166,-27.64612367538624
5.341207815820899,-3.5008458833726137,0.07431838850691064,4.911240247184772,24.51061693715498,-24.052485552362487
5.306199356987173,-3.2557397140010638,0.12343079097875836,4.670715391661147,22.57917509149602,-20.888651296880997
5.273641959847162,-3.0299479630861037,0.17013794489536982,4.461828878692336,20.955620438444534,-18.135318976103914
5.243342480216302,-2.8203917587016583,0.21475623368229318,4.280475688931297,19.605878893503828,-15.745267184909919
5.215138562629285,-2.62433296976662,0.25756099057160614,4.123023017082198,18.491446327247143,-13.666023815145499
5.1888952329316185,-2.4394185064941483,0.29879122074242814,3.9863627789307428,17.576044451078662,-11.848930001639753
5.164501047866677,-2.2636580619833615,0.33865484853173555,3.8678734789143454,16.827828307268053,-10.252090596974096
5.141864467246844,-2.095379778910681,0.377333583320879,3.7653525729446042,16.219693375138284,-8.840732609785876
5.120910669457737,-1.9331828451592983,0.41498710905032504,3.6769452468467456,15.728845946125611,-7.586570625904812
5.101578841006144,-1.7758943856980423,0.4517565615187925,3.6010795405876976,15.336150748761233,-6.466879730195233
5.083819897149163,-1.62253287821043,0.4877673569246695,3.5364107432857455,15.025471150750214,-5.463565264462556
5.067594568367059,-1.4722781667029279,0.523131464357527,3.48177509064112,14.78308271093311,-4.562334537148743
5.052871786700029,-1.3244473395935967,0.5579492152639381,3.4361517452696324,14.597182134307387,-3.7519958577073838
5.039627313304093,-1.1784755182505229,0.5923107327166345,3.3986317866925586,14.45748961437243,-3.023878073353293
5.027842558121588,-1.0339006221067986,0.6262970505835601,3.3683930059590255,14.354934003326473,-2.3713528222348277
5.0175035519005196,-0.8903512820735338,0.6599809806431504,3.344679477736677,14.281408388096336,-1.7894398886563192
5.008600039079784,-0.7475371981925704,0.6934277754205171,3.3267850788501137,14.22958441631016,-1.2744778559709142
5.001124667097859,-0.6052413540294688,0.7266956262090183,3.3140403002904044,14.192775292395604,-0.8238452622510133
4.995072253557564,-0.46331360110551273,0.7598360292119223,3.3058018476678943,14.16483897064611,-0.43572064044383585
4.990439117546509,-0.32166521139905163,0.7928940476886013,3.301444641263456,14.140114410770138,-0.10887277011924223
