th1 (rad),w1 (rad/s),th2 (rad),w2 (rad/s),a1 (rad/s^2),a2 (rad/s^2)
3.0149799920585907,-3.0723355688392653,1.7747594188582396,-2.74778851303791,-4.961075035249612,0.9416063812413826
2.984256636370198,-3.1219463191917614,1.7472815337278604,-2.738372449225496,-5.2899006988336374,1.2940028137045316
2.9530371731782803,-3.1748453261800975,1.7198978092356054,-2.7254324210884504,-5.619603508744505,1.680858566301746
2.9212887199164794,-3.2310413612675424,1.692643485024721,-2.708623835425433,-5.950122960537093,2.1035066963293008
2.888978306303804,-3.290542590872913,1.6655572466704667,-2.68758876846214,-6.281538460319044,2.5633261398598797
2.856072880395075,-3.3533579754761034,1.6386813589858453,-2.6619555070635412,-6.614101292832202,3.061739966004455
2.822539300640314,-3.4194989884044253,1.61206180391521,-2.6313381074034967,-6.9482712602524215,3.6002155861068856
2.7883443107562695,-3.4889817010069497,1.585748422841175,-2.595335951542428,-7.284758392112891,4.18026774439824
2.7534544937462,-3.561829284928079,1.5597950633257507,-2.5535332740984455,-7.624570122494265,4.803465225935412
2.7178362008969192,-3.6380749861530215,1.5342597305847663,-2.5054986218390916,-7.969064310811276,5.471442292936057
2.681455451035389,-3.7177656292611343,1.5092047443663754,-2.450784198909731,-8.320008434862684,6.185915869017337
2.644277794742778,-3.800965713609761,1.484696902377278,-2.3889250402195574,-8.67964518691019,6.948709380428113
2.6062681376066803,-3.887762165478863,1.4608076519750826,-2.319437946415276,-9.050764515624431,7.761783852195639
2.5673905159518915,-3.978269810635107,1.4376132725109299,-2.2418201078933198,-9.436781809446527,8.627276215435721
2.5276078178455403,-4.072637628729573,1.4151950714319967,-2.1555473457389627,-9.841821291214622,9.547543603277267
2.4868814415582445,-4.171055841641719,1.393639597974607,-2.06007190970619,-10.270802587663468,10.525210365803014
2.4451708831418273,-4.273763867518354,1.3730388788775452,-1.95481980604816,-10.729526510195347,11.563211085221626
2.4024332444666436,-4.381059132620307,1.3534906808170635,-1.8391876951959438,-11.22475276529166,12.664817156006297
2.3586226531404404,-4.493306660273224,1.335098803865104,-1.712539523635881,-11.764256654960308,13.833625104337926
2.3136895865377083,-4.610949226822827,1.3179734086287451,-1.5742032725925017,-12.356842256952655,15.073469468109526
2.26758009426948,-4.7345176493923535,1.3022313759028201,-1.4234685779114065,-13.012273502678172,16.388198029549635
2.2202349177755565,-4.864640384419135,1.287996690123706,-1.2595865976159102,-13.741057782892522,17.78120651286358
2.1715885139313653,-5.0020509622480605,1.275400824147547,-1.0817745324872743,-14.553972467257323,19.254564082915234
2.1215680043088847,-5.147590686920633,1.2645830788226742,-0.8892288916581219,-15.461152585369424,20.807455657080567
2.0700920974396784,-5.302202212774327,1.255690789906093,-0.6811543350873163,-16.47044265513369,22.43350142967676
2.0170700753119353,-5.466906639325664,1.2488792465552199,-0.45681932079054866,-17.5845376508587,24.11626216688023
1.9624010089186785,-5.642752015834251,1.2443110533473143,-0.21565669912174634,-18.79617963246313,25.82187942528414
1.9059734887603361,-5.830713812158883,1.242154486356097,0.0425620951310951,-20.08034527446468,27.487351217742095
1.8476663506387472,-6.031517264903529,1.2425801073074079,0.31743560730851605,-21.38205623112993,29.002562491309845
1.787351177989712,-6.245337827214828,1.2457544633804931,0.6074612322216145,-22.598527436065524,30.18440789697488
1.7248977997175636,-6.471323101575484,1.2518290757027093,0.9093053111913634,-23.55578381234195,30.74353770093387
1.6601845687018089,-6.7068809396989035,1.2609221288146228,1.2167406882007021,-23.98460322081735,30.25127138797635
1.5931157593048197,-6.946726971907077,1.2730895356966299,1.5192534020804656,-23.511570398611553,28.130151729216696
1.523648489585749,-7.181842675893193,1.2882820697174344,1.8005549193726325,-21.698739934302427,23.717134833642547
1.451830062826817,-7.398830075236217,1.3062876189111607,2.0377262677090577,-18.177525444486125,16.465460856649802
1.377841762074455,-7.580605329681078,1.3266648815882514,2.202380876275556,-12.889477538835365,6.302820582449527
1.3020357087776442,-7.709500105069432,1.348688690351007,2.265409082100051,-6.325548513504154,-6.012479425878025
1.2249407077269499,-7.772755590204473,1.3713427811720074,2.205284287841271,0.48189633595265813,-18.895881427127208
1.1472131518249051,-7.767936626844946,1.3933956240504202,2.016325473569999,6.36238870987139,-30.522020290978748
1.0695337855564557,-7.704312739746232,1.4135588787861202,1.7111052706602115,10.556474827367577,-39.636701144400135
0.9924906581589934,-7.598747991472556,1.4306699314927223,1.31473825921621,12.959239932145662,-45.937869006500954
0.9165031782442679,-7.4691555921510995,1.4438173140848845,0.8553595691512005,13.945310672997707,-49.84555807843327
0.8418116223227569,-7.329702485421122,1.4523709097763964,0.35690398836686776,14.046914228018428,-52.04204630023786
0.7685145974685457,-7.189233343140938,1.4559399496600651,-0.16351647463551078,13.735392911650893,-53.148005951650006
0.6966222640371362,-7.0518794140244285,1.45430478491371,-0.6949965341520109,13.34856589538773,-53.606138319888935
0.6261034698968919,-6.918393755070551,1.44735481957219,-1.2310579173509004,13.100787915283778,-53.68759567226939
0.5569195323461864,-6.787385875917713,1.435044240398681,-1.7679338740735944,13.117240799583222,-53.538207041180264
0.4890456735870093,-6.656213467921881,1.417364901657945,-2.303315944485397,13.465366643745384,-53.22440400581795
0.42248353890779045,-6.521559801484427,1.394331742213091,-2.8355599845435764,14.17664021877937,-52.76760941471309
0.35726794089294617,-6.379793399296633,1.3659761423676553,-3.3632360786907074,15.25973382050799,-52.167452207655984
0.2934700068999798,-6.227196061091553,1.3323437815807482,-3.884910600767267,16.707829889476105,-51.41692647868456
0.2311980462890643,-6.060117762196792,1.2934946755730754,-4.399079865554112,18.502496637645894,-50.5123054831161
0.17059686866709636,-5.875092795820333,1.2495038769175342,-4.9042029203852735,20.615832062968327,-49.459695554351526
0.11184594070889303,-5.66893447519065,1.2004618477136815,-5.3987998759287885,23.0119810959991,-48.27932522566103
0.055156595956986534,-5.438814664230659,1.1464738489543935,-5.881593128185399,25.648695909769845,-47.008143330963456
0.0007684493146799462,-5.18232770513296,1.0876579176725396,-6.351674561495034,28.47929004541929,-45.70100193600963
-0.051054827736649655,-4.897534804678767,1.0241411720575893,-6.80868458085513,31.455074719952393,-44.4305481286365
-0.10003017578343731,-4.582984057479242,0.956054326249038,-7.252990062141495,34.528114256644315,-43.285862585183885
-0.14586001635822973,-4.237702914912799,0.883524425627623,-7.685848687993334,37.65385477880428,-42.36977119842161
-0.18823704550735773,-3.8611643671247564,0.8066659387476897,-8.10954639997755,40.79280641778919,-41.794492803922914
-0.2268486891786053,-3.4532363029468645,0.7255704747479141,-8.52749132801678,43.909881148781615,-41.67466893567062
-0.26138105220807395,-3.0141374914590484,0.6402955614677464,-8.944238017373486,46.96898253881707,-42.11550181432447
-0.2915224271226644,-2.5444476660708775,0.5508531812940115,-9.36539303551673,49.918598630581975,-43.19110198354327
-0.31696690378337317,-2.0452616797650576,0.45719925093884417,-9.797304055352162,52.66081817846613,-44.90327456416304
-0.33741952058102376,-1.5186534979803963,0.35922621038532254,-10.246336800993793,54.990757639838584,-47.102871883530895
-0.35260605556082775,-0.9687459215820104,0.2567628423753846,-10.717365519829102,56.4869552751009,-49.345684839713044
-0.36229351477664784,-0.4038763688310014,0.14958918717709357,-11.210822368226232,56.335227554961165,-50.65480633132245
-0.36633227846495786,0.15947590671861023,0.03748096349483125,-11.717370431539457,53.11468759702626,-49.219859608371046
-0.36473751939777177,0.6906227826888729,-0.07969274082056332,-12.209569027623168,44.7522546857055,-42.30041807645738
-0.35783129157088306,1.1381453295459278,-0.201788431096795,-12.632573208387742,29.21836660485899,-27.10054445422051
-0.3464498382754238,1.4303289955945178,-0.32811416318067244,-12.903578652929946,6.5858404610706245,-3.464111153678053
-0.33214654831947865,1.496187400205224,-0.4571499497099719,-12.938219764466727,-18.7570239297388,23.21541556997118
-0.3171846743174264,1.308617160907836,-0.5865321473546392,-12.706065608767014,-39.70388815285346,44.15211487952861
-0.30409850270834804,0.9115782793793015,-0.7135928034423094,-12.264544459971727,-51.96937874148844,54.41814922504593
-0.29498271991455505,0.3918844919644171,-0.8362382480420266,-11.720362967721268,-56.403972538557895,55.69369716571021
-0.2910638749949109,-0.1721552334211619,-0.9534418777192393,-11.163425996064166,-56.1106898781542,52.254346754180546
-0.2927854273291225,-0.7332621322027039,-1.065076137679881,-10.640882528522361,-53.642843545734614,47.37359710275144
-0.30011804865114955,-1.26969056766005,-1.1714849629651045,-10.167146557494847,-50.400856852859775,42.70975167453649
-0.31281495432775,-1.7736991361886478,-1.273156428540053,-9.740049040749483,-46.997174979368864,38.88757722722728
-0.33055194568963653,-2.2436708859823367,-1.3705569189475477,-9.35117326847721,-43.647817655555926,36.040814821287206
-0.3529886545494599,-2.680149062537896,-1.4640686516323198,-8.990765120264337,-40.39932732626824,34.106601142410256
-0.37979014517483883,-3.0841423358005784,-1.5539763028349631,-8.649699108840235,-37.23720346910703,32.95669451226854
-0.4106315685328446,-3.456514370491649,-1.6404732939233655,-8.320132163717549,-34.13319670732897,32.449659233437956
-0.4451967122377611,-3.7978463375649385,-1.723674615560541,-7.995635571383169,-31.064373248520784,32.44937921513566
-0.48317517561341045,-4.108490070050147,-1.8036309712743726,-7.671141779231813,-28.019630372553483,32.83049016998666
-0.5242600763139119,-4.388686373775681,-1.8803423890666906,-7.342836877531946,-25.000664930539504,33.47936199292022
-0.5681469400516688,-4.638693023081077,-1.95377075784201,-7.008043257602743,-22.02047558137757,34.294006146989084
-0.6145338702824795,-4.858897778894852,-2.0238511904180374,-6.665103196132852,-19.100789447559333,35.184057619106824
-0.6631228480714281,-5.0499056733704455,-2.090502222379366,-6.313262619941784,-16.26909374823988,36.0710664205088
-0.7136219048051325,-5.212596610852844,-2.1536348485787835,-5.952551955736696,-13.555655200063109,36.888983843096575
-0.765747870913661,-5.3481531628534755,-2.2131603681361502,-5.58366211730573,-10.990775624357347,37.58462715272043
-0.8192294025421958,-5.458060919097049,-2.2689969893092075,-5.2078158457785255,-8.602455530585589,38.117916306044535
-0.8738100117331663,-5.5440854744029044,-2.321075147766993,-4.82663668271808,-6.414577040860638,38.46173473604693
-0.9292508664771953,-5.608231244811511,-2.369341514594174,-4.44201933535761,-4.4456607232823195,38.60134117406097
-0.9853331789253105,-5.652687852044334,-2.41376170794775,-4.0560059236170005,-2.708197216062374,38.533332643729416
-1.0418600574457537,-5.679769824204958,-2.4543217671839197,-3.6706725971797063,-1.2085075614160796,38.264219380344905
-1.0986577556878032,-5.691854899819119,-2.4910284931557167,-3.2880304033762573,0.052950236465059294,37.80871462492751
-1.1555763046859944,-5.691325397454468,-2.5239087971894794,-2.909943257126982,1.0809343945425118,37.187863894498484
-1.212489558660539,-5.680516053509043,-2.5530082297607493,-2.5380646181819975,1.8845483984378255,36.427140266572636
-1.2692947191956296,-5.661670569524665,-2.578388875942569,-2.173793215516271,2.476260318102637,35.55461744550421
-1.3259114248908763,-5.636907966343639,-2.600126808097732,-1.8182470410612288,2.8709160386307655,34.59930525102573
-1.3822805045543127,-5.608198805957331,-2.618309278508344,-1.4722539885509716,3.08483392613087,33.589697478546015
-1.438362492613886,-5.577350466696022,-2.6330318183938535,-1.1363570137655115,3.135050871916262,32.552544194867366
-1.4941359972808463,-5.54599995797686,-2.6443953885315086,-0.8108315718168377,3.038774318010267,31.511822691531506
-1.549595996860615,-5.515612214796757,-2.652503704249677,-0.4957133449015227,2.8130848592343436,30.48784523327731
-1.6047521190085825,-5.487481366204414,-2.657460837698692,-0.19083489256874958,2.474931602200799,29.496407628326253
-1.6596269326706266,-5.462732050182407,-2.65936918662438,0.10412918371451296,2.041468786211507,28.547849844951877
-1.7142542531724507,-5.442317362320291,-2.658327894787235,0.38960768216403174,1.5307966391212955,27.645868339701845
-1.7686774267956535,-5.427009395929078,-2.6544318179655946,0.6660663655610501,0.9631881353510992,26.785892966075888
-1.8229475207549444,-5.417377514575567,-2.647771154309984,0.9339252952218091,0.3628954826813603,25.95283209857455
-1.8771212959007,-5.413748559748753,-2.638431901357766,1.1934536162075546,-0.23938870057004874,25.11803027626166
-1.9312587814981874,-5.416142446754454,-2.62649736519569,1.4446339189701711,-0.8034401511255885,24.235441574429803
-1.985420205965732,-5.424176848265709,-2.6120510260059886,1.6869883347144692,-1.2760759570095273,23.237423512995836
-2.0396619744483893,-5.436937607835804,-2.595181142658844,1.9193625698444277,-1.5882593893579755,22.031386880667153
-2.0940313505267474,-5.452820201729384,-2.5759875169604,2.139676438651099,-1.6546128677333187,20.499977460878796
-2.1485595525440413,-5.469366330406718,-2.5545907525738887,2.3446762132598873,-1.3786025446625099,18.50942562089454
-2.2032532158481084,-5.483152355853343,-2.53114399044129,2.5297704694688328,-0.6677429416126957,15.932199397552909
-2.258084739406642,-5.48982978526947,-2.5058462857466015,2.689092463444362,0.5379237573639327,12.688462328146613
-2.3129830372593365,-5.484450547695831,-2.478955361112158,2.815977086725828,2.2269542721556963,8.802015591937202
-2.3678275427362947,-5.462181004974274,-2.4507955902449,2.9039972426452,4.2821891976141675,4.449175435555811
-2.4224493527860376,-5.419359112998132,-2.421755617818448,2.948488997000758,6.4769460949196125,-0.03655012277202193
-2.4766429439160187,-5.3545896520489356,-2.3922707278484405,2.948123495773038,8.521683624211512,-4.232393831231336
-2.530188840436508,-5.26937281580682,-2.3627894928907103,2.9057995574607247,10.149976297972616,-7.750679771172108
-2.582882568594576,-5.167873052827094,-2.333731497316103,2.8282927597490035,11.198640840827183,-10.354730526362637
-2.634561299122847,-5.055886644418822,-2.3054485697186133,2.7247454544853773,11.63770186313671,-12.002598788333652
-2.685120165567035,-4.939509625787455,-2.2782011151737596,2.604719466602041,11.544065975601756,-12.809514976840502
-2.73451526182491,-4.8240689660314375,-2.252153920507739,2.476624316833636,11.048133955264793,-12.970796198284951
-2.7827559514852243,-4.713587626478789,-2.227387677339403,2.3469163548507863,10.286041460367912,-12.692285851183845
-2.829891827750012,-4.61072721187511,-2.203918513790895,2.219993496338948,9.372255027143792,-12.149850754349275
-2.8759990998687632,-4.517004661603672,-2.1817185788275055,2.098494988795455,8.390786864333794,-11.475787635885284
-2.9211691464847998,-4.433096792960335,-2.160733628939551,1.9837371124366021,7.39726819740074,-10.76115187744601
-2.9655001144144033,-4.359124110986327,-2.140896257815185,1.876125593662142,6.425156131042495,-10.06434355398303
-3.0090913555242667,-4.294872549675902,-2.1221350018785636,1.7754821581223117,5.49227312304669,-9.420408865457267
-3.0520400810210258,-4.239949818445435,-2.1043801802973405,1.681278069467739,4.606165565655824,-8.848791143386888
-3.09443957920548,-4.193888162788877,-2.0875673996026634,1.5927901580338701,3.7679960964345023,-8.359049873087974
-3.136378460833369,-4.156208201824532,-2.0716394980223245,1.5091996593029904,2.9751754658648526,-7.95479685617714
-3.1779405428516143,-4.126456447165883,-2.0565475014292947,1.429651690741219,2.2230568686747114,-7.636286846430466
-3.219205107323273,-4.104225878479136,-2.0422509845218824,1.3532888222769142,1.5059846462148945,-7.402068649863359
-3.2602473661080644,-4.089166032016987,-2.028718096299113,1.2792681357782805,0.8179190914002129,-7.2500095060565135
-3.3011390264282343,-4.080986841102985,-2.0159254149413304,1.2067680407177153,0.15279221436297158,-7.177913386284459
-3.3419488948392644,-4.0794589189593555,-2.003857734534153,1.1349889068548706,-0.49530234166481163,-7.1838812077163965
-3.382743484028858,-4.084411942376003,-1.9925078454656044,1.0631500947777066,-1.13201835652421,-7.26650905986741
-3.423587603452618,-4.095732125941245,-1.9818763445178273,0.9904850041790325,-1.7627223934520544,-7.424985274989786
-3.4645449247120306,-4.113359349875766,-1.971971494476037,0.9162351514291347,-2.392488401417999,-7.6591238463333
-3.505678518210788,-4.137284233889946,-1.9628091429617456,0.8396439129658017,-3.026104302419684,-7.969356449446307
-3.5470513605496876,-4.167545276914143,-1.9544127038320875,0.7599503484713386,-3.668079317601019,-8.356695357124467
-3.588726813318829,-4.204226070090153,-1.9468132003473742,0.6763833949000939,-4.322644362827844,-8.822672958238368
-3.6307690740197307,-4.247452513718431,-1.940049366398373,0.5881566653177103,-4.993739886612151,-9.369259155214673
-3.673243599156915,-4.297389912584553,-1.934167799745196,0.49446407376556356,-5.684986626280027,-9.998754848195333
-3.7162174982827607,-4.354239778847353,-1.9292231590075404,0.3944765252836102,-6.399635328190461,-10.713657561368528
-3.7597598960712344,-4.418236132129257,-1.9252783937547042,0.28733994966992493,-7.1404918126551875,-11.516493804145401
-3.803942257392527,-4.489641050255809,-1.922404994258005,0.17217501162847093,-7.909814109464035,-12.409611937141957
-3.848838667895085,-4.568739191350449,-1.9206832441417203,0.048078892257051364,-8.709178975550905,-13.394929224409182
-3.8945260598085896,-4.655830981105958,-1.92020245521915,-0.08587039998704046,-9.539316168697711,-14.473627617635797
-3.941084369619649,-4.751224142792935,-1.9210611592190203,-0.23060667616339844,-10.399910639746091,-15.645794959093886
-3.9885966110475786,-4.855223249190396,-1.9233672259806542,-0.3870646257543373,-11.289375571524058,-16.910012104913804
-4.037148843539483,-4.968117004905636,-1.9272378722381975,-0.5561647468034754,-12.204603152394746,-18.26289236833777
-4.086830013588539,-5.090163036429583,-1.9327995197062322,-0.7387936704868531,-13.14070524281205,-19.69858798145288
-4.137731643952835,-5.221570088857704,-1.9401874564111008,-0.9357795503013819,-14.090762591976636,-21.208289038865036
-4.1899473448414115,-5.36247771477747,-1.9495452519141145,-1.1478624406900324,-15.045608578980483,-22.77975321451176
-4.243572121989186,-5.512933800567275,-1.9610238763210148,-1.37565997283515,-15.993680717343379,-24.396918312530097
-4.2987014599948585,-5.672870607740709,-1.9747804760493664,-1.619629155960451,-16.920978944447413,-26.039662367375687
-4.355430166072265,-5.842080397185183,-1.990976767608971,-1.880025779634208,-17.811172045921793,-27.68378447288371
-4.413850970044117,-6.020192117644401,-2.009777025405313,-2.1568636243630452,-18.64589013892931,-29.301279910193422
-4.474052891220561,-6.206651019033694,-2.0313456616489436,-2.4498764234649792,-19.405229817264164,-30.860971406293956
-4.536119401410898,-6.400703317206335,-2.0558444258835933,-2.758486137527919,-20.06847813265543,-32.329531402107825
-4.600126434582961,-6.601388098532889,-2.0834292872588724,-3.081781451548997,-20.61503268106071,-33.67288742824742
-4.66614031556829,-6.8075384253434965,-2.1142471017743625,-3.4185103258314715,-21.025460910525776,-34.85794740144063
-4.734215699821725,-7.017793034448754,-2.148432205032677,-3.767089799845878,-21.28260836021064,-35.85452187938254
-4.804393630166213,-7.2306191180508605,-2.1861031030311358,-4.125635018639703,-21.37264079041447,-36.63726807244039
-4.876699821346722,-7.444345525955005,-2.2273594532175327,-4.492007699364107,-21.28589694593613,-37.18744924301542
-4.951143276606271,-7.6572044954143665,-2.272279530211174,-4.863882191794262,-21.017442187998597,-37.4943041012509
-5.027715321560415,-7.867378917294353,-2.3209183521291163,-5.238825232806771,-20.567248504332863,-37.555858345871826
