th1 (rad),w1 (rad/s),th2 (rad),w2 (rad/s)
3.5398405829491253,2.348267133428486,3.2641527053122097,2.8175387322419505
3.5633232542834103,2.374734038422794,3.292328092634629,2.8190626791260565
3.5870705946676384,2.402945230230813,3.32051871942589,2.82169328284289
3.6111000469699466,2.432854264358898,3.3487356522543186,2.8254913167933657
3.6354285896135354,2.4644134339362074,3.3769905654222523,2.8305185009611504
3.6600727239528976,2.497573337590172,3.405295750431864,2.836838025170931
3.6850484573287994,2.532282426055479,3.433664130683573,2.8445150738116403
3.7103712815893544,2.5684865314426824,3.4621092814216894,2.853617345569624
3.736056146903781,2.6061283837517517,3.4906454548773858,2.8642155605112727
3.7621174307412986,2.6451471199487133,3.5192876104824986,2.876383945546199
3.7885689019407858,2.685477791732913,3.5480514499379607,2.8902006878983846
3.8154236798581147,2.7270508790080026,3.5769534568169448,2.905748344729342
3.8426941886481947,2.7697918170273894,3.6060109402642384,2.9231141955183375
3.8703921068184686,2.8136205462062893,3.635242082219422,2.942390522244328
3.8985283122805314,2.858451094664974,3.664665987441865,2.963674800877013
3.9271128232271812,2.904191204674393,3.694302735450635,2.9870697862256637
3.956154735273925,2.9507420152952264,3.7241734333128917,3.0126834708794266
3.985662155426877,2.997997814610912,3.754300268021686,3.0406288978753944
4.015642133572986,3.045845876028822,3.78470655700044,3.0710238059304173
4.046100592333274,3.0941663941362996,3.815416795059744,3.1039900856509646
4.077042256274637,3.1428325365265612,3.846456695916254,3.1396530251708117
4.108470581639902,3.1917106288348354,3.877853226167962,3.178140324228398
4.140387687928251,3.2406604909353742,3.909634629410246,3.2195808568379745
4.1727942928376045,3.2895359428409234,3.9418304379786258,3.264103164462058
4.205689652266014,3.3381854993219733,3.9744714696232464,3.3118336639591077
4.239071507259234,3.386453272634509,4.007589806262837,3.3628945575279485
4.272936039985579,3.434180103025458,4.041218751838117,3.4174014353319655
4.307277841015834,3.481204936883024,4.075392766191436,3.4754605653610016
4.342089890384664,3.527366472506401,4.110147371845047,3.5371658692513663
4.377363555109729,3.572505093444718,4.14551903053756,3.602595587097764
4.413088606044176,3.6164651091032716,4.181544986408538,3.671808638630246
4.449253257135209,3.65909732166103,4.21826307279484,3.7448406924115476
4.485844230351819,3.7002619370026006,4.255711479718955,3.821699958933763
4.522846849721844,3.7398318349145856,4.293928479308293,3.9023627277844137
4.56024516807099,3.7776962096314293,4.332952106586137,3.986768673717367
4.598022130167305,3.813764585139043,4.372819793323311,4.074815962046519
4.636159776018695,3.8479711994344514,4.413567952943776,4.16635619111155
4.674639488013039,3.8802797369525064,4.4552315148548916,4.261189219808583
4.7134422853825635,3.9106883671658483,4.497843407052978,4.359057942847094
4.752549169054222,3.939235018375739,4.541433986481448,4.459643097325192
4.791941519237979,3.966002777385292,4.5860304174547,4.562558213472941
4.831601547011832,3.991125256773655,4.631655999589429,4.667344862083255
4.871512799579569,4.014791711164176,4.6783294482102615,4.773468402977189
4.911660716691211,4.03725161261505,4.726064132240033,4.880314503676091
4.952033232817361,4.058818315277155,4.774867277276794,4.987186774415087
4.992621415970133,4.0798713556229504,4.824739145020945,5.093305951136699
5.0334201295263625,4.100856855250054,4.875672204532312,5.197811144656847
5.074428698078863,4.122285431185999,4.92765031597888,5.299763749318367
5.115651552390723,4.14472699099428,4.980647953472064,5.398154650074345
5.157098822300666,4.168801817859675,5.034629499972808,5.491915359906838
5.198786840479263,4.195167456820036,5.089548653571876,5.579933633801099
5.240738515047464,4.224501117276128,5.1453479899098875,5.661073917072937
5.282983526220225,4.257477619590048,5.201958729080617,5.734202679782083
5.325558302416126,4.294743328885284,5.259300755878438,5.798218268555563
5.368505735704979,4.336887007037825,5.317282938563993,5.852084402407568
5.411874605775357,4.384409016746244,5.375803782588069,5.894865911207848
5.45571869594282,4.437690747884,5.434752441700148,5.925764852741412
5.50009560342166,4.496966413162417,5.494010090227563,5.944154847709169
5.5450652675532845,4.56229939468942,5.553451638704654,5.9496114299299645
5.590688261500179,4.633565067943914,5.612947753003954,5.941936468141914
5.637023912179618,4.710441493823247,5.672367117685374,5.921175258123228
5.68412832711785,4.792408624910526,5.731578870266606,5.887625620318891
5.732052413366955,4.878755842636986,5.790455126469795,5.841839125256515
5.780839971793325,4.968596873974137,5.84887351772236,5.784615244930923
5.830525940533066,5.060890562121888,5.906719670171669,5.71698965668477
5.881134846154285,5.1544656720656485,5.963889566738517,5.6402180318363895
5.932679502874941,5.248047923178726,6.020291747056881,5.555756426452017
5.985159982106729,5.340287721032561,6.0758493113214005,5.465238928431443
6.038562859317055,5.429787528677228,6.1305017006057145,5.370452622445891
6.092860734603827,5.515128370973606,6.184206226830174,5.273309349314664
6.148012018313563,5.594895498660679,6.23693932032332,5.17581329025452
6.20396097330017,5.667703657066913,6.288697453225866,5.080023209134492
6.2606380098708385,5.732222631232727,6.339497685317211,4.988008318397584
6.317960236183166,5.787203721621574,6.389377768501187,4.901797241997461
6.375832273399381,5.831507520165527,6.438395740921162,4.823320430473944
6.434147348601036,5.864132824400466,6.486628945225901,4.754347575233052
6.492788676845041,5.884245820702623,6.534172420978231,4.696422927477253
6.551631135052068,5.891207917528321,6.581136650253003,4.650802723154376
6.610543214227351,5.884599994375192,6.627644677484547,4.618399855983853
6.669389214171103,5.864240541931442,6.673828676044385,4.599741227120359
6.728031619590417,5.830195349615329,6.719826088315589,4.594942615713212
6.78633357308657,5.782777091131082,6.765775514472721,4.603704418027099
6.844161343997881,5.722534269560069,6.811812558652992,4.625329383099638
6.901386686693481,5.650230283770542,6.858065852483988,4.658760931408061
6.957888989531186,5.566814572553749,6.904653461798069,4.702638292079872
7.013557135256724,5.473388611975745,6.951679844718868,4.755363006315722
7.068291021376481,5.371169825418148,6.999233474782025,4.81517061246217
7.122002719630663,5.26145620685666,7.047385180906646,4.880201592499309
7.17461728169923,5.145593784044063,7.0961871968316395,4.948566729683405
7.22607321953967,5.024948164096567,7.145672864128474,5.018403570908308
7.276322701180636,4.900880519620258,7.195856899837557,5.087922347054941
7.3253315063768385,4.7747276498177875,7.246736123308107,5.1554411883824045
7.373078782875016,4.6477852757052505,7.298290535191931,5.2194115998592645
7.419556635632069,4.521293520667356,7.350484651190524,5.278435865207604
7.464769570838742,4.396423558048664,7.4032690098426,5.331278344411596
7.508733806419229,4.274264622775735,7.456581793286716,5.376872582100376
7.551476452646986,4.155810923691566,7.51035051910772,5.414325837697548
7.5930345618839015,4.041948398746275,7.564493777484696,5.442922169757564
7.633454045871364,3.933441671098392,7.618922999182272,5.462124641386109
7.672788462582348,3.8309219367140517,7.6735442455961325,5.471576644153777
7.7110976819494885,3.7348767902169175,7.72826001203767,5.47110184605976
7.748446449851658,3.6456431269424106,7.782971030498268,5.460701930576823
7.784902881121082,3.563404209697828,7.837578049804036,5.440551167755334
7.82053692321806,3.4881917471526482,7.89198356148159,5.410986972936181
7.855418840689587,3.4198934193081456,7.946093431210952,5.372495948472334
7.889617774882668,3.358265762382439,7.999818390695675,5.325695406416473
7.923200432506492,3.3029517766908887,8.05307534475984,5.271310935298462
7.956229950273402,3.2535021421362402,8.105788454112824,5.210151086791239
7.988764971694764,3.209398598562131,8.157889964980736,5.143080617017047
8.020858957680385,3.1700779207255767,8.209320771150907,5.070993860382581
8.052559736887641,3.1349549948705304,8.260030709754732,4.994789730988119
8.083909286836347,3.1034437504012473,8.309978607064613,4.9153495762883
8.114943724340359,3.074975053950618,8.359132102827497,4.833518720333186
8.145693474879865,3.0490110640578703,8.407467290030828,4.750092109870907
8.176183585520443,3.0250559110610724,8.454968211129538,4.66580408579582
8.206434144631054,3.0026628660112347,8.501626251987496,4.581321992084741
8.236460773291165,2.9814383738666415,8.547439471908342,4.497243125576887
8.266275157029831,2.961043448664828,8.59241190316411,4.414094421472825
8.295885591516479,2.94119297381821,8.636552847378839,4.3323342451311335
8.325297521254662,2.921653437852966,8.67987618983015,4.25235569759231
8.35451405563319,2.9022395847848665,8.722399746806072,4.174490916677764
8.383536451481039,2.882810386592165,8.76414465597285,4.0990159473558805
8.41236455534696,2.8632646666043726,8.805134815446408,4.026155849375315
8.440997202013003,2.843536626458032,8.845396373940162,3.9560897972726394
8.469432568277583,2.823591461140752,8.884957271912889,3.8889560025900267
8.49766848288899,2.8034211891646015,8.92384683193879,3.824856348636738
8.525702694780636,2.783040778650343,8.962095395425157,3.76386067471791
8.553533102567139,2.762484614382819,8.999734002172337,3.7060106809828386
8.581157948710967,2.7418033243798705,9.036794108982166,3.651323448992654
8.608575981954765,2.721060965626645,9.073307343472093,3.599794588936623
8.635786591611032,2.7003325558027527,9.10930528936146,3.5514010341239612
8.662789917169059,2.679701929664217,9.1448192997027,3.506103508633388
8.689586936465702,2.6592598940421617,9.179880334789035,3.46384869617401
8.716179535406123,2.6391026532178627,9.214518821750774,3.4245711383426864
8.742570561938303,2.6193304759710383,9.248764533134201,3.3881948893265337
8.768763866698013,2.600046576298588,9.282646482027467,3.354634952243897
8.794764332460998,2.581356181237512,9.316192831549905,3.3237985201184728
8.820577894273374,2.563365761090522,9.34943081675109,3.2955860421846626
8.846211551884279,2.546182399429824,9.382386677172937,3.2698921339783857
8.871673375878578,2.5299132823968695,9.41508559851272,3.2466063475611744
8.896972508702547,2.5146652889277523,9.447551661988332,3.225613816296617
8.922119161591825,2.5005446655563826,9.479807800151297,3.206795786858834
8.947124608247389,2.4876567713476168,9.511875758019885,3.19003004959748
8.972001175960866,2.476105880274883,9.54377605851586,3.175191276998599
8.996762234763615,2.4659950299782265,9.575527971285846,3.1621512787478636
9.021422185063397,2.457425907323205,9.607149484073325,3.150779180804521
9.045996444136629,2.4504987625374497,9.63865727588137,3.140941534915008
9.070501431762002,2.445312344941068,9.67006669123052,3.1325023641220335
9.094954555211412,2.4419638544217572,9.70139171487174,3.1253231490488402
9.11937419375563,2.4405489038480717,9.732644946362228,3.119262759053711
9.143779682794111,2.441161488577305,9.763837573952765,3.1141773317541674
9.168191297679884,2.4438939601101155,9.794979347270306,3.1099201039139523
9.192630237280985,2.448837001784333,9.826078548309447,3.1063411962711625
9.21711860729883,2.4560796051971536,9.857141960272159,3.103287354566715
9.241679403350801,2.465709046810006,9.888174833817827,3.100601648813455
9.266336493818901,2.4778108649356585,9.919180850305962,3.098123132732952
9.291114602468257,2.492468838044853,9.950162081633291,3.0956864652845812
9.316039290848705,2.509764966072158,9.981118946286136,3.093121496324868
9.341136940509427,2.5297794571601737,10.012050161249384,3.0902528186688283
9.366434735081029,2.55259072306965,10.042952689436072,3.0868992891834575
9.391960642311725,2.5782753873113724,10.073821682327907,3.0828735220308428
9.41774339618484,2.606908310932977,10.104650417548216,3.077981357799576
9.44381247929417,2.6385626418259402,10.135430231126211,3.0720213130249565
9.470198105712429,2.6733098944058535,10.166150444256461,3.0647840155110884
9.496931204656487,2.711220067556285,10.196798284411571,3.056051631947605
9.52404340533205,2.7523618097961426,10.227358800731047,3.0455972955861887
9.55156702343001,2.7968026417007597,10.257814773686908,3.033184543248059
9.579535049847017,2.844609246625567,10.288146619119388,3.018566772736278
9.607981142313273,2.8958478416673845,10.31833228684675,3.001486733922519
9.636939620729947,2.950584641431965,10.348347154185976,2.981676069511735
9.666445467144268,3.0088864273831906,10.378163914881094,2.9588549249752885
9.6965343314181,3.0708212350801443,10.407752464130848,2.932731651700021
9.7272425437689,3.1364591701101436,10.437079780647847,2.903002633488679
9.758607135470003,3.2058733605012546,10.466109806982734,2.8693522748333873
9.790665869075015,3.2791410481474714,10.494803329731068,2.831453200827689
9.82345727955649,3.356344813322085,10.523117861739346,2.7889667345551796
9.85702072768971,3.437573913312715,10.551007529084897,2.7415437402428036
9.891396466822837,3.5229256966552827,10.578422966487325,2.688825952149121
9.926625723789389,3.6125070256739322,10.605311226008817,2.6304479539407373
9.962750794046128,3.706435598285925,10.631615705548224,2.5660400365842926
9.999815150028988,3.8048410000907684,10.657276105914066,2.4952322519822565
10.037863560029896,3.907865232482608,10.68222842843389,2.4176601048195905
10.076942212354721,4.0156623422641164,10.706405029482086,2.3329724998353516
10.117098835777362,4.128396610337877,10.72973475448044,2.240842803377762
10.158382801880741,4.24623852558402,10.752143182514217,2.140984207969996
10.200845187136581,4.369357456442966,10.773553024593918,2.033171030547038
10.24453876170101,4.497909518517674,10.793884734899388,1.9172681506999194
10.289517856886187,4.632018610344529,10.813057416406387,1.7932715128643726
10.335838042989632,4.771747962762982,10.830990131535032,1.661363446573831
10.383555522617263,4.917058885173713,10.84760376600077,1.5219873882840134
10.432726111469,5.067752869415124,10.86282363988361,1.3759471366862828
10.483403640163152,5.223393205562353,10.876583111250472,1.2245354609043193
10.535637572218775,5.383203479547965,10.888828465859515,1.0696946459849426
10.589469607014255,5.545943921420863,10.899525412319365,0.9142056873707937
10.644929046228464,5.7097741604324455,10.908667469193073,0.7618910060058657
10.70202678783279,5.872124097070481,10.916286379253131,0.6177955257606477
10.760748028803494,6.029613406171984,10.922464334510739,0.4882827989133395
10.821044162865213,6.178080322275089,10.927347162499872,0.38095319486626733
10.882824966087965,6.312789565940623,10.931156694448536,0.30427828665178414
10.94595286174737,6.42886716912086,10.934199477315053,0.26687964173182505
11.01024153343858,6.521938696115609,10.93686827373237,0.27648762573384694
11.075460920399735,6.588836194504384,10.939633149989708,0.3387831194983515
11.141349282344779,6.628145421618823,10.943020981184691,0.45646808584612003
11.207630736560967,6.640371781091533,10.947585662043153,0.6289062278103896
11.274034454371883,6.627644089334786,10.953874724321256,0.8524708605754159
11.340310895265231,6.593074501200392,10.962399432927011,1.121440665419283
11.406241640277235,6.540018038531062,10.973613839581205,1.4290900015339267
11.471641820662546,6.471458125923548,10.987904739596544,1.7686339835658156
11.53635640192178,6.389631438294452,11.005591079432202,2.133848165570174
11.600252716304725,6.2958892237127655,11.026929561087904,2.51935400414776
11.663211608541852,6.190729018589099,11.052123101129382,2.920659589396201
11.725118898727743,6.073920828060601,11.081329697023344,3.3340656260672956
11.78585810700835,5.944670124709284,11.114670353284017,3.7565238219265575
11.845304808255444,5.801783834518164,11.152235591503283,4.18550125896915
11.903322646600625,5.643823979161393,11.194090604092974,4.618876477936937
11.959760886392239,5.469244782090168,11.240279368872343,5.0548747502223055
12.01445333421314,5.276514586691888,11.290828116374566,5.492039478148705
12.06721848008006,5.064226369981458,11.345748511156053,5.929230733559774
12.117860743779874,4.831202046680124,11.405040818491651,6.365637970438688
12.166172764246674,4.576597696685584,11.468697198196038,6.800789993334577
12.21193874121353,4.3000205484760645,11.536705098129383,7.2345397892393315
12.25493894669829,4.001675157192398,11.609050496021776,7.6669933075224845
12.294955698270215,3.6825668433542473,11.685720429097001,8.098337988161406
12.331781366703757,3.344805794886324,11.766703808978615,8.528507283169642
12.36522942465262,2.992073975030647,11.851988881810312,8.956592233993574
12.395150164402926,2.6303314411682375,11.941554804150249,9.379888930732271
12.421453478814609,2.268824782714398,12.035353693457571,9.792481505501158
12.444141726641753,1.9213601619815197,12.133278508512582,10.183380299887519
12.463355328261569,1.6075119963143714,12.235112311511458,10.534606233830528
12.479430448224713,1.3528573562014063,12.340458373849764,10.820376310446111
12.492959021786728,1.1866291354994438,12.448662136954225,11.009488790568923
12.504825313141723,1.1353108884854126,12.558757024859913,11.07288904404272
12.516178422026577,1.2131816439048075,12.66948591530034,10.99518282881365
12.528310238465625,1.4151110316129192,12.779437743588478,10.78328682180892
12.542461348781755,1.7177252368561016,12.887270611806567,10.464465575852056
12.559638601150317,2.088654339804191,12.991915267565087,10.074484681536976
12.580525144548359,2.496862191684525,13.092660114380458,9.645093925569205
12.605493766465203,2.91830063054632,13.18911105363615,9.19794710750608
12.634676772770666,3.3366571205721316,13.28109052471121,8.744749620206797
12.668043343976388,3.741725938266645,13.36853802091328,8.290115235315307
12.705460603359054,4.127430963822081,13.451439173266433,7.834539255199461
12.746734912997274,4.490307405096477,13.529784565818428,7.376566485552567
12.791637987048238,4.828535338820956,13.603550230673953,6.914132288591746
12.839923340436448,5.141385621596188,13.67269155355987,6.445307981628394
12.89133719665241,5.4289217745320855,13.737144633376154,5.968670621666388
12.945626414397731,5.691842342272255,13.796831339592817,5.483448894527659
13.002544837820453,5.9313900221434395,13.851665828538094,4.989539153580803
13.061858738041888,6.149283856031204,13.901561220073901,4.487449364226286
13.1233515766022,6.347649692129135,13.946435713716165,3.978209083683217
13.186828073523492,6.5289349116564335,13.986217804552997,3.4632745248407293
13.252117422640056,6.695798354266451,14.020850549801404,2.9444549758715133
13.319075406182721,6.850966770840557,14.050295099560119,2.4238880772578537
13.387585073891126,6.997045689266527,14.074533980332697,1.9040956665506288
13.457555530783791,7.136266015893879,14.093574936998204,1.3881583340040535
13.528918190942731,7.2701398265139785,14.107456520338244,0.8800533148531715
13.601619589207871,7.398994731354004,14.116257053486777,0.38519999355934914
13.675609536521412,7.521368452744296,14.12010905342237,-0.08876745046952794
13.750823221048854,7.633299469558389,14.119221378917675,-0.5310660951785947
13.827156215744438,7.727685337808352,14.11391071796589,-0.926936351230934
13.904433069122522,7.794124161368839,14.10464135445358,-1.2575401198213716
13.98237431073621,7.8199238753055065,14.092065953255366,-1.501585043991745
14.060573549489265,7.79291232710931,14.077050102815448,-1.6395795146787042
14.138502672760358,7.705767531875543,14.060654307668662,-1.6602751865641976
14.215560348079114,7.559884706490986,14.04405155580302,-1.566368684658351
14.291159195144024,7.365981603706335,14.028387868956436,-1.3753452913626258
14.364819011181087,7.140572717276408,14.01463441604281,-1.1141560544050246
14.43622473835385,6.900662015006531,14.00349285549876,-0.811146512950026
14.505231358503915,6.659840374219178,13.995381390369259,-0.48995669194546665
14.571829762246107,6.42699897005865,13.990481823449803,-0.1672796902399314
14.636099751946693,6.206897201064678,13.988809026547404,0.14655090320411773
14.69816872395734,6.001385598714856,13.990274535579445,0.44588798809623975
14.758182579944489,5.810549750418656,13.994733415460407,0.7281204972965758
