th1 (rad),w1 (rad/s),th2 (rad),w2 (rad/s),a1 (rad/s^2),a2 (rad/s^2)
3.246929077236462,-1.4347783717607545,2.288541381538752,0.5024014872517486,3.072399067987095,-7.4639137637086606
3.2325812935188543,-1.4040543810808837,2.2935653964112697,0.427762349614662,3.0488968713489135,-7.55954950104714
3.2185407497080454,-1.3735654123673946,2.2978430199074165,0.35216685460419056,3.018198527474512,-7.646943350776169
3.2048050955843714,-1.3433834270926495,2.301364688453458,0.27569742109642886,2.98003061902074,-7.725863508422837
3.191371261313445,-1.313583120902442,2.3041216626644223,0.1984387860122005,2.934185879363641,-7.796167032817347
3.1782354301044204,-1.2842412621088055,2.3061060505245443,0.12047711568402703,2.880520145418589,-7.857798268822804
3.1653930174833325,-1.2554360606546195,2.3073108216813845,0.04189913299579899,2.8189475437038176,-7.910784531849517
3.1528386568767863,-1.2272465852175813,2.3077298130113424,-0.03720871232269618,2.7494341239022493,-7.955229336139481
3.1405661910246105,-1.1997522439785588,2.3073577258881155,-0.116761005684091,2.67199023042837,-7.991303555922272
3.128568668584825,-1.1730323416742752,2.3061901158312748,-0.19667404124331372,2.58666195850389,-8.019234988488568
3.116838345168082,-1.1471657220892362,2.3042233754188417,-0.27686639112819944,2.493522074253527,-8.039296836737828
3.10536668794719,-1.1222305013467009,2.3014547115075596,-0.35725935949557774,2.392660787706732,-8.051795644503168
3.094144382933723,-1.0983038934696336,2.2978821179126037,-0.4377773159406094,2.2841767546403404,-8.0570592023836
3.0831613439990266,-1.0754621259232302,2.2935043447531975,-0.5183479079644454,2.1681686508306086,-8.055424898678293
3.072406722739794,-1.0537804394149242,2.288320865673553,-0.5989021569512283,2.044727614531627,-8.047228924732842
3.061868918345645,-1.033333163269608,2.2823318441040406,-0.6793744461985567,1.9139307944801753,-8.032796662905973
3.0515355867129488,-1.0141938553248062,2.275538099642055,-0.7597024128276164,1.7758361761514374,-8.01243449499284
3.041393648159701,-0.9964354935632919,2.2679410755137788,-0.8398267577775448,1.6304787927345261,-7.986423175464954
3.031429293224068,-0.9801307056359466,2.259542807936003,-0.9196909895321943,1.477868363120719,-7.955012822669545
3.0216279861677084,-0.9653520220047395,2.250345898040681,-0.9992411177588898,1.3179883400803332,-7.918419496486156
3.0119744659476613,-0.9521721386039361,2.2403534868630923,-1.0784253127237513,1.150796299905652,-7.876823256052315
3.002452744561622,-0.9406641756048796,2.229569233735855,-1.1571935452842745,0.9762255615101952,-7.830367528160383
2.993046102805573,-0.9309019199897777,2.217997298283012,-1.2354972205658783,0.7941878890367717,-7.779159566982057
2.9837370836056754,-0.92296004109941,2.205642326077353,-1.3132888162356988,0.604577107661314,-7.72327174934082
2.974507483194681,-0.9169142700227968,2.192509437914996,-1.390521533729107,0.40727344732936765,-7.66274342671235
2.965338340494453,-0.9128415355495031,2.178604222577705,-1.4671489679962306,0.2021484232049587,-7.597583044977542
2.956209925138958,-0.9108200513174535,2.163932732897743,-1.5431247984460061,-0.010929935962261795,-7.5277702448893375
2.947101724625784,-0.9109293506770761,2.148501484913283,-1.6184025008948995,-0.23209169028709656,-7.453257669242787
2.937992431119013,-0.9132502675799471,2.1323174599043337,-1.6929350775873273,-0.46145958394094777,-7.3739722256813005
2.9288599284432135,-0.9178648634193566,2.1153881091284603,-1.7666747998441403,-0.6991437724623653,-7.28981558558901
2.91968127980902,-0.9248563011439802,2.0977213611300187,-1.8395729557000304,-0.9452367944389458,-7.200663738099945
2.9104327167975805,-0.9343086690883696,2.0793256315730186,-1.91157959308103,-1.1998088694339353,-7.106365462230513
2.901089630106697,-0.946306757782709,2.0602098356422083,-1.982643247703335,-1.4629035718643153,-7.006739627710178
2.8916265625288697,-0.9609357935013522,2.040383403165175,-2.052710643980437,-1.7345338981736798,-6.901571284364737
2.8820172045938564,-0.978281132483089,2.0198562967253704,-2.1217263568240843,-2.014678713744617,-6.790606549018969
2.8722343932690255,-0.9984279196205352,1.9986390331571295,-2.189632422314274,-2.3032795382244617,-6.673546346056918
2.86225011407282,-1.02146071500278,1.9767427089339868,-2.256367885774843,-2.600237604878097,-6.550039101455978
2.852035506922792,-1.0474630910515608,1.9541790300762385,-2.3218682767894028,-2.9054111126516418,-6.419672529069495
2.8415608760122764,-1.0765172021780771,1.9309603473083445,-2.3860650020800978,-3.218612580012837,-6.281964681365094
2.8307957039904954,-1.1087033279782055,1.9070996972875436,-2.4488846488937486,-3.5396062082152064,-6.136354464397414
2.8197086707107135,-1.1440993900603575,1.8826108507986061,-2.5102481935377225,-3.868105168974778,-5.9821918386548285
2.80826767681011,-1.1827804417501053,1.857508368863229,-2.570070111924271,-4.203768747880647,-5.818727944167027
2.796439872392609,-1.2248181292289118,1.8318076677439863,-2.6282573913659415,-4.546199300104657,-5.645105400854519
2.78419169110032,-1.2702801222299582,1.8055250938303269,-2.6847084453744867,-4.8949390087824725,-5.460349044739812
2.7714888898780203,-1.3192295123177828,1.778678009376582,-2.7393119358218847,-5.249466478242471,-5.263357368601695
2.7582965947548423,-1.3717241771002076,1.751284890018363,-2.7919455095079018,-5.60919324332997,-5.052894943123145
2.7445793529838403,-1.4278161095335073,1.723365434923284,-2.842474458939133,-5.97346033156034,-4.8275861024695335
2.7303011918885054,-1.4875507128491108,1.6949406903338928,-2.8907503199638285,-6.3415350757881,-4.585910186996182
2.7154256847600142,-1.5509660636069917,1.6660331871342546,-2.9366094218337904,-6.7126084404564725,-4.326198645273132
2.699916024123944,-1.6180921480115564,1.6366670929159168,-2.9798714082865216,-7.085793193129696,-4.046634306932417
2.6837351026438285,-1.6889500799428534,1.6068683788330516,-3.0203377513558456,-7.460123323572182,-3.7452531452354036
2.6668456018444,-1.7635513131785752,1.5766650013194932,-3.0577902828081998,-7.834555183546365,-3.4199488510355867
2.649210088712614,-1.8418968650140388,1.5460870984914112,-3.0919897713185556,-8.207970889852541,-3.068480534310798
2.6307911200624736,-1.9239765739125643,1.5151672007782258,-3.1226745766616637,-8.579184598625464,-2.688483851017428
2.611551354323348,-2.009768419898819,1.483940455011609,-3.149559415171838,-8.946952317768758,-2.2774858161157225
2.5914536701243596,-2.0992379430765067,1.4524448608598908,-3.172334273332995,-9.30998597339937,-1.8329235018616932
2.5704612906935944,-2.1923378028105005,1.420721518126561,-3.190663508351612,-9.66697248159105,-1.3521667268826159
2.5485379126654895,-2.289007527626411,1.3888148830430447,-3.2041851756204385,-10.016598594510722,-0.8325447088660006
2.5256478373892253,-2.389173513571518,1.3567730312868402,-3.2125106227090985,-10.357582286066288,-0.271376474724971
2.50175610225351,-2.492749336432181,1.3246479250597492,-3.215224387456348,-10.688711412449832,0.33399540963486263
2.476828608889188,-2.5996364505566794,1.2924956811851858,-3.2118844333599994,-11.008890324110126,0.9861685174058287
2.4508322443836215,-2.7097253537977806,1.2603768368515857,-3.202022748185941,-11.317195015533917,1.6876427244467977
2.423734990845644,-2.8228973039531198,1.2283566093697262,-3.185146320941473,-11.61293727735467,2.440782345940853
2.3955060178061127,-2.9390266767266664,1.1965051461603116,-3.1607384974820643,-11.895738163755192,3.2477801979579417
2.366115751038846,-3.057984058364218,1.164897761185491,-3.128260695502485,-12.165610911837572,4.110626042010961
2.335535910455204,-3.179640167482594,1.133615154230466,-3.0871544350823754,-12.423053256689206,5.0310823982903035
2.303739508780378,-3.3038707000494862,1.1027436098796422,-3.0368436110994725,-12.66914888706845,6.010671230179295
2.270700801779883,-3.4305621889201707,1.0723751737686473,-2.9767368987976797,-12.905677593844477,7.050675461941447
2.2363951798906814,-3.5596189648586156,1.0426078047806706,-2.906230144178265,-13.135233485888735,8.152159625691617
2.2007989902420952,-3.690971299717503,1.013545503338888,-2.824708547921349,-13.361350485791258,9.316014046033146
2.16388927724492,-3.824584804575416,0.9852984178596745,-2.7315484074610175,-13.588634148053906,10.543026719472099
2.1256434291991657,-3.960471146055955,0.9579829337850644,-2.6261181402662963,-13.822898598329527,11.83398621785194
2.086038717738606,-4.098700132039251,0.9317217523824014,-2.507778278087777,-14.071306924221876,13.189817208518006
2.0450517164182136,-4.23941320128147,0.9066439696015236,-2.375880106002597,-14.342512358393774,14.61174700292215
2.002657584405399,-4.382838324865407,0.8828851685414977,-2.2297626359733753,-14.646795524816532,16.10149602973893
1.9588292011567447,-4.529306280113572,0.8605875421817639,-2.068747675675986,-14.996188855435156,17.661475766975844
1.913536138355609,-4.679268168667924,0.8399000654250041,-1.8921329180062274,-15.404571221689647,19.294961857849497
1.8667434566689298,-4.83331388088482,0.8209787362449418,-1.6991832994277325,-15.88770068025669,21.006183363416472
1.8184103178600817,-4.992190887687387,0.8039869032506645,-1.4891214657935679,-16.46312543382099,22.8002235275085
1.7684884089832078,-5.156822142025597,0.7890956885927288,-1.2611192305184828,-17.149862976514086,24.682549474105038
1.7169201875629518,-5.328320771790738,0.776484496287544,-1.0142937357774324,-17.967648315812735,26.657854716907607
1.6636369798450446,-5.507997254948865,0.7663415589297697,-0.7477151886083564,-18.935396265628942,28.727670515216793
1.608557007295556,-5.697351217605155,0.7588644070436862,-0.46043848345618843,-20.068255392335587,30.885818410534412
1.5515834951195044,-5.89803377152851,0.7542600222091242,-0.15158029935084433,-21.372187095668725,33.11014841600838
1.4926031574042193,-6.111755642485198,0.7527442192156159,0.17952118480923945,-22.834308134038768,35.34803873369973
1.4314856009793673,-6.3400987238255855,0.7545394310637082,0.5330015721462368,-24.40627295565568,37.49181977520668
1.3680846137411113,-6.584161453382142,0.7598694467851707,0.9079197698983036,-25.977025412941256,39.33906359959061
1.30224299920729,-6.843931707511555,0.7689486444841537,1.3013104058942098,-27.331566130265006,40.53338396410041
1.2338036821321743,-7.117247368814205,0.7819617485430957,1.7066442455352138,-28.09765438718685,40.48935290381946
1.1626312084440322,-7.398223912686073,0.7990281909984479,2.1115377745734083,-27.700696965328692,38.331933494799735
1.0886489693171715,-7.67523088233936,0.820143568744182,2.494857109521406,-25.388705063973614,32.94085414729248
1.0118966604937778,-7.929117932979096,0.8450921398393961,2.8242656509943305,-20.443182333687794,23.267309812469737
0.9326054811639868,-8.133549756315974,0.8733347963493394,3.056938749119028,-12.664928469513029,9.049968423993917
0.8512699836008271,-8.260199041011104,0.9039041838405297,3.147438433358967,-2.937893721084008,-8.356123691053131
0.768667993190716,-8.289577978221944,0.9353785681741194,3.063877196448436,6.7685668997358555,-25.964877652262807
0.6857722134084966,-8.221892309224586,0.9660173401386037,2.804228419925808,14.378196150275512,-40.57645329240984
0.6035532903162507,-8.07811034772183,0.9940596243378619,2.39846388700171,18.894043848644767,-50.52653077170811
0.5227721868390324,-7.889169909235383,1.018044263207879,1.8931985792846286,20.623426115657253,-56.06631114272326
0.44388048774667854,-7.682935648078811,1.0369762490007253,1.332535467857396,20.518583798381837,-58.443110766178584
0.36705113126589045,-7.477749810094992,1.0503016036792991,0.7481043601956101,19.513059929462887,-58.93627845258413
0.29227363316494054,-7.282619210800363,1.0577826472812553,0.15874157566976876,18.257940613864864,-58.45219584627308
0.21944744105693692,-7.100039804661715,1.059370063037953,-0.42578038279296204,17.13086111855909,-57.516540943371254
0.14844704301031977,-6.928731193476124,1.0551122592100233,-1.0009457922266747,16.323950084475662,-56.390729965720695
0.07915973107555853,-6.765491692631367,1.0451028012877566,-1.5648530918838817,15.921494929993072,-55.18167216236283
0.011504814149244855,-6.606276743331437,1.0294542703689178,-2.11666981350751,15.949569405995337,-53.91563163379503
-0.05455795328406951,-6.446781049271483,1.0082875722338427,-2.6558261298454604,16.403481167517825,-52.58208983545379
-0.11902576377678435,-6.282746237596305,0.9817293109353881,-3.1816470281999982,17.261669738467006,-51.15855905923307
-0.1818532261527474,-6.110129540211635,0.9499128406533881,-3.693232618792329,18.492294244300858,-49.624461226524666
-0.24295452155486374,-5.925206597768627,0.9129805144654648,-4.189477231057576,20.056267797549253,-47.96890241799921
-0.30220658753255003,-5.7246439197931345,0.871085742154889,-4.669166255237568,21.90884237710519,-46.19494518166349
-0.3594530267304814,-5.505555496022082,0.8243940796025133,-5.131115707054203,24.00087496250571,-44.32170251601826
-0.41450858169070226,-5.265546746397026,0.7730829225319713,-5.574332732214386,26.28034377125983,-42.3849142884607
-0.4671640491546725,-5.002743308684427,0.7173395952098275,-5.998181875098993,28.694343314459342,-40.4363601767394
-0.5171914822415168,-4.715799875539834,0.6573577764588375,-6.402545476866387,31.19156132027402,-38.54234884887194
-0.5643494809969152,-4.403884262337094,0.5933323216901737,-6.787968965355106,33.72507439863937,-36.7814973779324
-0.6083883236202862,-4.0666335183507005,0.5254526320366226,-7.15578393913443,36.25516355728559,-35.24200416165985
-0.6490546588037932,-3.7040818827778446,0.4538947926452783,-7.508203980751029,38.75172133933512,-34.018557299544824
-0.6860954776315716,-3.3165646693844932,0.37881275283776805,-7.848389553746477,41.19566093988346,-33.20883153546789
-0.7192611243254166,-2.9046080599856587,0.3003288573003033,-8.180477869101155,43.57846727101096,-32.90909582253394
-0.7483072049252731,-2.468823387275549,0.21852407860929174,-8.509568827326495,45.89850053939071,-33.20758234860532
-0.7729954387980287,-2.0098383818816417,0.13342839033602677,-8.841644650812547,48.15159969582643,-34.17259813927848
-0.7930938226168451,-1.5283223849233774,0.04501194382790129,-9.183370632205332,50.311477600460236,-35.829272823480125
-0.8083770464660789,-1.025207608918775,-0.04682176249415203,-9.541663360440133,52.29173792296045,-38.11344963434238
-0.8186291225552667,-0.5022902296891705,-0.14223839609855338,-9.922797856783557,53.8758557393742,-40.78308480167616
-0.8236520248521584,0.036468327704571535,-0.24146637466638896,-10.330628704800318,54.596924440590485,-43.26007294557245
-0.8232873415751126,0.5824375721104764,-0.34477266171439214,-10.763229434256044,53.559885349995085,-44.38800329618477
-0.8174629658540079,1.1180364256104274,-0.4524049560569526,-11.207109467217892,49.27143077569702,-42.186978076536306
-0.8062826015979037,1.6107507333673976,-0.5644760507291315,-11.628979247983255,39.76131097683034,-33.983071827358906
-0.7901750942642297,2.008363843135701,-0.680765843208964,-11.968809966256844,23.592606670198517,-17.723960552906785
-0.7700914558328728,2.2442899098376863,-0.8004539428715325,-12.14604957178591,1.9823430489451246,5.204666394423153
-0.7476485567344959,2.2641133403271376,-0.9219144385893916,-12.094002907841679,-19.997952046731328,28.392121263886136
-0.7250074233312246,2.0641338198598245,-1.0428544676678084,-11.810081695202818,-36.34872523075457,44.325269472447815
-0.7043660851326263,1.7006465675522788,-1.1609552846198365,-11.36682900047834,-44.78057703886434,50.456866242668944
-0.6873596194571036,1.2528407971636355,-1.27462357462462,-10.862260338051652,-47.02834134062045,49.392214609856616
-0.6748312114854672,0.782557383757431,-1.3832461780051364,-10.368338191953086,-45.887861945954796,44.8735623424946
-0.6670056376478929,0.323678764297883,-1.4869295599246672,-9.91960256852814,-43.355120063628284,39.42234444082582
-0.663768850004914,-0.10987243633839983,-1.5861255856099485,-9.525379124119882,-40.46161222822476,34.244996079023146
-0.664867574368298,-0.5144885586206474,-1.6813793768511474,-9.18292916332965,-37.64041646405261,29.776679629655593
-0.6700124599545045,-0.8908927232611734,-1.773208668484444,-8.885162367033095,-35.03194588932529,26.098902915370815
-0.6789213871871163,-1.2412121821544264,-1.8620602921547749,-8.624173337879387,-32.65158383613693,23.15650526608694
-0.6913335090086605,-1.5677280205157957,-1.9483020255335688,-8.392608285218518,-30.46844811597948,20.853345915884923
-0.7070107892138184,-1.8724125016755906,-2.032228108385754,-8.18407482605967,-28.439577484498383,19.089988685674907
-0.7257349142305743,-2.1568082765205743,-2.114068856646351,-7.9931749392029205,-26.523786341948085,17.77639669956292
-0.7473029969957801,-2.422046139940055,-2.19400060603838,-7.8154109722072915,-24.686660995396043,16.834641348072207
-0.7715234583951807,-2.6689127498940155,-2.2721547157604527,-7.647064558726569,-22.90182039615425,16.19802867050827
-0.7982125858941208,-2.8979309538555578,-2.3486253613477186,-7.485084272021487,-21.150662598889593,15.809253833816154
-0.8271918954326763,-3.1094375798444536,-2.4234762040679336,-7.326991733683325,-19.421537239982648,15.618580400807952
-0.8582862712311209,-3.30365295224428,-2.496746121404767,-7.170805929675246,-17.70873037467797,15.5823698265598
-0.8913228007535637,-3.4807402559910594,-2.5684541807015195,-7.014982231409648,-16.011414751183317,15.66201555727877
-0.9261302033134743,-3.6408544035028925,-2.638604003015616,-6.85836207583686,-14.332625330761228,15.823233263835773
-0.9625387473485032,-3.7841806568105048,-2.7071876237739847,-6.700129743198502,-12.678286309542196,16.035626154141635
-1.0003805539166082,-3.910963519905927,-2.77418892120597,-6.539773481657086,-11.056306211715196,16.272440951140748
-1.0394901891156674,-4.021526582023079,-2.839586656022541,-6.377049072145678,-9.475755844864949,16.510438892637545
-1.0797054549358982,-4.116284140471729,-2.9033571467439976,-6.211944683219303,-7.946143206771667,16.729819755344703
-1.1208682963406156,-4.195745572539446,-2.9654765935761906,-6.044646485665856,-6.476797305418201,16.914152110651187
-1.1628257520660101,-4.260513545593628,-3.0259230584328494,-5.875504964559345,-5.07636888101578,17.050277995523242
-1.2054308875219464,-4.311277234403786,-3.084678108078443,-5.705002184604112,-3.7524507369910545,17.128173781626465
-1.2485436598659843,-4.348801741773697,-3.141728129924484,-5.533720446787847,-2.5113146680158707,17.140760477325045
-1.2920316772837213,-4.3739148884538555,-3.1970653343923625,-5.362312842014597,-1.3577566686967177,17.08366555633245
-1.3357708261682597,-4.387492455140823,-3.2506884628125086,-5.191476186451273,-0.2950378564181378,16.954944548664336
-1.379645750719668,-4.390442833705004,-3.3026032246770214,-5.02192674096463,0.6750942990711932,16.754774214283593
-1.423550179056718,-4.383691890714292,-3.3528224920866676,-4.854378998821794,1.5523211995591557,16.485130521444287
-1.467387097963861,-4.368168678718701,-3.4013662820748856,-4.689527693607351,2.3376215582885647,16.149464366510234
-1.511068784751048,-4.344792463135815,-3.448261559010959,-4.528033049942249,3.033108743460361,15.752386527944953
-1.5545167093824062,-4.314461375701211,-3.4935418895103814,-4.3705091846628,3.6418508906387745,15.299371231718203
-1.5976613231394183,-4.278042866794824,-3.5372469813570095,-4.217515472345618,4.1676854038063835,14.796485319942509
-1.6404417518073666,-4.2363660127567595,-3.5794221360804657,-4.069550619146193,4.6150370731940145,14.250147655565012
-1.6828054119349343,-4.190215642024819,-3.6201176422719277,-3.927049142590543,4.988746711485428,13.666921257065885
-1.7247075683551825,-4.140328174909965,-3.659388133697833,-3.7903799300198844,5.293915090795138,13.053338844685996
-1.7661108501042821,-4.087389024002014,-3.697291932998032,-3.6598465415730246,5.535765132038894,12.415761033863971
-1.8069847403443022,-4.032031372681625,-3.733890398413762,-3.5356889312343847,5.719523788832004,11.760265327488122
-1.8473050540711184,-3.974836134793305,-3.769247287726106,-3.4180862779595036,5.850323878410257,11.092563304516403
-1.8870534154190515,-3.9163328960092025,-3.803428150505701,-3.3071606449143394,5.933125218918692,10.417942933326277
