th1 (rad),w1 (rad/s),th2 (rad),w2 (rad/s)
0.14849055687140453,-0.7619071295928823,2.816684116590427,-1.2814684203603897
0.1408714855754757,-0.8047178756461784,2.803869432386823,-1.353501360448161
0.13282430681901392,-0.8464250945973067,2.7903344187823413,-1.4259760521855493
0.12436005587304085,-0.8869400960951215,2.776074658260486,-1.498890028622615
0.11549065491208962,-0.9261705823567176,2.76108575797426,-1.572236464580946
0.10622894908852244,-0.9640204686088655,2.7453633933284505,-1.646003872229728
0.09658874440243378,-1.0003897175735332,2.728903354606153,-1.7201758038602257
0.08658484722669846,-1.0351741930661476,2.711701596567551,-1.7947305676124816
0.07623310529603698,-1.068265538608235,2.6937542908914263,-1.8696409631157462
0.06555044990995464,-1.0995510878250596,2.675057881260269,-1.9448740453276776
0.05455493903170404,-1.1289138142755866,2.6556091408069924,-2.0203909262755904
0.04326580088894817,-1.1562323292082415,2.6354052315442367,-2.096146625883485
0.03170347759686576,-1.1813809365019174,2.614443765285402,-2.1720899845655706
0.019889668231846583,-1.204229754675816,2.5927228654397463,-2.248163651720149
0.007847370685088423,-1.2246449162599353,2.5702412289225447,-2.324304165590948
-0.004399078477510931,-1.2424888549245614,2.5469981872666354,-2.400442141084454
-0.016823967026756544,-1.2576206904761926,2.522993765855791,-2.4765025829349026
-0.029400173931518468,-1.2698967210363945,2.498228740026442,-2.552405341974916
-0.042099141141882415,-1.279171030324755,2.472704686606693,-2.6280657320735235
-0.054890851445129965,-1.2852962158679577,2.446424029285958,-2.7033953244186275
-0.06774381360380954,-1.288124241068278,2.419390076041772,-2.7783029341312364
-0.08062505601449232,-1.2875074103249688,2.3916070467004595,-2.852695811608619
-0.09350013011774201,-1.2832994617853601,2.3630800885843732,-2.9264810474429046
-0.10633312473559561,-1.2753567668314618,2.3338152781099444,-2.9995671952411795
-0.11908669240391023,-1.2635396191643444,2.3038196061575325,-3.0718661112397334
-0.13172208859555368,-1.2477135894831626,2.273100945045135,-3.143295003396211
-0.1441992244903853,-1.2277509144926622,2.2416679950111726,-3.213778675887765
-0.15647673363531192,-1.2035318816094223,2.209530208252295,-3.2832519479662707
-0.16851205245140616,-1.1749461636340421,2.176697688772632,-3.3516622193429617
-0.18026151408774657,-1.141894051221466,2.1431810665792024,-3.4189721481968487
-0.19168045459996122,-1.1042875256413363,2.108991345097234,-3.4851624030872927
-0.2027233298563746,-1.0620511104846353,2.074139721066361,-3.5502344470934495
-0.21334384096122094,-1.0151224389925249,2.0386373765954264,-3.614213311983806
-0.2234950653511462,-0.9634524738035373,2.0024952434755883,-3.677150322664402
-0.23312959008918155,-0.9070053182315366,1.9657237402489443,-3.7391257379923277
-0.2421996432714969,-0.8457575626067461,1.928332482869021,-3.800251283562622
-0.25065721889756437,-0.7796971154293604,1.8903299700333946,-3.8606725654109995
-0.258454190051858,-0.7088214765701129,1.8517232443792846,-3.920571370682539
-0.26554240481755914,-0.6331354177610438,1.8125175306724592,-3.9801678820056243
-0.2718737589951696,-0.552648043224393,1.772715851852403,-4.039722856275864
-0.2774002394274135,-0.46736920942214566,1.7323186232896444,-4.099539845439947
-0.28207393152163496,-0.37730528643054045,1.691323224835245,-4.159967566344306
-0.28584698438594036,-0.28245424320296236,1.6497235491718019,-4.221402558559228
-0.28867152681797,-0.18280003389958718,1.6075095235862096,-4.2842923032750795
-0.29049952715696586,-0.07830625160207295,1.5646666005534589,-4.3491390131005625
-0.2912825896729866,0.03109100158379155,1.5211752104224532,-4.416504342310947
-0.29097167965714865,0.1454911030894281,1.4770101669993436,-4.487015310353767
-0.28951676862625436,0.26503786259369655,1.432140013895806,-4.561371778603267
-0.2868663900003174,0.3899295797064978,1.3865262961097733,-4.64035587105184
-0.2829670942032524,0.5204303842287721,1.3401227373992548,-4.724843781420542
-0.2777627903609647,0.6568830676566282,1.2928742995850493,-4.815820455338279
-0.2711939596843984,0.7997236259132792,1.2447160950316665,-4.914397661415748
-0.2631967234252656,0.9494976979207136,1.195572118417509,-5.02183593706659
-0.2537017464460585,1.1068789514028234,1.145353759046843,-5.139570749488808
-0.24263295693203024,1.2726891395888356,1.093958051551955,-5.26924282382397
-0.22990606553614187,1.4479188481183873,1.0412656233137152,-5.412731717597921
-0.215426877054958,1.6337465277325258,0.987138306137736,-5.572189901757132
-0.19908941177763273,1.8315506220573843,0.9314164071201647,-5.750070968163144
-0.18077390555705888,2.042904251071853,0.8739156974385333,-5.94913847233061
-0.16034486304634035,2.269531793122485,0.8144243127152272,-6.172428281008949
-0.1376495451151155,2.5131878884118968,0.7527000299051377,-6.423111632743605
-0.11251766623099654,2.775385315069343,0.6884689135777017,-6.704159200142124
-0.08476381308030312,3.056839617812746,0.6214273215762804,-7.0176250232584785
-0.054195416902175664,3.3564082686539347,0.5512510713436957,-7.363242548973201
-0.020631334215636316,3.66919931117973,0.47761864585396363,-7.735877334626053
0.016060658896160984,3.983529992091488,0.4002598725077031,-8.121377303016095
0.05589595881707587,4.276925360301856,0.31904609947754214,-8.491048126745131
0.09866521242009443,4.513159115935316,0.23413561821009082,-8.797470421676906
0.1437968035794476,4.645746228454816,0.14616091399332176,-8.9790880913845
0.19025426586399577,4.634348214617085,0.05637003307947676,-8.982473178088528
0.23659774801016661,4.469576780731269,-0.03345469870140852,-8.796028905704699
0.2812935158174793,4.18309244736495,-0.12141498775845551,-8.4633543542712
0.3231244402911288,3.828426433685338,-0.20604853130116751,-8.056613423992816
0.3614087046279822,3.4530105913960636,-0.2866146655410957,-7.638504312118137
0.3959388105419428,3.085830514836677,-0.3629997086622771,-7.2460839717965815
0.4267971156903096,2.7399287073488328,-0.4354605483802429,-6.894783021640606
0.4541964027637979,2.4189176726413164,-0.504408378596649,-6.587550755421953
0.4783855794902111,2.1219439695315194,-0.5702838861508686,-6.321643396803291
0.4996050191855263,1.8464513632998167,-0.6335003201189014,-6.092313901060972
0.5180695328185244,1.58949497233107,-0.6944234591295112,-5.8945102219205
0.5339644825418352,1.3482948671565487,-0.7533685613487162,-5.723549951382541
0.5474474312134007,1.1204313764085259,-0.8106040608625417,-5.575325268079668
0.5586517449774859,0.9038838957875679,-0.8663573135433383,-5.446311053930915
0.5676905839353616,0.6970073880753807,-0.9208204240826475,-5.333500877009762
0.5746606578161154,0.4984884464181413,-0.9741554328527451,-5.234324713729209
0.5796455422802969,0.3072985060222996,-1.026498679990037,-5.14657003540775
0.5827185273405199,0.12265084317519742,-1.0779643803441146,-5.068313711894794
0.5839450357722719,-0.05603677150663264,-1.1286475174630626,-4.997866225380497
0.5833846680572056,-0.2291738588925415,-1.1786261797168676,-4.933727376661204
0.5810929294682802,-0.3970242501028695,-1.2279634534834796,-4.8745519295058655
0.5771226869672514,-0.5597292838167988,-1.2767089727785383,-4.819123545352395
0.5715253941290834,-0.7173280533054246,-1.3249002082320622,-4.766335500017123
0.5643521135960292,-0.8697754185224573,-1.3725635632322335,-4.715176872162995
0.5556543594108047,-1.0169583247644418,-1.4197153319538633,-4.6647230820304575
0.5454847761631603,-1.1587108046263705,-1.4663625627741679,-4.614129817638621
0.5338976681168965,-1.2948278953286372,-1.5125038609505541,-4.562629513661695
0.5209493891636102,-1.4250785834345967,-1.558130156087171,-4.5095296525009685
0.5066986033292643,-1.5492177952676407,-1.6032254526121807,-4.454212246651686
0.4912064253765879,-1.6669973844694108,-1.6477675750786975,-4.396133944471312
0.4745364515318938,-1.7781760276840375,-1.6917289145234107,-4.334826284005945
0.4567546912550534,-1.8825279238456545,-1.7350771773634701,-4.26989570516436
0.43792941201659685,-1.9798501993355688,-1.7777761344151137,-4.201023020142034
0.41813091002324115,-2.0699689464825393,-1.819786364616534,-4.127962134122685
0.39743122055841573,-2.1527438615686094,-1.8610659859577607,-4.050537899635369
0.37590378194272966,-2.228071495054387,-1.9015713649541144,-3.968643074149632
0.3536230669921858,-2.295887175369238,-1.9412577956956107,-3.882234426911668
0.33066419523849344,-2.356165712952996,-1.9800801399647274,-3.791328103539134
0.3071025381089635,-2.4089210288534337,-2.017993421000119,-3.695994402528816
0.28301332782042915,-2.4542048789701103,-2.054953365025407,-3.596352145168984
0.25847127903072803,-2.4921048594011044,-2.090916886477097,-3.49256282964787
0.233550230436717,-2.5227418802067656,-2.1258425147735758,-3.3848247532253866
0.20832281163464933,-2.546267285465428,-2.1596907623058295,-3.2733672662200406
0.18286013877999505,-2.562859778936299,-2.19242443496803,-3.158445292050476
0.15723154099063205,-2.572722289707836,-2.2240088878885347,-3.0403342127214
0.1315043180935537,-2.57607888381126,-2.2544122300157485,-2.919325182831704
0.1057435292554411,-2.5731717986667353,-2.2836054818440656,-2.79572090074428
0.08001181126877374,-2.5642586497350544,-2.3115626908515083,-2.6698318355608426
0.0543692247714232,-2.5496098346339315,-2.3382610092071165,-2.541972884692201
0.02887312642508388,-2.5295061403865877,-2.3636807380540388,-2.4124604199496247
0.0035780650212180014,-2.504236544942671,-2.387805342253535,-2.2816096702891664
-0.02146430042820871,-2.474096194666486,-2.4106214389564267,-2.1497323860853434
-0.046205262374873574,-2.439384534729461,-2.43211876281728,-2.0171347321150033
-0.07059910772216818,-2.40040356858323,-2.45229011013843,-1.884115363042665
-0.09460314340800048,-2.3574562250602744,-2.4711312637688567,-1.7509636447410883
-0.11817770565860322,-2.3108448162121036,-2.4886409002162675,-1.6179579958922676
-0.14128615382072426,-2.260869574826121,-2.5048204801751903,-1.4853643357452315
-0.16389484956898548,-2.2078272668186383,-2.5196741235326425,-1.353434634596717
-0.18597312223717186,-2.1520098796685367,-2.5332084698786095,-1.2224055726826415
-0.20749322103385723,-2.0937033931771767,-2.545432525605436,-1.092497320153253
-0.228430254965629,-2.033186642729285,-2.5563574988069684,-0.96391245534194
-0.24876212139292184,-1.970730287670091,-2.565996623360388,-0.8368350405567991
-0.2684694242696227,-1.906595898346043,-2.574364973765956,-0.7114298742642355
-0.28753538325308314,-1.8410351748549492,-2.581479272508598,-0.5878419361010836
-0.30594573500163263,-1.7742893087979668,-2.587357691869609,-0.46619603707055657
-0.3236886280896123,-1.7065884965772538,-2.5920196522403147,-0.34659668204040994
-0.34075451305538484,-1.6381516093387252,-2.5954856190607187,-0.22912814578153085
-0.35713602914877207,-1.5691860208309847,-2.597776900518534,-0.1138547577513106
-0.37282788935708194,-1.4998875905367381,-2.5989154480960472,-0.0008213850709856141
-0.3878267652624493,-1.430440795694452,-2.598923661946757,0.10994590197956566
-0.40213117321939384,-1.3610190024788118,-2.5978242029269616,0.21843900186682413
-0.415741363244182,-1.291784863804453,-2.5956398129082934,0.32466681422502913
-0.4286592118822265,-1.2228908290550626,-2.592393144766043,0.42865415800620565
-0.4408881201727771,-1.1544797495600012,-2.588106603185981,0.5304406015831759
-0.4524329176683771,-1.086685562835046,-2.582802197170149,0.6300792310452916
-0.46329977329672756,-1.0196340384255194,-2.5765014048596964,0.727635382080441
-0.47349611368098277,-0.9534435685632918,-2.569225051038892,0.8231853592944787
-0.48303054936661566,-0.8882259876805184,-2.5609931974459474,0.9168151647592824
-0.49191280924342085,-0.8240874060110137,-2.5518250457983545,1.008619255180899
-0.5001536833035309,-0.7611290439536392,-2.5417388532465455,1.0986993445054118
-0.5077649737430673,-0.6994480554763313,-2.5307518598014913,1.187163266178096
-0.5147594542978305,-0.6391383305209429,-2.5188802271397104,1.2741239067625267
-0.5211508376030399,-0.5802912680582795,-2.506138988072085,1.359698220305591
-0.5269537502836227,-0.5229965130850386,-2.492542005869029,1.444006330770829
-0.5321837154144731,-0.46734265241030604,-2.4781019425613207,1.5271707281011286
-0.5368571419385761,-0.4134178655233824,-2.4628302352803093,1.60931556203633
-0.5409913205938099,-0.3613105281541219,-2.446737079659946,1.6905660367081699
-0.5446044258753512,-0.31110976732934614,-2.429831419292864,1.7710479082567767
-0.5477155235486446,-0.26290596780050035,-2.412120940210296,1.8508870872421872
-0.5503445832266496,-0.2167912306813009,-2.393612069337874,1.9302093474367605
-0.5525124955334626,-0.17285978600698537,-2.3743099758635067,2.009140142651668
-0.5542410933935324,-0.13120836172899447,-2.35421857443699,2.0878045335429096
-0.5555531770108224,-0.09193651241167386,-2.333340529101561,2.166327226829744
-0.5564725421349391,-0.05514691162164941,-2.3116772568332635,2.244832730012574
-0.5570240112511556,-0.0209456127147475,-2.2892289295331376,2.3234456254717215
-0.5572334673783031,0.010557716554936245,-2.2659944732784205,2.402290968738902
-0.5571278902127538,0.039249579443884075,-2.2419715635910316,2.4814948167366815
-0.5567353944183149,0.0650124487324439,-2.2171566154236646,2.561184892855233
-0.5560852699309904,0.08772457066513918,-2.191544766495112,2.6414913968552645
-0.555208024224339,0.10725976588848392,-2.1651298525265594,2.7225479687198004
-0.5541354265654542,0.12348721825897346,-2.1379043728393614,2.8044928166815866
-0.5529005543828645,0.1362712418213503,-2.1098594446725456,2.887470020660988
-0.5515378419646509,0.1454710159215202,-2.0809847444659355,2.9716310231582117
-0.5500831318054358,0.15094027848980443,-2.0512684342343532,3.0571363200910926
-0.5485737290205377,0.1525269682638231,-2.0206970710334424,3.144157363900357
-0.5470484593378995,0.15007280849599688,-1.989255497394439,3.2328786900593176
-0.5455477312529395,0.1434128280715754,-1.9569267104938457,3.3235002753048652
-0.5441136029722238,0.13237482178378399,-1.9236917077407971,3.416240130494725
-0.5427898547543859,0.11677876101106402,-1.8895293064358498,3.511337121522239
-0.5416220671442753,0.09643618105694375,-1.8544159352206275,3.609053995933757
-0.5406577053337058,0.07114959468433452,-1.81832539526129,3.7096805673595026
-0.5399462093868624,0.04071201698647822,-1.781228589587695,3.813536969354709
-0.5395390892169977,0.004906740780684295,-1.7430932198941478,3.9209768268052807
-0.5394900218091908,-0.03649241671960382,-1.703883451626095,4.032390094639333
-0.5398549459763868,-0.08372005257049975,-1.6635595506797016,4.148205162033561
-0.5406921465020919,-0.13701677498892306,-1.622077499059366,4.268889588370219
-0.542062314251981,-0.19662465713474903,-1.5793886031756639,4.39494848445455
-0.5440285608233285,-0.2627793393297263,-1.5354391183311185,4.52691901990814
-0.5466563542166257,-0.33569697178351443,-1.490169928132037,4.665358741306066
-0.5500133239344609,-0.41555331874007817,-1.4435163407189764,4.810824211659342
-0.5541688571218617,-0.5024511059129164,-1.395408098602383,4.963834788468357
-0.5591933681809909,-0.5963699929413698,-1.3457697507176993,5.124813999070328
-0.5651570681104046,-0.6970913625902143,-1.2945216107269961,5.293997878151086
-0.5721279817363067,-0.8040876271746465,-1.2415816319454853,5.4712960119807414
-0.5801688580080532,-0.916363701162706,-1.1868686718256778,5.656087828523541
-0.5893324950196802,-1.0322386178468117,-1.1303077935404424,5.846936443869006
-0.5996548811981484,-1.1490621686891522,-1.0718384291017524,6.0412107652800024
-0.6111455028850399,-1.2628825211117976,-1.0114263214489525,6.234633935821213
-0.6237743280961578,-1.3681267210403354,-0.9490799820907404,6.420837379915404
-0.6374555953065612,-1.4574343354125028,-0.8848716082915864,6.5911054752637295
-0.6520299386606861,-1.5218800375196346,-0.8189605535389491,6.73462635345686
-0.6672487390358824,-1.5518624208742833,-0.7516142900043805,6.83962310171777
-0.6827673632446253,-1.538785331297469,-0.6832180589872028,6.895538134627199
-0.6981552165575999,-1.47721220979521,-0.6142626776409308,6.895842311018076
-0.712927338655552,-1.3666146912745483,-0.54530425453075,6.8402881369847615
-0.7265934855682975,-1.2117148419820352,-0.4769013731609024,6.735273865146265
-0.7387106339881179,-1.0211218623442426,-0.4095486345094398,6.591948107661307
-0.7489218526115603,-0.8050045808999433,-0.34362915343282674,6.423086039858858
-0.7569718984205598,-0.5729589660817533,-0.27939829303423813,6.240300833784722
-0.7627014880813773,-0.33277848267055776,-0.2169952846963909,6.05251078933404
-0.7660292729080829,-0.09014006488825416,-0.1564701768030505,5.865637209698983
-0.7669306735569654,0.15114873335410964,-0.09781380470606067,5.6830294650644975
-0.7654191862234243,0.3886978288069925,-0.040983510055415694,5.506131898114172
-0.7615322079353544,0.621090835115973,0.014077808925726028,5.335112921325679
-0.7553212995841946,0.8475328639178381,0.06742893813898282,5.16935421536846
-0.7468459709450161,1.0676009405049194,0.11912248029266742,5.007793796906277
-0.7361699615399669,1.2810797279830906,0.1692004182617302,4.849151990171671
-0.723359164260136,1.4878596894872926,0.21769193816344692,4.692074302802141
-0.7084805673652631,1.687877958503168,0.26461268119146836,4.535219219919488
-0.6916017877802314,1.8810872765808184,0.30996487339066325,4.377310981660213
-0.6727909150144232,2.0674428871778536,0.3537379832072654,4.217170666727496
-0.6521164861426447,2.246900647558174,0.39590968987454034,4.053733998547563
-0.629647479667063,2.4194219328670084,0.436447029860016,3.88606098109015
-0.605453260338393,2.5849824234876166,0.4753076396709175,3.7133403370018065
-0.5796034361035168,2.7435828404418965,0.5124410430409355,3.5348903897284187
-0.5521676076990979,2.8952603153416683,0.5477899469382197,3.350157230674
-0.5232150045456813,3.0400994834016033,0.5812915192449597,3.158710556854879
-0.4928140097116652,3.1782426565607884,0.6128786248135085,2.960237332949773
-0.46103158314605736,3.3098986225145786,0.6424809981430063,2.7545333463796338
-0.42793259692091157,3.4353497557218295,0.6700263316068027,2.5414927354246566
-0.3935790993636933,3.5549572341149522,0.6954412589610492,2.3210956470287614
-0.35802952702254376,3.669164235268407,0.7186522154313368,2.0933943041015293
-0.3213378846698597,3.778497034822067,0.7395861584723521,1.8584979230435241
-0.28355291432163904,3.8835639374760214,0.7581711377027873,1.616557121791541
-0.24471727494687884,3.9850519189968994,0.7743367089207027,1.3677487090299139
-0.20486675575690985,4.083720719665831,0.7880141960110019,1.1122620730561754
-0.16402954856025154,4.1803938667922615,0.7991368167415637,0.8502888406694246
-0.12222560989232892,4.275945660949283,0.8076397051482579,0.582018125917509
-0.07946615328283609,4.3712824591456405,0.8134598864074329,0.3076406447209131
-0.03575332869137968,4.467315520945997,0.816536292854642,0.027366386465891512
0.008919826518080293,4.5649211138456085,0.8168099567193009,-0.2585373984807913
0.05456903765653638,4.664881355128663,0.8142245827344929,-0.5496782104569344
0.101217851207823,4.767796314664911,0.8087278006299236,-0.845426732580743
0.1488958143544721,4.873954392996807,0.8002735333041161,-1.14474351255852
0.19763535828444018,4.9831448202142345,0.7888260981785309,-1.4459217399374933
0.24746680648658254,5.094395854396933,0.7743668807791559,-1.7462242587810144
0.29841076503055186,5.205630720102428,0.7569046381913458,-2.0414058106838473
0.35046707223157614,5.313261491944038,0.7364905800845073,-2.3251524246861783
0.4035996871510165,5.411804762932917,0.7132390558376455,-2.588560969121862
0.45771773478034566,5.493712566287394,0.6873534461464268,-2.8199374802474697
0.5126548604432196,5.549740821863779,0.6591540713439521,-3.005373915773906
0.5681522686618574,5.570208459050707,0.6291003321862131,-3.1306022252975683
0.6238543532523645,5.547222105590525,0.5977943099332375,-3.1842222587648203
0.6793265743082697,5.477252938274216,0.5659520873455892,-3.1614150706814694
0.7340991036910118,5.362760712428003,0.5343379366387745,-3.0662675482369695
0.7877267108152919,5.211729464512283,0.5036752611564048,-2.911079906563473
0.8398440054604147,5.035258114268458,0.4745644620907701,-2.7128585523347124
