th1 (rad),w1 (rad/s),th2 (rad),w2 (rad/s)
0.7250788029265676,-2.7926485737712343,4.413966644279529,-0.47831542748959993
0.6971523171888552,-2.8056592194119676,4.409183490004633,-0.35517332878192
0.6690957249947355,-2.814967765829156,4.405631756716814,-0.22697093746942212
0.6409460473364439,-2.8208345446355434,4.40336204734212,-0.09399330162745514
0.6127377018900885,-2.8235717772082807,4.402422114325845,0.043424867914238136
0.5845019841180057,-2.823540823906233,4.402856363004988,0.18490685959040687
0.5562665758789433,-2.8211480268852225,4.404705431600892,0.3300437283228168
0.5280550956100911,-2.8168393321883345,4.40800586888412,0.4784058419559708
0.49988670228820775,-2.811093966228219,4.41278992730368,0.6295557693436687
0.4717757626259256,-2.804417514014149,4.419085484997117,0.783061995385648
0.44373158748578406,-2.7973347941805407,4.4269161049509735,0.9385129151741897
0.41575823954397867,-2.790382944697348,4.436301234102715,1.0955305747786084
0.38785441009700516,-2.7841051224432443,4.4472565398505015,1.2537836888083467
0.36001335887257274,-2.7790451827479057,4.459794376738585,1.4129995680294831
0.33222290704509366,-2.7757436479342528,4.47392437241888,1.572974723046249
0.30446547056575113,-2.774735205340253,4.489654119649343,1.7335840592161356
0.2767181185123486,-2.7765479046101835,4.506989960241504,1.8947887302662745
0.2489526394662468,-2.7817041600440175,4.525937847544167,2.0566428621026036
0.2211355978658066,-2.790723613723713,4.5465042761651935,2.2192994858799695
0.19322836172856947,-2.804127883959427,4.568697271023993,2.383016126212136
0.1651870828889752,-2.8224472136753698,4.592527432286114,2.548160575762755
0.13696261075222152,-2.8462290443455225,4.618009038043741,2.7152174533307334
0.1085003203087663,-2.876048569828526,4.645161212577048,2.8847961917961227
0.07973983461048104,-2.912521364371097,4.674009174495009,3.057641136119518
0.050614620966770066,-2.9563182185359946,4.704585585856204,3.2346444455837746
0.02105143878141012,-3.008182335472194,4.736932030312042,3.4168624722179524
-0.009030384573311824,-3.0689490009932996,4.771100655034222,3.6055361891590105
-0.039719874583244816,-3.1395676763274936,4.807156016925812,3.802115984861166
-0.07111555134651976,-3.2211260444382526,4.845177176774423,4.008290554673519
-0.10332681179090228,-3.3148746280905192,4.8852600823211585,4.2260183859745
-0.13647555807180747,-3.422248733107659,4.927520266180903,4.457557823589241
-0.17069804540288408,-3.5448807891740595,4.9720958444167955,4.705486730740905
-0.20614685329462468,-3.6845890418942338,5.019150711724205,4.972693085937491
-0.24299274371356702,-3.8433150093767097,5.06887764258358,5.262299330864665
-0.2814258938073341,-4.022956881831066,5.121500635892226,5.5774485435384005
-0.32165546262564476,-4.22500061628912,5.17727512132761,5.920817609255015
-0.36390546878853597,-4.449774146755267,5.23648329742016,6.293616252223751
-0.4084032102560886,-4.695040560579785,5.299419459942397,6.693677065845388
-0.45535361586188644,-4.953552780206681,5.366356230600851,7.112108054792366
-0.5048891436639532,-5.2093426307523245,5.437477311148775,7.528180578820127
-0.5569825699714764,-5.433541705928976,5.512759116936976,7.903539902244215
-0.6113179870307662,-5.583349918125861,5.591794515959418,8.18073815722786
-0.6671514862120248,-5.611348843542294,5.673601897531696,8.296068140403117
-0.7232649746474478,-5.488808180100475,5.756562578935727,8.211721433747064
-0.7781530564484526,-5.22788110294278,5.838679793273197,7.94621795052628
-0.8304318674778803,-4.8764485589844195,5.91814197277846,7.566800721197295
-0.8791963530677245,-4.4887789711800385,5.9938099799904325,7.148629452147523
-0.9240841427795249,-4.1030203272698405,6.0652962745119074,6.743941171185131
-0.9651143460522233,-3.738121430664575,6.132735686223759,6.378249129418104
-1.002495560358869,-3.4002010436334014,6.19651817751794,6.059429309306484
-1.036497570795203,-3.0889193682096927,6.257112470611005,5.78661043140541
-1.0673867644773,-2.8013411662425205,6.314978574925059,5.555495825466125
-1.0954001761397252,-2.533830019348235,6.37053353317972,5.360934749077798
-1.1207384763332076,-2.2828556757181206,6.424142880670498,5.197991858199805
-1.1435670330903887,-2.0452838226627073,6.476122799252496,5.062309477838481
-1.1640198713170158,-1.8184410689495925,6.526745894030881,4.950167225224777
-1.1822042820065117,-1.6000916762052204,6.576247566283129,4.858425703639932
-1.198205198768564,-1.3883860669979975,6.6248318233195285,4.784435305262438
-1.212089059438544,-1.1818059416998574,6.6726761763721525,4.725943041092259
-1.2239071188555426,-0.9791152232757814,6.719935606783075,4.681009258611294
-1.2336982710883004,-0.7793193612094707,6.766745699369188,4.647937282833694
-1.2414914647003952,-0.5816328155064281,6.8132250721975245,4.625215589207062
-1.2473077928554595,-0.38545356544464665,6.859477228089595,4.611471009723079
-1.2511623285099058,-0.1903432411603802,6.905591938186826,4.605431318004825
-1.2530657609215097,0.00398848343148947,6.951646251366874,4.60589573412679
-1.2530258760871948,0.1976964597081444,6.997705208708142,4.611712177042559
-1.2510489114901133,0.39081065814525906,7.043822330478568,4.621760364900863
-1.2471408049086607,0.5832456915184214,7.090039934127576,4.634940080639752
-1.2413083479934766,0.7748100200736602,7.136389334933973,4.650164070000383
-1.2335602477927399,0.9652154408192489,7.182890975633977,4.666355121787911
-1.2239080933845474,1.154087308705852,7.229554526851856,4.682446902050477
-1.212367220297489,1.3409757755324208,7.276378995872361,4.697388084858996
-1.1989574625421646,1.5253681631279874,7.323352876720951,4.7101492558449785
-1.1837037809108848,1.7067024153787058,7.3704543692794005,4.719731976959955
-1.1666367567570977,1.8843814079830579,7.417651689049,4.725179310877221
-1.147792942677267,2.0577877477368456,7.464903482157773,4.725587030966377
-1.1272150651998987,2.2262985785157317,7.512159352467437,4.720114706695019
-1.1049520794147414,2.3892998419355758,7.559360499534387,4.707995869854189
-1.0810590809953857,2.5461994265103556,7.606440458232929,4.688546543101065
-1.0555970867302822,2.6964386838983856,7.65332592366394,4.661171549642368
-1.0286326998912982,2.839501891348131,7.699937639160363,4.625368213075558
-1.0002376809778168,2.974923385293733,7.746191321291119,4.580727282803497
-0.9704884471248795,3.1022922657370646,7.791998594119153,4.526931160397379
-0.9394655244675089,3.2212547544582755,7.837267905723127,4.463749730616359
-0.9072529769229261,3.331514461479648,7.8819054030292905,4.391034293653004
-0.8739378323081296,3.432830955271216,7.925815745965821,4.308710233553321
-0.8396095227554174,3.525017129503848,7.9689028483013535,4.216769129913154
-0.804359351460379,3.6079359055304683,8.011070539600485,4.11526102235561
-0.7682799924050743,3.6814968044028165,8.05222314982404,4.004287474137943
-0.7314650243610461,3.7456528698129294,8.09226602456542,3.8839959627949963
-0.6940084956629168,3.800398332552214,8.13110598419337,3.754575966147843
-0.6560045123373947,3.8457672887812624,8.168651743854848,3.6162569270963236
-0.617546839449582,3.88183353011707,8.204814313125812,3.469308086058763
-0.5787285041484113,3.9087115243120167,8.2395073939864,3.3140399801754308
-0.5396413889052911,3.926558411095521,8.272647793788154,3.1508072362257167
-0.5003758047943359,3.93557675733922,8.304155866150412,2.980012140730267
-0.46102003722094365,3.9360177167574277,8.333955987557713,2.802108365557938
-0.42165986005336936,3.9281841685768955,8.361977071213293,2.617604168769575
-0.38237801836760044,3.912433372715233,8.388153112900989,2.427064384941559
-0.3432536846404481,3.8891786803593567,8.412423756750405,2.2311105709007895
-0.3043618978368545,3.858889880780487,8.434734862459413,2.030418782161838
-0.26577299902904966,3.8220918472243377,8.455039050281032,1.8257146180488082
-0.22755208055680629,3.7793612625314035,8.47329619646152,1.6177653793812592
-0.18975846793149226,3.7313213503477547,8.489473850255333,1.4073694155571363
-0.1524452544280147,3.6786346979406046,8.503547544410905,1.1953429765675896
-0.11565890744860866,3.621994416267147,8.51550097417658,0.9825051055560519
-0.07943896328593719,3.562114025361759,8.525326025232141,0.7696612847012814
-0.0438178230323196,3.499716562730696,8.533022638079155,0.55758666095112
-0.008820657405012637,3.4355234772778274,8.538598504688666,0.3470097151846864
0.02553457736776564,3.370243884918065,8.542068601840514,0.13859719510562885
0.05923701621694629,3.304564724712662,8.54345457379157,-0.06705898467906082
0.0922826634640729,3.239142272848871,8.542783983944778,-0.2694523463947702
0.12467408619256162,3.174595358053215,8.54008946048083,-0.4681696373597166
0.15642003977309377,3.1115004910630017,8.535407764107234,-0.6628957035408216
0.18753504468372378,3.0503889880719286,8.528778807071825,-0.8534155560901464
0.21803893456444307,2.991746047275805,8.520244651510923,-1.0396139134964806
0.24795639503720113,2.936011638928281,8.509848512375958,-1.2214726328391243
0.27731651142648395,2.8835829984949832,8.497633786047567,-1.3990665254951278
0.30615234141143377,2.834818471074893,8.483643120792616,-1.5725580871342937
0.33450052612218273,2.7900424411062343,8.467917539921272,-1.7421916654041198
0.36240095053324506,2.7495510897485014,8.450495623267232,-1.9082875506342634
0.3898964614307301,2.7136187469796087,8.43141274776089,-2.071236415230671
0.41703264890052616,2.682504639522403,8.410700383608583,-2.231494455292918
0.4438576952957502,2.656459872361511,8.388385439055654,-2.389579510233371
0.4704222940193653,2.6357345141163018,8.36448964395332,-2.5460683564641466
0.4967796391605283,2.6205846780086475,8.339028960388678,-2.7015952892305157
0.5229854859406148,2.6112794926889817,8.312013007496372,-2.8568520172028307
0.5490982808675046,2.6081078303207748,8.283444487324344,-3.0125887859544296
0.5751793591707123,2.611384587720282,8.2533185994648,-3.1696164985469197
0.6012932050479151,2.6214561760243718,8.22162243447933,-3.3288093804640626
0.6275077668081588,2.638704626932301,8.18833434067469,-3.4911073878238876
0.6538948130774818,2.6635493073360608,8.15342326679645,-3.657516995368856
0.6805303061508424,2.696444550576089,8.11684809684276,-3.82910808626085
0.7074947516566034,2.7378704066582227,8.078557015980152,-4.007003182641593
0.7348734557231856,2.7883119484351937,8.038486984153737,-4.192352872373457
0.7627565752075376,2.8482198008202637,7.996563455430002,-4.386287517777085
0.7912387732157402,2.917940330071215,7.952700580252231,-4.5898295294960985
0.8204181765164523,2.997597767608946,7.90680228495727,-4.803741965577018
0.8503941541925418,3.086902334116817,7.8587648653015,-5.028277753013912
0.88126317753371,3.184849505956129,7.8084820877713605,-5.262781163486041
0.9131116725932713,3.2892713211413076,7.7558542761365,-5.505086618126564
0.9460043858046844,3.3962157303533203,7.700803409955234,-5.75067958617008
0.9799665431082176,3.4991957472952624,7.643296614093533,-5.991673512763684
1.0149585005811703,3.58851503094962,7.583379878965896,-6.2158827270895145
1.0508436508906664,3.6511685261950055,7.521221051695001,-6.406673579845168
1.0873553361526165,3.672113688931602,7.457154315896549,-6.544686128849963
1.1240764730419326,3.6375533779557636,7.391707454608049,-6.612304726313119
1.1604520068214903,3.5396558389375383,7.325584407344918,-6.600074971387441
1.1958485652108657,3.3802243513575276,7.259583657631043,-6.511630831325068
1.2296508087244409,3.170445343328256,7.194467349317792,-6.363201074315629
1.2613552621577235,2.926567571159294,7.130835338574635,-6.177563559866587
1.2906209378693165,2.6645546061600416,7.069059702975969,-5.976697032274916
1.317266483930917,2.396721697442108,7.00929273265322,-5.777259271027445
1.341233700905338,2.130962875929809,6.951520139942946,-5.589655237318287
1.362543329664636,1.8715137704952742,6.895623587569763,-5.419187890716776
1.381258467369589,1.620123141285403,6.841431708662595,-5.267725343241078
1.397459698782443,1.3770583229869129,6.788754455230184,-5.1351030189329885
1.4112302820123122,1.1418020486086415,6.7374034250408545,-5.0200796348510375
1.4226483024983985,0.9134832128301074,6.6872026286923445,-4.9209169237614985
1.4317831346266996,0.6911241280662743,6.637993459454729,-4.835703330199698
1.4386943759073623,0.47377407337002,6.589636426152732,-4.762521039489795
1.4434321166410624,0.260576644649255,6.542011215757834,-4.699523177737447
1.4460378830875549,0.05080019975284539,6.49501598398046,-4.644962078619766
1.4465458850850834,-0.1561515074724551,6.448566363194263,-4.597192376597568
1.4449843700103588,-0.36073889670829373,6.402594439428287,-4.554662290752176
1.441376981043276,-0.5632911186136572,6.357047816520765,-4.515900435675565
1.4357440698571393,-0.7640128946526019,6.3118888121640095,-4.479502092509469
1.4281039409106133,-0.9629923422990877,6.267093791238915,-4.444116984870053
1.4184740174876225,-1.160209263816364,6.222652621390215,-4.408439569023192
1.4068719248494588,-1.3555437899966225,6.178568225699983,-4.371202282942517
1.3933164869494925,-1.5487854757115607,6.134856202870559,-4.331171887835813
1.377828632192377,-1.7396430287806082,6.091544483992201,-4.287148856761201
1.360432201904571,-1.9277548664489024,6.048672995424589,-4.237969650915844
1.341154653240082,-2.1127006626250444,6.0062932989154305,-4.182511639028115
1.3200276466138314,-2.2940139905846273,5.96446818252515,-4.119700340904782
1.2970875067079852,-2.471196090841785,5.923271179116102,-4.048518604884014
1.2723755457995674,-2.6437307101527363,5.882785993067262,-3.9680172590887
1.24593823869804,-2.811099871567139,5.843105820476375,-3.8773267097519954
1.2178272399823686,-2.9728003527777025,5.804332553378855,-3.7756689000372066
1.1880992364545917,-3.128360575891593,5.766575864378483,-3.6623689938900994
1.1568156306956758,-3.277357550747908,5.729952174439582,-3.5368661156878147
1.1240420551881967,-3.419433469970466,5.694583513282704,-3.3987224614792964
1.089847720488492,-3.554311530315494,5.660596288667911,-3.247630104519069
1.054304605185337,-3.6818105541288544,5.62811998762272,-3.0834148489891176
1.0174864996440485,-3.8018580088640226,5.597285839132829,-2.906036543000049
0.9794679195554082,-3.914501073091021,5.568225473702829,-2.7155853460287918
0.940322908824498,-4.019915475092223,5.541069620242541,-2.512273556509377
0.9001237540735758,-4.1184119349452715,5.515946884677447,-2.296422740087352
0.858939634724123,-4.210440171522213,5.492982657276574,-2.0684460531655335
0.8168352330089009,-4.2965905887198925,5.4722981967449185,-1.8288258216006
0.773869327121702,-4.3775939246096165,5.4540099385289125,-1.578086599103115
0.7300933878756058,-4.454319324329579,5.438229072537881,-1.31676407970111
0.68555019463231,-4.527771470774996,5.42506143174087,-1.0453703585166072
0.64027247992456,-4.599087561877054,5.414607728155704,-0.7643561128951326
0.5942816043057895,-4.6695350415861725,5.406964167026753,-0.47407030763983254
0.5475862538899278,-4.740511050459023,5.402223463950355,-0.17471802568131534
0.5001811433853376,-4.81354452740373,5.400476283693542,0.13368297159246845
0.4520456981113003,-4.89030171079891,5.4018131134094665,0.4513462561382307
0.4031426810033112,-4.9725953527288045,5.406326575970849,0.77876026849631
0.35341672747602315,-5.062397079694373,5.414114178655812,1.1167294137515895
0.3027927566790794,-5.16185063200944,5.425281472793327,1.466408711860893
0.251174250358985,-5.273280474629377,5.439945559911936,1.8293237761731829
0.19844144561269123,-5.399184137972796,5.458238797673668,2.2073595631003338
0.14444960423296327,-5.54218510687571,5.480312393304671,2.60268535588113
0.08902775316420616,-5.7049016521831915,5.506339246863482,3.0175535519827394
0.031978736642374245,-5.889648314787029,5.53651478238331,3.4538557409431534
-0.02691774650549604,-6.097820787000169,5.5710533397927415,3.912227422297446
-0.08789595437549773,-6.328715906251846,5.610175614015716,4.390354847076343
-0.1511831134380162,-6.577435535680802,5.65407916248648,4.879995761549563
-0.2169574687948242,-6.831575423371138,5.702879120101976,5.362305697976598
-0.2852732230285356,-7.067093802517075,5.7565021770817415,5.802048600761686
-0.35594416105370635,-7.24596495259234,5.814522663089359,6.144395979337237
-0.42840381057962973,-7.321835847688926,5.875966622882731,6.323107843202431
-0.501622169056519,-7.259423195048814,5.939197701314756,6.288166436270619
-0.5742164010070072,-7.0589812158931835,6.002079365677462,6.040530968543607
-0.6448062131659391,-6.7602290715040345,6.062484675362898,5.637735402906826
-0.7124085038809794,-6.41777428701951,6.118862029391966,5.159012162482217
-0.7765862467511745,-6.074643395690084,6.1704521510167885,4.667562321911503
-0.8373326807080753,-5.754270804185086,6.2171277742359035,4.198884047567188
-0.8948753887499261,-5.465318145271878,6.2591166147115755,3.7673627744302975
-0.9495285702026449,-5.208461350645509,6.296790242455878,3.3757935447832286
-1.0016131837091,-4.9809505719660505,6.330548177903711,3.021845676618702
-1.0514226894287606,-4.778966499357973,6.360766634669898,2.701445028469794
-1.0992123544223404,-4.598663542157603,6.387781084954596,2.410302070681464
-1.1451989898439165,-4.436563300589028,6.41188410566141,2.144512578687392
-1.189564622849807,-4.289658147793659,6.433329231448284,1.9007376451566136
-1.2324612043277434,-4.1553972590378185,6.45233660789985,1.676207874305354
-1.2740151769181216,-4.03163222707084,6.469098686642904,1.4686627649353692
-1.31433149918883,-3.916554806577468,6.483785314292258,1.2762731122926352
-1.3534970472546046,-3.808639321537741,6.496548045415184,1.097565633133651
-1.391583440469982,-3.706593612662029,6.50752370174652,0.9313564535933805
-1.4286493765966024,-3.6093188499608786,6.5168372662824545,0.7766948183567436
-1.4647425650962111,-3.515877228930854,6.524604214466022,0.6328163402706675
-1.4999013373855197,-3.4254662193953083,6.530932377868728,0.49910447535451175
-1.5341559995794727,-3.3373980703917216,6.5359234226222735,0.3750588525331529
-1.56752998028339,-3.2510834424137145,6.539674011147605,0.26026924353928427
-1.6000408147075271,-3.166018234650886,6.542276703582998,0.1543941683052478
-1.631700997054036,-3.081772858847023,6.543820645266051,0.057143331028666575
-1.6625187256425062,-2.99798337006602,6.544392078576338,-0.03173674988765615
-1.6924985593431665,-2.914343996450443,6.544074711077461,-0.11247442244550684
-1.721641999307671,-2.8306007175373953,6.542949966853006,-0.18528229648129504
-1.749948006483045,-2.7465456274585414,6.541097143888193,-0.2503646844714379
-1.7774134627576306,-2.662011888842112,6.538593497043478,-0.3079233649437817
-1.8040335816460518,-2.5768691383857814,6.53551426339404,-0.35816190734252723
-1.8298022730299095,-2.4910192482745876,6.531932644320615,-0.40128876919945783
-1.8547124655126555,-2.4043923808301124,6.52791975662862,-0.43751935525594077
-1.8787563893209567,-2.3169432986228813,6.523544563076061,-0.4670772110503164
-1.9019258223071855,-2.2286479101573002,6.518873790965557,-0.4901945085164871
-1.9242123014087587,-2.1395000433828395,6.513971845880392,-0.5071119670804048
-1.945607301842587,-2.049508446807593,6.508900726209588,-0.5180783398757648
-1.966102386310663,-1.9586940218933904,6.5037199428108305,-0.5233495807199113
-1.985689326529597,-1.8670872915919587,6.498486447003631,-0.5231877933755699
-2.0043601994455167,-1.7747261091256332,6.493254569069875,-0.5178600505371658
-2.022107460536773,-1.6816536090947436,6.4880759685645035,-0.5076371561827385
-2.0389239966277204,-1.587916400259969,6.482999597002676,-0.4927924117136551
-2.05480316063032,-1.4935629963382897,6.478071672885539,-0.47360043393515916
-2.0697387905937026,-1.3986424781926448,6.473335668546188,-0.4503360616319804
-2.083725215375629,-1.3032033781160917,6.468832307929868,-0.42327337741951176
-2.09675724915679,-1.2072927746539104,6.464599574155673,-0.3926848627870651
-2.108830176903329,-1.1109555846443948,6.460672725527802,-0.35884069681403996
-2.119939732749773,-1.0142340379090433,6.457084318559661,-0.3220082028946357
-2.130082073128863,-0.9171673192633619,6.453864236530715,-0.2824514428698223
-2.1392537463214967,-0.8197913622012338,6.451039722102017,-0.2404309541231201
-2.147451659943509,-0.7221387786630903,6.448635412560786,-0.19620362231647873
