th1 (rad),w1 (rad/s),th2 (rad),w2 (rad/s)
1.3507990502319396,-2.2029028575043603,4.81793481260002,1.3079985877383495
1.328770021656896,-2.284285049888229,4.831014798477404,1.3438657989381153
1.3059271711580138,-2.362878718566995,4.844453456466785,1.386052945329271
1.2822983839723439,-2.4386471004689243,4.858313985920078,1.4349063283353733
1.2579119129676546,-2.511627187774695,4.872663049203432,1.490693726251877
1.2327956410899077,-2.5819340977820637,4.887569986465951,1.5536019808509178
1.206976300112087,-2.649762863268668,4.90310600627446,1.6237392779226587
1.1804786714794002,-2.715387724874124,4.919343399053687,1.7011421367102848
1.153324794230659,-2.7791592236309737,4.93635482042079,1.7857868133319297
1.1255332019943494,-2.841499583068172,4.954212688554109,1.8776045618058363
1.0971182061636677,-2.9028970185434204,4.9729887341721675,1.9765000145991953
1.0680892359782335,-2.9638997061883376,4.99275373431816,2.082371863054962
1.0384502389163501,-3.025110183394915,5.013577452948709,2.195135043730896
1.008199137082401,-3.08718094413991,5.035528803386018,2.3147437639603905
0.9773273276410019,-3.1508119498577356,5.058676241025622,2.4412149132726872
0.9458192081424246,-3.21675071906609,5.083088390158348,2.5746516857678916
0.9136517009517637,-3.2857956076548676,5.1088349070160275,2.715267560909443
0.880793744875215,-3.3588028674616126,5.135987582625122,2.8634111395379187
0.8472057162005989,-3.4366980921364156,5.164621694020501,3.0195926987942805
0.8128387352792348,-3.5204927417130385,5.194817621008443,3.1845137133836197
0.7776338078621043,-3.6113065917644294,5.22666275814228,3.3591009979540543
0.74152074194446,-3.7103971838994294,5.26025376812182,3.544547565462681
0.7044167701054658,-3.8191976531141267,5.295699243776447,3.7423627692507013
0.6662247935743245,-3.9393646367662756,5.333122871468954,3.9544347679250436
0.6268311472066618,-4.072838225710123,5.372667219148204,4.183108698835294
0.5861027649495605,-4.2219158434902555,5.414498306136557,4.43128383459977
0.543883606514658,-4.389340929985513,5.458811144482555,4.7025316137897075
0.4999901972148028,-4.578403972319436,5.5058364606204515,5.001231879596169
0.4542061574916084,-4.793044612880002,5.555848779416413,5.33271257315882
0.4062757113628084,-5.0379221605864375,5.6091759051480015,5.703348644938997
0.355896489756944,-5.318371990926818,5.666209391597391,6.120507002627719
0.3027127698476758,-5.640052669884395,5.727414461623669,6.59206789329459
0.24631224314883188,-6.007843561124923,5.793335140556614,7.124911665762446
0.18623380753758265,-6.423058942023932,5.864584257214239,7.721069762230083
0.12200321811734333,-6.877228595106206,5.94179495483654,8.369093868095977
0.05323093216628126,-7.34013476488041,6.0254858935175,9.02740035914637
-0.020170415482522838,-7.742899627126418,6.115759897108964,9.600663821145645
-0.09759941175378702,-7.972411344663996,6.21176653532042,9.931987137937659
-0.177323525200427,-7.917884859064482,6.311086406699797,9.867834087690593
-0.2565023737910718,-7.571504655872761,6.409764747576703,9.398228610024798
-0.33221742034979945,-7.053745552156322,6.503747033676951,8.691346691827786
-0.40275487587136266,-6.504134163750452,6.590660500595229,7.940906892110907
-0.4677962175088672,-5.999200771108744,6.670069569516338,7.252576371656288
-0.5277882252199546,-5.560929819459081,6.7425953332329005,6.65639564887553
-0.5833975234145454,-5.186840544848501,6.809159289721656,6.148750351220614
-0.6352659288630305,-4.867344310767882,6.8706467932338615,5.716403991162533
-0.6839393719707093,-4.5923646293911675,6.927810833145487,5.345592934974117
-0.729863018264621,-4.353240061130511,6.981266762495228,5.024605138519154
-0.7733954188759261,-4.142982486422146,7.031512813880419,4.744105416482333
-0.8148252437401475,-3.956060380994474,7.078953868045242,4.496819211103523
-0.8543858475500923,-3.788098938531557,7.123922060156278,4.277110316127789
-0.8922668369354079,-3.6356119508144475,7.1666931633175555,4.080607109695369
-0.9286229564435523,-3.495788776056105,7.2074992344145095,3.903906902576473
-0.9635808442041134,-3.3663323732159407,7.246538303440274,3.744351197510592
-0.9972441679362728,-3.2453382917330704,7.2839818154153795,3.599856779850457
-1.0296975508536035,-3.131204904942064,7.319980383213884,3.468788387076785
-1.061009599903024,-3.0225671278824224,7.3546682670846515,3.3498615462233974
-1.0912352711818483,-2.918247825234804,7.388166882546885,3.2420669760691543
-1.1204177494341963,-2.817222695165987,7.420587552307577,3.1446102302094254
-1.148589976385856,-2.7185955754440068,7.4520336546096715,3.0568619997163062
-1.175775932140296,-2.621581922125653,7.482602274606834,2.978315816934513
-1.2019917513615526,-2.525498733659647,7.512385432776179,2.908550929780688
-1.227246738698149,-2.4297595000241605,7.541470942073986,2.847198947369011
-1.2515443336983905,-2.3338729025423843,7.5699429315476765,2.793913558216273
-1.2748830627238144,-2.2374440246311105,7.597882067129839,2.748343224203194
-1.2972575029701254,-2.140176805801318,7.6253654993718705,2.710107259446379
-1.3186592710281386,-2.0418764320840754,7.652466571966334,2.6787760907848788
-1.3390780353489793,-1.9424503587664204,7.679254332874183,2.6538567263729633
-1.3585025389366434,-1.8419067556200521,7.705792900137912,2.634784487183021
-1.376921606492844,-1.740349388148364,7.732140745009743,2.620921851283543
-1.3943251003743276,-1.6379683151150886,7.758349963522578,2.6115648202344772
-1.4107047835254785,-1.535026274769891,7.784465611724923,2.6059565817829506
-1.4260550462731774,-1.4318411961335749,7.810525177542752,2.6033075017731977
-1.4403734582345131,-1.3287658243314684,7.836558252560484,2.602819757141565
-1.453661116477828,-1.2261658940716407,7.862586450131899,2.6037143608710007
-1.4659227754185444,-1.1243985371934433,7.8886235937406095,2.6052580484987304
-1.4771667607904788,-1.0237926171805987,7.914676174225597,2.606787561000238
-1.4874046869622848,-0.9246324439827456,7.940744049835599,2.6077292643745373
-1.4966510114021123,-0.827145886326255,7.966821342479345,2.607612713229108
-1.504922470265375,-0.7314973539289111,7.992897469611636,2.6060775643469785
-1.512237443804664,-0.6377855709740465,8.018958245255106,2.6028740310359098
-1.5186152995144044,-0.5460455957543755,8.044986985565465,2.597857714951907
-1.5240757554719482,-0.4562542198228673,8.070965562714985,2.590980080405195
-1.528638297670177,-0.36833772502601475,8.096875363519038,2.5822760237913562
-1.5323216749204371,-0.2821809752643758,8.122698123756951,2.5718499631880616
-1.535143484673081,-0.19763693497593182,8.148416623388831,2.55986168701289
-1.5371198540228403,-0.11453589170626921,8.17401524025896,2.5465129238869344
-1.538265212939903,-0.032693871451953585,8.199480369497829,2.5320352911255024
-1.5385921516544225,0.04808006177827985,8.224800722409084,2.516679993939768
-1.5381113510366398,0.12797775845625514,8.24996752234848,2.500709410302196
-1.5368315734520772,0.2071871925894136,8.274974616451503,2.484390519481281
-1.5347597015261831,0.2858888415428937,8.299818521646316,2.4679900149327083
-1.531900813110754,0.3642530971707841,8.324498421795642,2.4517708763729575
-1.5282582821390462,0.44243854419543216,8.349016130559372,2.435990149913019
-1.523833896697092,0.5205909380858947,8.373376032058502,2.420897687200587
-1.518627987316233,0.5988427245550186,8.397585008930507,2.406735614143846
-1.5126395600706828,0.6773129602814613,8.421652365071946,2.393738328710133
-1.5058664304678682,0.7561075151970595,8.445589748359048,2.3821328595617377
-1.4983053553158976,0.8353194577158833,8.469411076954666,2.3721394490053216
-1.4899521607387387,0.9150295438293069,8.493132471444719,2.3639722526055547
-1.4808018653004456,0.9953067481202857,8.516772193970775,2.357840072738597
-1.4708487978192426,1.0762087891185672,8.540350594698161,2.353947064017204
-1.460086709928057,1.1577826130592728,8.563890065338333,2.352493365071226
-1.4485088837974642,1.2400648092657618,8.587414998989045,2.353675624043062
-1.4361082357048067,1.3230819374016756,8.610951755229475,2.3576873948991133
-1.42287741633079,1.406850752105045,8.634528629178467,2.3647193888276714
-1.4088089088097395,1.4913783143961306,8.658175823066744,2.3749595701204873
-1.3938951256657781,1.5766619820730945,8.681925418767948,2.3885930894903127
-1.3781285058450472,1.6626892733652876,8.70581134966285,2.4058020501633837
-1.3615016131113944,1.7494375996477067,8.729869370164485,2.426765103641402
-1.3440072371149174,1.8368738642349984,8.754137021200899,2.4516568730295574
-1.3256384984725675,1.9249539253349561,8.778653589931194,2.4806472025014377
-1.306388959219218,2.013621922283563,8.803460061956208,2.5139002320011836
-1.2862527399963823,2.10280946531303,8.82859906427622,2.5515732968150155
-1.265224645343252,2.1924346904050314,8.854114797244371,2.5938156522958065
-1.2433002984392019,2.282401182318366,8.88005295376733,2.6407670248880923
-1.2204762866160181,2.372596770702235,8.90646062401621,2.6925559917475628
-1.1967503189089959,2.4628922063480614,8.933386183933687,2.7492981927302145
-1.1721213968455153,2.5531397271176672,8.96087916586099,2.811094380376511
-1.1465899995743387,2.6431715259279964,8.988990109664755,2.8780283157548894
-1.1201582843150588,2.7327981363808287,9.017770392822303,2.9501645206653064
-1.0928303029512505,2.8218067552064423,9.047272038028956,3.027545899739204
-1.064612235399186,2.9099595246522014,9.077547497026348,3.1101912494102115
-1.035512640152664,2.996991802308893,9.108649409520451,3.198092674583566
-1.005542722129575,3.0826104506634397,9.140630336266288,3.291212938138796
-0.9747166176229406,3.1664921839533005,9.173542465647676,3.389482773235642
-0.9430516957834076,3.248282015760733,9.207437293380032,3.4927981938887775
-0.9105688756258004,3.3275918573399625,9.24236527531892,3.6010178456350315
-0.8772929570524007,3.403999324059503,9.27837545377527,3.7139604456217135
-0.8432529638118057,3.4770468157198375,9.315515058231487,3.831402370464172
-0.8084824956546073,3.5462409460113307,9.353829081936128,3.953075461191824
-0.773020086194494,3.611052407081687,9.393359836548047,4.078665127993027
-0.7369095621236772,3.6709163670234077,9.434146487827977,4.207808853711025
-0.7002003984534431,3.7252335107724184,9.476224576365087,4.34009521442152
-0.6629480633457189,3.7733718477756435,9.519625528509303,4.475063557928026
-0.6252143448679625,3.814669421686423,9.564376164088584,4.612204506149499
-0.5870676506510982,3.848438066488862,9.610498209150078,4.750961473945394
-0.5485832699862097,3.873968357278505,9.658007823889532,4.890733422794111
-0.5098435864134246,3.8905358990571086,9.706915158117473,5.030879089657418
-0.4709382274228536,3.8974090791853184,9.757223949014048,5.170722944854956
-0.4319641366310004,3.8938583738915122,9.808931178462597,5.309563132231128
-0.3930255528920853,3.8791672416981458,9.862026809784908,5.4466816239170255
-0.35423388047510385,3.852644552711472,9.916493626024078,5.581356774054613
-0.31570743494798914,3.8136383900395043,9.972307193764625,5.712878375401988
-0.2775710510475941,3.7615509187087186,10.029435977518645,5.840565206622524
-0.23995554186050694,3.695853853116355,10.08784162958487,5.963784907207898
-0.2029970033293434,3.6161038763229305,10.14747947865695,6.08197583806833
-0.1668359645661141,3.521957189095404,10.208299237037632,6.194670392487583
-0.13161639267516007,3.4131822143916155,10.270245940962509,6.301519035312978
-0.0974845705312439,3.2896693779134787,10.33326113131564,6.402314195065136
-0.06458787675210911,3.151436851167376,10.39728427326629,6.497013044694244
-0.033073508240435354,2.998631199015923,10.462254403713233,6.585758211670371
-0.003087196250276123,2.831522027948284,10.528111985829938,6.6688955804057635
0.025228024029206715,2.6504899789411365,10.594800941633995,6.746988601534993
0.051732923818618076,2.4560077278939185,10.662270827649344,6.820828899779346
0.07629300109755727,2.2486140093152267,10.730479116647137,6.891443454964266
0.09877914119070953,2.0288810156272423,10.79939355119678,6.960099185209218
0.11906795134698195,1.79737579129683,10.86899454304887,7.02830634516475
0.13704170925995024,1.5546163893629272,10.939277606500518,7.097822722838367
0.15258787315357952,1.3010235544411601,11.010255833728902,7.170661140175059
0.16559810869799113,1.0368685326453035,11.081962445130653,7.24910320882962
0.17596679402444418,0.7622173125114315,11.154453477218949,7.3357226401716025
0.1835889671495585,0.47687125166518607,11.227810703620666,7.433421613422553
0.18835767966621036,0.1803038081155775,11.302144919754891,7.545483647271656
0.19016071774736615,-0.1284066958957228,11.377599756227607,7.675645781558533
0.18887665078840893,-0.4506470235235177,11.454356214043193,7.828190890631258
0.18437018055317375,-0.7883365896609438,11.532638122949505,8.008055862686568
0.17648681465656432,-1.1439782215881085,11.612718681576371,8.220939280385293
0.16504703244068325,-1.5206565655935365,11.694928074380224,8.47336457882956
0.14984046678474788,-1.9219023308862135,11.77966172016852,8.772593099098023
0.13062144347588575,-2.351241936256887,11.8673876511595,9.12614806819795
0.10710902411331688,-2.811050167624165,11.95864913184148,9.540433352885838
0.07899852243707522,-3.299944388976547,12.054053465370338,10.01740303377989
0.04599907854730975,-3.8073952230218833,12.154227495708136,10.54743685772116
0.00792512631709092,-4.304006840215939,12.259701864285349,11.096206438158852
-0.03511494208506847,-4.728540692928272,12.370663928666938,11.586810090177414
-0.0824003490143512,-4.983910220227899,12.486532029568712,11.893703518798922
-0.1322394512166302,-4.971333755283275,12.6054690647567,11.88830664176128
-0.18195278876946294,-4.668039862976256,12.724352131174314,11.543485205038214
-0.2286331873992255,-4.161551822190898,12.839786983224696,10.977906948892667
-0.27024870562113446,-3.5764321815408993,12.949566052713623,10.3551892731803
-0.30601302743654346,-2.995932496100509,13.053117945445425,9.77987591421487
-0.3359723523975485,-2.453677760666416,13.150916704587575,9.289504649841021
-0.3605091300042127,-1.9558436329741649,13.243811751085985,8.886115263448291
-0.38006756633395433,-1.498171856547725,13.332672903720468,8.559247479402103
-0.3950492848994316,-1.073828105114476,13.418265378514489,8.296089108122077
-0.40578756595057636,-0.6762732817918198,13.50122626959571,8.084899298824398
-0.4125502987684945,-0.3000889386643713,13.582075262583954,7.915786476603625
-0.41555118815513825,0.05892648349292101,13.661233127349991,7.78060813235157
-0.41496192332020904,0.4038836727372251,13.739039208673507,7.672647910787717
-0.4109230865928368,0.7369719345898869,13.815765687781385,7.586288657730117
-0.4035533672469379,1.0596163790931294,13.891628574358686,7.516742505760698
-0.3929572034560066,1.3726108178169232,13.966795999416293,7.459846128301096
-0.3792310952778374,1.6762286713232377,14.041394460699305,7.4119136714493
-0.362468808564605,1.9703177565532741,14.115513597413798,7.369636828178987
-0.34276563099907226,2.2543846370729694,14.189209965695587,7.330022193957598
-0.32022178462834255,2.5276728275328058,14.262510187635163,7.290357410525781
-0.2949450563530145,2.789237473101145,14.335413761740421,7.24819876325661
-0.267052681622003,3.0380175241628393,14.407895749372987,7.201373708136082
-0.23667250638037463,3.272905055855143,14.479909486454348,7.1479923865674895
-0.2039434558218232,3.4928103429292565,14.551389410320024,7.086462722733415
-0.16901535239253063,3.696720667718601,14.622254037547357,7.015504350619724
-0.13204814571534462,3.883750652627767,14.692409081053555,6.934157484046377
-0.09321063918906695,4.053182157473228,14.76175065589402,6.8417839387133395
-0.052678817614334676,4.2044923952086775,14.830168495281153,6.7380587743553395
-0.0106338936622479,4.337369772191009,14.897549083024707,6.622952320085306
0.03273980405966219,4.451717893971233,14.96377860622556,6.496703522393792
0.07725698299937453,4.547649036186302,15.028745641449499,6.359786471416592
0.12273347336123755,4.625469034135943,15.092343506163665,6.212872522113109
0.16898816370259698,4.685655918096129,15.154472231384796,6.056790603727484
0.21584472288355827,4.728834698497946,15.21504013742207,5.89248814005677
0.26313306986853774,4.755750522939869,15.273965018822638,5.720994571365823
0.3106905750979364,4.767242058183796,15.331174964536297,5.543388888082349
0.35836299567977437,4.764216481387261,15.38660885341712,5.360771967934506
0.406005160493647,4.747626977299115,15.440216573096466,5.174243942939862
0.4534814302666381,4.718453195416226,15.491959012525864,4.984886370748551
0.5006659622208004,4.677684762963507,15.54180787623335,4.793748673955451
0.5474428098504355,4.626307692801749,15.589745362972904,4.601838141280267
0.5937058867784529,4.565293368324408,15.635763744385706,4.4101127369003965
0.639358820461697,4.495589716159872,15.67986487175471,4.219476009231441
0.6843147176232958,4.418114171904815,15.722059631847024,4.030773495676862
0.728495859342344,4.333748082624901,15.762367366803792,3.8447901552827632
0.771833340168593,4.2433322527789095,15.80081526835662,3.6622485022719165
0.814266662696382,4.147663411528177,15.837437753379339,3.4838072422487074
0.8557432968116638,4.047491447400935,15.872275825801825,3.310060318307246
0.8962182112856731,3.943517313543867,15.905376428984898,3.1415363510603838
0.9356533844211118,3.8363915495475034,15.936791792495502,2.978698504147127
0.9740172999165868,3.7267133932307273,15.966578777536974,2.8219448278639616
1.011284433848894,3.615030469061788,15.994798225815613,2.6716091331323937
1.047434738539512,3.501839041648353,16.021514317146938,2.5279624320293155
1.0824531289559955,3.3875848161636597,16.046793941467232,2.3912149556787825
1.1163289771176321,3.272664256010662,16.07070609102402,2.261518731011497
1.1490556196777388,3.1574263744875544,16.093321278334138,2.138970669341557
1.1806298834226143,3.04217494418111,16.114710985027553,2.0236160952763207
1.2110516328644254,2.927171057074686,16.134947145980316,1.9154526262903833
1.2403233434351724,2.8126359610131337,16.154101672243222,1.8144343023181797
1.2684497030453037,2.6987540946792876,16.172246015266403,1.720475860939167
1.2954372439920965,2.58567624354855,16.189450773875794,1.633457056408268
1.321294006427582,2.4735227429632434,16.205785344439878,1.5532269287208438
1.3460292338572144,2.362386660836192,16.221317613727088,1.4796079406690885
1.3696531004655763,2.252336900777251,16.236113693133778,1.4123999149910158
1.3921764694733487,2.1434211758596495,16.250237692283687,1.3513837188982034
1.413610681231945,2.0356688131006027,16.263751529472668,1.2963246583695822
1.433967369362951,1.9290933584369776,16.276714776056362,1.2469755587479285
1.453258302947321,1.8236949610853548,16.28918453164384,1.2030795207695315
1.4714952525581746,1.7194625243802704,16.301215326851537,1.1643723518362323
1.4886898778019773,1.616375617306009,16.312859050369898,1.1305846809510474
1.5048536339750374,1.514406146904401,16.324164897179408,1.1014437722963315
1.5199976954440813,1.4135197965654671,16.33517933490237,1.076675057068604
1.534132893409736,1.313677238961027,16.345946085473056,1.056003406106829
1.5472696657993463,1.214835135173661,16.356506119534124,1.0391541673149873
1.559418017151083,1.1169469335357116,16.366897661207275,1.025853992155769
1.57058748648644,1.0199634829635231,16.377156201128834,1.0158314748476895
1.5807871213160751,0.9238334762865925,16.38731451587731,1.008817626584179
1.590025456078941,0.8285037393567309,16.397402692143153,1.0045462053378036
1.5983104934725083,0.7339193816937175,16.40744815419653,1.002753919816232
1.6056496872894455,0.6400238241832475,16.417475693394692,1.0031805240723026
1.612049925531278,0.5467587189798986,16.427507498635414,1.0055688172871238
1.6175175127210768,0.4540637763616089,16.437563186808287,1.009664561469945
1.622058150484693,0.3618765129042447,16.447659832422985,1.015216328362313
1.6256769156137354,0.2701319350620214,16.45781199570661,1.0219752857960074
1.6283782349643556,0.17876217211723022,16.46803174856457,1.0296949332273722
1.630165856685528,0.08769607256818343,16.478328697896846,1.0381307962468271
1.6310428174112097,-0.0031412215701917406,16.488710005859314,1.0470400906376405
1.6310114051955078,-0.09382870729301594,16.499180406765692,1.0561813681374794
