th1 (rad),w1 (rad/s),th2 (rad),w2 (rad/s)
4.769857087003034,2.6886391050369864,5.041357806424696,-0.7023648720109478
4.796743478053404,2.8064909816314034,5.034334157704587,-0.7425408925733712
4.8248083878697186,2.924233303977788,5.026908748778853,-0.7825486579495173
4.8540507209094965,3.041038299813627,5.0190832621993575,-0.8209482032711406
4.884461103907633,3.1559106324723074,5.010873780166646,-0.8560256427580701
4.916020210232356,3.267700428525178,5.0023135237390655,-0.8858135760408974
4.948697214517607,3.3751370721810483,4.993455387978656,-0.9081432913374894
4.982448585239418,3.4768869641405518,4.984373955065282,-0.9207337324308593
5.017217454880823,3.571634366680516,4.975166617740973,-0.9213162370177823
5.052933798547628,3.6581785480426845,4.965953455370795,-0.9077853751164529
5.089515584028055,3.735534096667765,4.956875601619631,-0.8783568238590581
5.126870924994733,3.8030168957494648,4.94809203338104,-0.8317065755846331
5.164901093952227,3.8602983102627526,4.939774967625194,-0.7670655140337924
5.203504077054855,3.907415741616532,4.9321043124848565,-0.6842511848645241
5.24257823447102,3.9447374951757013,4.925261800636211,-0.5836325857411563
5.282025609422777,3.9728903913949343,4.9194254747788,-0.46603904416155084
5.321754513336726,3.9926658692588366,4.914765084337184,-0.33263515454769677
5.361681172029314,4.004922289982573,4.911438732791708,-0.18478704601434526
5.40173039492914,4.010498112672753,4.909590862331564,-0.02394132354382314
5.4418353760558675,4.010144793627289,4.909351449096126,0.14847006607357427
5.48193682399214,4.004482219520478,4.910836149756862,0.33109440214142294
5.521981646187346,3.9939749558642643,4.914147093778276,0.5226941547857807
5.561921395745988,3.9789251410675224,4.9193740353261335,0.7221600261785984
5.601710647156663,3.959477189066275,4.92659563558792,0.9285079279382983
5.641305419047326,3.9356299308702125,4.935880714867303,1.1408662785665533
5.680661718356028,3.907252802217439,4.947289377652969,1.3584587444029428
5.719734246378202,3.8741037370815845,4.960873965096998,1.580586118030766
5.758475283749018,3.835847326104062,4.976679826277306,1.8066097614779582
5.7968337570100585,3.79207246588863,4.9947459238920855,2.0359380594373695
5.834754481668945,3.7423091654504375,5.015105304486459,2.268016629862972
5.872177573323449,3.686044432693297,5.037785470785089,2.5023225719374285
5.909038017650382,3.6227372877524546,5.0628086965044625,2.738362728137983
5.945265390527907,3.551832987897969,5.090192323785843,2.9756757383837122
5.980783720406887,3.4727765384432137,5.11994908116968,3.2138375236945915
6.015511485791319,3.3850255359014096,5.152087456406626,3.452469720954956
6.049361741150333,3.288062368253898,5.186612153616176,3.691250475309285
6.082242364832872,3.181405804935449,5.223524658369269,3.9299268636061604
6.114056422882227,3.0646220687649923,5.26282392700533,4.168328052553888
6.144702643569877,2.9373356198217384,5.304507207530869,4.406378065053125
6.174075999768094,2.7992401304410652,5.3485709881814,4.644106702119446
6.202068401072505,2.6501105356333126,5.395012055202595,4.88165669106141
6.228569506428838,2.489817665489894,5.443828622113209,5.11928441934417
6.253467683083737,2.318347889101864,5.495021466306651,5.357350544593385
6.276651161974756,2.1358315326211987,5.548594971752585,5.596295173684463
6.298009477300967,1.9425857060226501,5.60455792348943,5.836589963986708
6.3174353343611935,1.7391796955646062,5.662923823129296,6.078656203534085
6.33482713131684,1.5265342372825044,5.723710385164638,6.3227335996807295
6.3500924736896645,1.3060693692457785,5.786937721161445,6.568679570859577
6.363153167382122,1.0799177680894638,5.852624516870041,6.815675010271018
6.3739523450630164,0.851218002352863,5.92078126697275,7.061814323974188
6.3824645250865455,0.6244876454534899,5.991399410212492,7.303574840221412
6.388709401541081,0.4060370199630753,6.064435158614706,7.53521072918624
6.392769771740712,0.20430482627423008,6.139787265906568,7.748221339217876
6.394812820003454,0.029873440508580318,6.217269479298746,7.931209982879932
6.39511155440854,-0.10519837826043363,6.296581579127546,8.070615195799961
6.394059570625936,-0.18905661671549684,6.377287731085545,8.152764800026006
6.392169004458781,-0.21268299794864148,6.458815379085805,8.167185419759704
6.390042174479294,-0.1726415180335405,6.540487233283402,8.1100793112441
6.388315759298959,-0.07251412968217927,6.621588026395843,7.98609996503374
6.387590618002138,0.07797189652814832,6.7014490260461805,7.807143549830272
6.388370336967419,0.2657062625025933,6.779520461544483,7.5887562454060005
6.391027399592446,0.4773213514598598,6.855408023998543,7.346186830447028
6.395800613107045,0.7013473827921802,6.928869892303013,7.091797745622486
6.402814086934966,0.9290431752869284,6.999787869759238,6.834223711482476
6.412104518687835,1.154281725994063,7.068130106874063,6.578721311946919
6.423647335947776,1.3730193075949535,7.133917319993532,6.327996566981223
6.437377529023726,1.5827064876651586,7.197197285663345,6.0830497934883665
6.453204593900377,1.7817990950680447,7.258027783598228,5.843849598020213
6.471022584851058,1.9694038694328835,7.316466279578431,5.609807493836695
6.490716623545387,2.1450412752404553,7.372564354516798,5.3800875079691215
6.512167036297791,2.3084948995820374,7.426365229596489,5.153797160119609
6.535251985293612,2.4597195801678153,7.477903201197685,4.9300991668499226
6.55984918109529,2.5987872549020197,7.527204192866184,4.70827228922793
6.58583705364431,2.7258560119250754,7.574286915758463,4.4877402973421905
6.61309561376356,2.841152774255869,7.619164318731885,4.268081202560769
6.641507141506119,2.9449635112286985,7.661845130757492,4.049024382571303
6.6709567766184055,3.0376271802956207,7.702335374583205,3.830440363087195
6.701333048421362,3.119531116530368,7.740639778214077,3.6123262641305183
6.732528359586666,3.191106569535211,7.776763040855382,3.394788860030851
6.764439425282018,3.252823721241405,7.8107109294556905,3.1780265676505954
6.796967662494432,3.3051859228180347,7.8424911951321965,2.9623112925737116
6.830019521722613,3.3487231411104967,7.872114308057934,2.747970820464528
6.863506753133717,3.383984753787183,7.899594016262579,2.5353722761586246
6.897346600671589,3.411531909773871,7.924947739024166,2.324907049361216
6.931461919769327,3.4319296993907917,7.948196809517778,2.116977483243572
6.965781216763235,3.4457393724114125,7.969366584350214,1.9119855312374965
7.000238610487349,3.453510813663538,7.988486439662589,1.7103235044027227
7.034773718623985,3.4557754438327537,8.005589674706616,1.512366956480455
7.069331473062312,3.4530396649778115,8.020713344271421,1.3184696870214943
7.10386186971209,3.4457789216381043,8.033898041141637,1.1289607857602437
7.138319658928471,3.4344324038183314,8.045187648999239,0.9441435940518395
7.172663982966654,3.4193983811106037,8.054629084939757,0.7642964210495576
7.2068579667777595,3.401030130537748,8.062272049150252,0.5896748215541818
7.240868268083137,3.37963240662343,8.068168797365793,0.4205152161172636
7.274664592149371,3.3554584026560184,8.072373949526966,0.25703960795700415
7.308219176175931,3.328707168910914,8.074944345606536,0.09946112063694199
7.34150624786504,3.299521488424284,8.075938956812905,-0.05200996010105505
7.374501462749283,3.2679862651789415,8.075418857211895,-0.1971600126351049
7.407181325401072,3.2341275538639276,8.073447257085544,-0.33576622088555286
7.4395226009397115,3.197912453458103,8.070089594876688,-0.4675915725884526
7.471501725474292,3.159250194047815,8.065413679150803,-0.592381366580379
7.5030942274147705,3.117994857084639,8.059489865484998,-0.7098619945545523
7.534274175985617,3.0739502649806125,8.052391245539454,-0.8197428540285223
7.565013678635423,3.02687762732303,8.044193816999169,-0.9217222787287978
7.595282454908653,2.9765064981817115,8.03497659421188,-1.0154982854875907
7.625047519890471,2.9225494353812023,8.024821611357003,-1.100784669229327
7.654273014244283,2.8647204156272243,8.013813764664711,-1.1773324721459444
7.682920218400556,2.8027565293054546,8.00204043994325,-1.2449560851330241
7.7109477836936104,2.7364417837338273,7.989590879091921,-1.3035622522703414
7.738312201530949,2.665631082408984,7.976555256569218,-1.35317918517912
7.764968512355039,2.5902717956788703,7.963023464717427,-1.3939821025402113
7.7908712303118275,2.5104200197033393,7.949083643692025,-1.4263111061925842
7.8159754305088605,2.4262488408885243,7.934820532630099,-1.45067767329003
7.840237918917746,2.3380467750556684,7.920313755897199,-1.4677573052342503
7.8636183866683025,2.246205937460605,7.905636182844857,-1.47836787922959
7.886080446042908,2.1512011243336424,7.890852504052561,-1.4834355660894178
7.907592457286245,2.0535624348684003,7.876018148391667,-1.4839522163977699
7.928128081634928,1.953844954302682,7.861178626227689,-1.4809293390509488
7.947666531177955,1.8525991530005064,7.846369332837179,-1.47535392507261
7.96619252270796,1.7503450769709212,7.831615793586453,-1.4681504795869118
7.983695973477669,1.6475523570065709,7.816934288790583,-1.4601520756475679
8.000171497047734,1.544626874985715,7.802332768034107,-1.4520815102012834
8.015617765797591,1.441903884010437,7.787811952932095,-1.4445421365349456
8.030036804637696,1.339646653615107,7.7733665315667455,-1.4380169095621975
8.043433271173846,1.2380493428161545,7.7589863624711235,-1.4328736642469668
8.055813764602007,1.1372427384152652,7.744657625828654,-1.4293745718762056
8.06718619198616,1.0373016356976206,7.730363880109892,-1.4276879396786892
8.077559208343136,0.9382528833100764,7.716087000713105,-1.4279008902052681
8.086941737176236,0.8400833852296032,7.7018079918110525,-1.4300318638464806
8.095342571028532,0.7427476008293816,7.687507673172588,-1.434042259052978
8.102770047036826,0.6461742852259561,7.6731672505820585,-1.439846825756549
8.109231789889085,0.5502723605362605,7.658768782324493,-1.4473226499916516
8.114734513494447,0.45493590902295455,7.644295555824577,-1.456316718803834
8.119283872584678,0.3600483405793725,7.629732388636539,-1.4666521478761816
8.122884355990472,0.26548581968668217,7.615065867157777,-1.4781332048282871
8.125539214187338,0.17112004986918727,7.600284535109494,-1.4905492821716355
8.12725041468603,0.07682051394923028,7.585379042287777,-1.5036779760755787
8.128018619825522,-0.017543738668659298,7.570342262527022,-1.5172874182513096
8.127843182438834,-0.11210267724582539,7.555169388344509,-1.5311379938191292
8.126722155666377,-0.2069841792146439,7.539858008406317,-1.5449835615143581
8.12465231387423,-0.30231316778430134,7.524408172791174,-1.558572276155642
8.121629182196388,-0.3982109527837743,7.5088224500296175,-1.5716470981403932
8.11764707266855,-0.4947947399771972,7.493105979048214,-1.5839460614173801
8.112699125268778,-0.5921772828722831,7.47726651843404,-1.5952023601027303
8.106777352440055,-0.6904666585350421,7.461314494833013,-1.6051443046186387
8.099872685854704,-0.7897661552089696,7.445263051786826,-1.6134951907978856
8.091975024302615,-0.8901742647165519,7.429128099878847,-1.6199731196250102
8.08307328165545,-0.9917847767842727,7.412928368682596,-1.6242908009947077
8.073155433887607,-1.094686975634498,7.396685460672649,-1.626155371913252
8.06220856413126,-1.1989659414354394,7.380423906953516,-1.6252682578612725
8.050218904716907,-1.3047029604393106,7.364171224374903,-1.621325105566715
8.037171875112513,-1.4119760477388037,7.347957973319236,-1.6140158162978764
8.023052114635124,-1.5208605853096908,7.331817815156257,-1.6030247112018532
8.007843508782027,-1.6314300750411346,7.315787568044239,-1.5880308645785775
7.991529208031616,-1.7437570012909458,7.299907259398453,-1.5687086479156513
7.974091638018707,-1.8579137894452862,7.284220172919296,-1.5447285379362117
7.955512500124254,-1.9739738350478921,7.268772887539934,-1.5157582571551798
7.935772761773775,-2.09201256096986,7.253615304968382,-1.4814643373604066
7.914852636164076,-2.212108436012269,7.2388006615947775,-1.4415142276104702
7.892731551803953,-2.3343438548234285,7.224385519318673,-1.395579112283804
7.869388113255718,-2.4588057327825803,7.210429728195836,-1.3433376661444763
7.844800055927893,-2.5855856061936655,7.19699635153439,-1.2844810585320627
7.818944199865956,-2.714778942085861,7.1841515409490695,-1.2187196356357053
7.791796410445097,-2.84648324602035,7.171964344592713,-1.1457918682680799
7.763331577984894,-2.980794402100109,7.1605064259100315,-1.0654763640938254
7.733523633963893,-3.1178004777971093,7.149851662269093,-0.9776080196936985
7.702345629185921,-3.2575719695765954,7.140075582072156,-0.8820997380707629
7.669769909490156,-3.400147151879477,7.131254584691448,-0.7789715602999546
7.635768437971361,-3.5455108351497855,7.123464869088449,-0.668389531596961
7.600313329619863,-3.69356448353598,7.116780973772479,-0.5507170694681434
7.563377684784503,-3.8440853957668173,7.111273803077798,-0.4265818619144418
7.524936830826834,-3.996672725379531,7.107007984458654,-0.29696107937822813
7.484970103573039,-4.150678886645649,7.104038373664872,-0.16328637821175884
7.443463314706582,-4.305126961400032,7.102405509882754,-0.027566930354227664
7.400412045092581,-4.458618912235458,7.102129840579211,0.10747764954138353
7.3558258559702265,-4.609246570514848,7.103204617074625,0.23829329220499543
7.309733390265078,-4.754527777206483,7.105587549996675,0.36041052146291663
7.262188112493013,-4.8914021635047025,7.109191655211304,0.4684583340019731
7.213274090857966,-5.016329761896023,7.113876238551324,0.5563370742853081
7.163110793239006,-5.125531303778831,7.119439609294177,0.6176075309871429
7.111855480201218,-5.215380241504716,7.125615684604048,0.6461105417624768
7.059701677786171,-5.282899343588659,7.132076790021673,0.636746783664062
7.006872684350284,-5.326246118271178,7.138444257858313,0.5862447831587632
6.953610223167573,-5.345032309303669,7.144306705689901,0.49368619596670504
6.900159900074536,-5.340354738415704,7.149243567649568,0.3606020085500021
6.846756352690379,-5.3145182396936494,7.1528495877350675,0.19060343397758267
6.793611170293443,-5.270550205693676,7.154755622074843,-0.011313488273825556
6.740905668236506,-5.211668700628782,7.154642487192104,-0.23955477434095088
6.688788981230218,-5.140845344641319,7.152246939448695,-0.4885969745025811
6.6373805277838045,-5.060532232761292,7.147360969703669,-0.7534289982157167
6.586775205456192,-4.972550818926994,7.139826679721512,-1.0297629178623884
6.537049697266922,-4.878100426222348,7.129529050542888,-1.3140702317964599
6.488268693004699,-4.777835747562718,7.116388348224923,-1.6035149218233335
6.440490335529072,-4.6719726728444915,7.10035319900669,-1.8958422746982937
6.393770608800627,-4.560396716002627,7.081394776259708,-2.189261832455503
6.3481666416406,-4.442760978409837,7.059502157935152,-2.4823446783964545
6.303739031856502,-4.318568909741617,7.034678711151187,-2.7739428831281194
6.260553342759086,-4.18724165094464,7.006939282319906,-3.063131839191713
6.21868092624964,-4.048171726984065,6.976307963927989,-3.3491727664689197
6.178199208979799,-3.90076542639235,6.9428162362633,-3.6314913474446557
6.139191554715875,-3.744476131573199,6.906501322788854,-3.909668188208734
6.101746793400143,-3.5788306062905413,6.867404640906766,-4.183436960044095
6.065958487337237,-3.403450054199076,6.825570271306326,-4.4526863065962585
6.031923986795246,-3.218067767186045,6.781043408240363,-4.717461710815032
5.999743309123386,-3.0225454632958515,6.733868791132212,-4.977963380131109
5.9695178544904275,-2.816891034281979,6.684089157330901,-5.234535714692962
5.941348944147608,-2.6012814504593162,6.631743800183972,-5.487642938457102
5.9153361296430145,-2.376096081039909,6.576867370799401,-5.737823835900297
5.891575168832615,-2.141967738216292,6.519489132440398,-5.985616092951754
5.870155491450452,-1.8998612946974849,6.459632971510881,-6.2314374528752285
5.8511568785034775,-1.6511923934385864,6.397318596982128,-6.4754071307182555
5.834644954569091,-1.3980004370132422,6.332564525674946,-6.717088059187767
5.8206649501989585,-1.1431879853511195,6.265393645083068,-6.955132103964993
5.809233070345448,-0.8908273151477484,6.195842324043419,-7.186823871302628
5.80032479719397,-0.6465046452423909,6.123974085330392,-7.40755722015315
5.793859750741547,-0.4176114188842849,6.049898513128861,-7.610358966464888
5.789683636552704,-0.21339592157171627,5.9737949234642125,-7.785703559177773
5.787549677336987,-0.04448825674075804,5.895937887872435,-7.922001093960336
5.787104794769579,0.07838938677009057,5.816717876932832,-8.007150974372191
5.78788868863728,0.14655284980827538,5.73664636718911,-8.031212445551748
5.789354217135363,0.15577098824178562,5.6563342427335925,-7.989473603740266
5.790911927017781,0.10784915897561788,5.57643950669619,-7.884456393319654
5.791990418607537,0.010389470544620222,5.497594942762993,-7.7255673449310365
5.792094313312983,-0.12525053009944376,5.420339269313683,-7.526452790128747
5.790841808011988,-0.28670543499681894,5.345074741412395,-7.3015194381847115
5.78797475366202,-0.4628060603167965,5.272059547030548,-7.063241578759737
5.783346693058852,-0.6446780515930814,5.2014271312429505,-6.820936948596708
5.7768999125429215,-0.8258927091062698,5.133217761756984,-6.580751314697386
5.768640985451858,-1.0021041092738197,5.06741024861001,-6.346258190544183
5.75861994435912,-1.1705343944890931,5.003947666704568,-6.119201847538614
5.746914600414229,-1.3295005050838797,4.942755648229182,-5.900145334282272
5.73361959536339,-1.478047987020675,4.883754194886359,-5.6889533871054585
5.718839115493183,-1.6156927601685673,4.826864661015304,-5.4851209314195835
5.702682187891497,-1.7422490154139028,4.772013451701109,-5.287983087236995
5.685259697737358,-1.8577187272352382,4.719133620828739,-5.096842677066676
5.666682510465005,-1.962222606242035,4.668165194058072,-4.911043413564006
5.647060284402585,-2.0559578305425745,4.619054759922432,-4.730008555213152
5.6265007060971595,-2.1391725652226596,4.5717546743703,-4.553258150578906
5.605108980444933,-2.212150714214079,4.526222092864511,-4.380413291772349
5.582987473302792,-2.275202711232341,4.482417959946788,-4.211192682816722
5.560235446190468,-2.328659724568482,4.44030603311862,-4.045404834790822
5.536948848944784,-2.3728696710517188,4.399851984770712,-3.8829379490260134
5.5132201522342665,-2.408194090691315,4.361022605280452,-3.7237487736933192
5.4891382113273535,-2.4350053512946563,4.323785117543519,-3.5678512392924677
5.464788157814407,-2.4536839150665557,4.2881066051505945,-3.4153053805153886
5.440251318663742,-2.4646155609919016,4.2539535513454405,-3.26620686424282
5.415605163053822,-2.4681885527463296,4.221291482703013,-3.1206773221931137
5.390923277526359,-2.464790794761469,4.190084709481082,-2.978855605521279
5.366275369578744,-2.454807043884517,4.160296153425869,-2.8408900217951487
5.341727299139899,-2.438616250833202,4.131887253207918,-2.7069315731730277
5.317341136631567,-2.4165891011616774,4.104817937476187,-2.5771281831380732
5.293175245619951,-2.3890858144069376,4.079046655644806,-2.451619874973082
5.2692843874758815,-2.3564542457259714,4.054530456895075,-2.330534846733764
5.2457198450186215,-2.31902831889794,4.031225108427738,-2.2139863739174186
5.222529561829642,-2.2771268045590216,4.009085244688563,-2.1020704617561377
5.199758293784052,-2.2310524439254276,3.988064540071002,-1.9948641636298545
5.1774477693447984,-2.1810914066040707,3.9681158984347036,-1.8924244800483365
5.1556368552787575,-2.127513061652587,3.9491916536342204,-1.794787753521059
5.134361724662232,-2.070570033875465,3.9312437760990098,-1.701969477919564
5.113656024323477,-2.0104985123244603,3.914224081319814,-1.6139644461234295
5.093551039200233,-1.9475187749048,3.8980844368585794,-1.5307471663194618
5.074075851451185,-1.8818358916140276,3.8827769651953847,-1.452272484812421
5.055257492535045,-1.813640568974742,3.8682542403472606,-1.3784763611676971
5.037121086845297,-1.7431100993839543,3.854469476735584,-1.3092767495627866
5.019689985851458,-1.6704093811255807,3.841376709239956,-1.244574548061373
5.002985892040202,-1.595691977441345,3.8289309637593423,-1.1842545848953465
4.987028972265789,-1.5191011861243107,3.817088417910389,-1.128186617566761
