th1 (rad),w1 (rad/s),th2 (rad),w2 (rad/s)
3.304955996938498,2.880159895012553,5.535270228655384,-2.383107500623203
3.3337575958886236,2.9278218059234016,5.511439153649152,-2.35280928568564
3.3630358139478576,2.9766198808824997,5.487911060792296,-2.3270491694488213
3.3928020127566825,3.026687207571668,5.464640569097808,-2.306074691672738
3.423068884832399,3.0781999727579183,5.4415798221810805,-2.29012421081345
3.4538508845599782,3.131373351811072,5.418678580072946,-2.279439327270403
3.485164618078089,3.186459315402284,5.395884186800242,-2.2742760113547518
3.5170292112321118,3.2437462163199267,5.373141426686694,-2.274914844421727
3.549466673395311,3.303560049660009,5.350392278242477,-2.281670791112793
3.582502273891911,3.366267324854205,5.32757557033135,-2.294902916222933
3.6161649471404527,3.432279540044548,5.30462654116912,-2.315024450572896
3.650487742540898,3.5020593024040463,5.281476296663391,-2.342513599920104
3.6855083355649385,3.576128186627155,5.25805116066419,-2.3779254772981964
3.72126961743121,3.655076460362818,5.234271905891209,-2.42190551329522
3.757820382034838,3.739574816691706,5.210052850758257,-2.475204641418183
3.795216130201755,3.830388215596651,5.185300804344075,-2.5386964302489754
3.8335200123577216,3.9283918036803387,5.159913840041585,-2.613396073391807
3.8728039303945248,4.034588571065944,5.133779879307667,-2.700480630328974
3.913149816105184,4.150127764549182,5.1067750730043775,-2.801308916083278
3.954651093750676,4.27632183103168,5.0787619838435445,-2.917437569220548
3.9974143120609926,4.414657319894488,5.049587608151339,-3.05062637978398
4.041560885259938,4.566790851517835,5.019081344353499,-3.202819688109018
4.087228793775116,4.7345134561168045,4.987053147472409,-3.3760794441326145
4.134573928336285,4.919652853128501,4.953292353031083,-3.572425897282423
4.1837704568675695,5.123860036526007,4.917568094058258,-3.793508914491544
4.23500905723283,5.348190183887986,4.879633004913343,-4.039981531181471
4.2884909590717095,5.592339616190022,4.839233189601528,-4.310379490585699
4.34441435523361,5.853362862208806,4.796129394695671,-4.599258633401574
4.402947983855698,6.123751816339822,4.750136808361655,-4.894427085381863
4.464185502019097,6.389125607230203,4.701192537507836,-5.173633652853743
4.528076758091399,6.626775638129136,4.649456200979299,-5.402491576331153
4.594344514472691,6.8078357677861865,4.595431285215987,-5.537585537090359
4.662422872150553,6.905978163826744,4.540055429845084,-5.538901068971381
4.73148265378882,6.910610812766657,4.48466641915537,-5.388736124654083
4.800588761916487,6.834456023464057,4.430779057908829,-5.102741460827973
4.868933322151127,6.7070393412753075,4.3797516433005494,-4.720971997165158
4.9360037155638805,6.560019660295998,4.332541923328898,-4.287183798832875
5.00160391216684,6.416904282577562,4.289670085340569,-3.834115819872745
5.065772954992616,6.291092674300322,4.2513289271418415,-3.3804833740412454
5.128683881735618,6.188401768012322,4.217524093401429,-2.934375253950863
5.190567899415742,6.110165246014814,4.18818034086192,-2.497563122474737
5.25166955187589,6.055442325069526,4.1632047096371725,-2.068629140352272
5.312223975126585,6.0222852482577744,4.142518418233649,-1.6448091877568842
5.372446827609163,6.008376062798166,4.12607032635608,-1.2229701764355012
5.432530588237144,6.01130644710979,4.113840624591726,-0.80009765218507
5.492643652708242,6.028672363921289,4.105839648069875,-0.3735311324238878
5.552930376347455,6.058078557040852,4.102104336745636,0.05892187125866777
5.613511161917864,6.097102713798649,4.102693555458222,0.49892608675443156
5.67448218905585,6.1432451028186374,4.107682816325767,0.9475809316520096
5.735914640084037,6.193877459862168,4.117158625642286,1.4053917264786608
5.797853414682658,6.246199117461421,4.131212542907073,1.8722460441937607
5.860315405857272,6.297205678524109,4.14993500334901,2.3473967762753514
5.923287462642513,6.343674213796351,4.173408971111764,2.8294561556684066
5.986724204780477,6.382168109736859,4.201703532668447,3.316406068422492
6.050545885877845,6.409063836071948,4.234867593352672,3.8056299601098083
6.1146365242385645,6.4206008282153535,4.27292389295377,4.293970740562298
6.178842532520718,6.412954341464986,4.315863600359393,4.777817510139069
6.242972075935367,6.382329587815852,4.363641775460783,5.253221900812813
6.306795371813526,6.325073815870391,4.416173994468911,5.716042601244674
6.37004610997223,6.237801336924182,4.473334420481358,6.162114450621788
6.432424123341471,6.117524891962663,4.534955564987576,6.587436494694773
6.493599372261098,5.961785214159557,4.600829929934523,6.988371645315094
6.553217224402694,5.768769203852935,4.670713646387674,7.361849048869503
6.610904916441223,5.53740593031071,4.744332136876369,7.7055589601582
6.66627897574433,5.267429004325437,4.821387726477951,8.018129005469012
6.718953265787584,4.959394180843454,4.901569016532641,8.299270599442835
6.7685472075960185,4.614642833100248,4.9845617225270695,8.549885525287818
6.814693635927021,4.235205469028156,5.070060577779948,8.772125837176887
6.857045690617303,3.8236445675904243,5.157781836151717,8.96940551756486
6.895282136293208,3.382841947865911,5.247475891327365,9.14636937764366
6.929110555771867,2.9157414231472423,5.338939585103802,9.308832562287831
6.95826797000334,2.4250613091428344,5.4320279107266805,9.46371130838038
6.982518583094769,1.9129925778203098,5.526665023810485,9.618970777491636
7.001648508872972,1.3808972822344867,5.622854731585401,9.783617339660186
7.015457481695316,0.829020302318718,5.720690904982003,9.967758686963348
7.023747684718503,0.2562304048725865,5.820368491851637,10.182741391412925
7.026309988767229,-0.3401751802495968,5.922195905765766,10.44134076305943
7.022908236964733,-0.964511001798916,6.02660931339636,10.757892604158231
7.013263126946744,-1.6223447853156046,6.134188239437942,11.148046863492098
6.997039679093588,-2.3191243818235394,6.245668708072864,11.627315499139344
6.973848435275352,-3.0563281789234718,6.361941863064257,12.206420399766428
6.9432851534861175,-3.822025030095783,6.484006067061921,12.879132936475742
6.90506490318516,-4.570885713002751,6.612797396426679,13.595599505569625
6.859356046055132,-5.193242707770851,6.748753391482375,14.220041767314125
6.807423618977424,-5.5052789466675325,6.8909538091555165,14.515944702967248
6.752370829510749,-5.34771490312438,7.036113256185189,14.277681419129543
6.698893680479505,-4.769759031896017,7.178890070376484,13.575764793888842
6.6511960901605445,-4.000782512107151,7.314647718315372,12.712124759376966
6.611188265039473,-3.2260281011664027,7.441768965909142,11.919056069606953
6.57892798402781,-2.5153187382066946,7.560959526605211,11.273089804859065
6.553774796645743,-1.8762500117592156,7.6736904246538025,10.771754668393402
6.5350122965281505,-1.2974034362937255,7.781407971337736,10.391420780525223
6.522038262165213,-0.764905267746164,7.885322179142989,10.107995275224006
6.514389209487752,-0.26694424472263273,7.986402131895229,9.901725044580479
6.511719767040526,0.20555305241153138,8.085419382341033,9.757274877236341
6.513775297564641,0.6592340095931362,8.182992131113396,9.662782437083866
6.520367637660573,1.0987764060395173,8.279619955484234,9.608904225509832
6.531355401720968,1.5272793284383728,8.375708997739332,9.588065689192526
6.5466281950053515,1.9465611950214705,8.471589654631257,9.593917582656783
6.566093806955566,2.3573839669417747,8.567528830457825,9.620958559834241
6.589667646624983,2.759629670758802,8.663738416056168,9.664285361461653
6.6172639433325715,3.152451923868418,8.760381269670784,9.719441193836158
6.648788462571256,3.5344194098108552,8.857575681609145,9.782340633447108
6.684132656669364,3.903662185015939,8.955399087943617,9.84925390183004
6.723169278519523,4.258025684292568,9.053891626961917,9.916835032830134
6.765749535362449,4.595231515268224,9.15305997729022,9.982178315554266
6.811701850515131,4.913039001404027,9.252881760445762,10.042886645702756
6.860832240529172,5.209397588516349,9.35331062690279,10.097135242474073
6.912926216414335,5.482578346975791,9.454281979327531,10.143715529801412
6.967751999884093,5.7312733156626505,9.555719134625544,10.182047292600442
7.025064733040719,5.954654296968531,9.657539607551548,10.212152304300895
7.0846112760104045,6.152387309683046,9.759661130594557,10.234588662478163
7.146135149107235,6.324604186570993,9.862007017219339,10.250350874979775
7.2093811909729455,6.471837585137828,9.964510525969137,10.260745144197564
7.274099566824324,6.594929012261148,10.067117977411113,10.267251542247067
7.340048856946935,6.694920881830056,10.169790492833584,10.271384710563531
7.406998065765236,6.772943215355305,10.27250433993922,10.274562796234473
7.4747274979187885,6.830103869041848,10.375249967901564,10.27799136286152
7.543028536609207,6.867388831406063,10.478029881530178,10.282565870237738
7.611702424923268,6.885576853727034,10.580855540232555,10.288793725853665
7.680558193460539,6.885170936803125,10.683743477491092,10.296735308217603
7.74940990282857,6.866348245966946,10.786710830573268,10.30596289033118
7.81807338528824,6.828929880887623,10.88977045947658,10.31553696238696
7.886362684097116,6.7723724266446395,10.99292582910045,10.324000819171232
7.954086408363563,6.695784060565745,11.096165837292162,10.329396085605788
8.02104424896922,6.597968777279052,11.19945979814822,10.329303656044846
8.08702393674201,6.477502520451669,11.302752834708668,10.320915771575551
8.151798961946527,6.332844112927459,11.405961992424423,10.30114501216644
8.215127403075801,6.162481326762261,11.508973442546088,10.266774165850746
8.276752216343423,5.965107904023794,11.611641184204595,10.21464672510917
8.336403295383661,5.739820959668358,11.713787651455688,10.141891047262975
8.393801504980345,5.486320826243489,11.815206561928317,10.046162663017254
8.44866471324278,5.205088746783162,11.91566818855849,9.92588048800282
8.500715600710611,4.897514241884806,12.014926993438518,9.78042634645476
8.54969074312946,4.565945796201952,12.112731256903066,9.610276083792211
8.59535020109148,4.213646994210723,12.208834017740989,9.417036618730778
8.637486671033587,3.844654622400657,12.303004383928297,9.203376546503247
8.675933217257594,3.4635524603768686,12.39503814939333,8.972855747332039
8.710568741861362,3.0751898935922903,12.48476670686665,8.72967725261877
8.741320640797285,2.6843836573945614,12.572063479392837,8.478397386287142
8.768164477371231,2.2956415111653645,12.656847453255708,8.223634566876505
8.791120892482885,1.9129389133485073,12.739083798924472,7.969812660992402
8.810250281616371,1.539566811731453,12.818781925534397,7.720963763866475
8.825645949733685,1.178054548780184,12.895991563173062,7.480601631845113
8.837426495221488,0.8301601435383821,12.970797579491514,7.2516644774676156
8.845728096656872,0.4969128240604801,13.04331422426619,7.0365169216738614
8.850697224897477,0.17868990927267714,13.11367939348293,6.836996365781281
8.852484123990203,-0.12468897769458731,13.182049357140743,6.654488351693018
8.851237234213258,-0.41386429691952675,13.248594240657672,6.490017394569218
8.847098591244063,-0.6898455977373406,13.313494414603364,6.344342984753472
8.84020013526669,-0.9539334022997927,13.376937844450898,6.2180539259823195
8.830660801243692,-1.2076571536043559,13.439118383710722,6.111657255337436
8.818584229707648,-1.4527301914316104,13.500234956264096,6.025660370006585
8.804056927793331,-1.6910212606130113,13.560491559964163,5.960646582723013
8.787146715187202,-1.9245411369679304,13.620098025791393,5.917345148635038
8.767901303817522,-2.1554422652644774,13.679271477277743,5.896696824623107
8.746346881164877,-2.3860284311772832,13.738238445523974,5.899915048570005
8.722486596853104,-2.6187698404013475,13.797237596009674,5.928540336372305
8.69629889844909,-2.8563155757934062,13.856522999373398,5.984480343059313
8.667735742691155,-3.1014885227244573,13.916367802803991,6.07001794903647
8.63672085746391,-3.357234400626195,13.977067982294356,6.187750453026765
8.603148513457649,-3.62647115875375,14.038945486824623,6.340386971538187
8.56688380187011,-3.911739353964101,14.102349356540005,6.530266666060338
8.52776640833047,-4.214478797923109,14.167652023200608,6.758353896733609
8.485621620351239,-4.533654416576859,14.235235562167944,7.022320859822129
8.44028507618547,-4.863388682587404,14.305458770766165,7.313231787258307
8.391651189359596,-5.189482599338437,14.378591088638748,7.610648975058099
8.339756363366211,-5.485844890805798,14.454697578389329,7.877562882319595
8.284897914458153,-5.714566457490934,14.533473207212525,8.060347740974255
8.227752249883244,-5.835927981799817,14.614076684622267,8.102532344012612
8.169392970065246,-5.829392103911688,14.695102008062394,7.973901328160383
8.11109904902613,-5.709987373830187,14.774841021343997,7.693244232009281
8.053999175287828,-5.520324943661286,14.85177346366409,7.317306057532005
7.998795925851215,-5.3058461148715494,14.92494652423941,6.9065928890671975
7.945737464702499,-5.098070675192541,14.99401245313008,6.502383200075301
7.8947567579505735,-4.9130348750666855,15.059036285130833,6.124730870799709
7.845626409199907,-4.756483459045017,15.120283593838831,5.779683080581888
7.798061574609457,-4.628891833561713,15.17808042464465,5.4661714920833715
7.75177265627384,-4.528549561398718,15.232742139565483,5.180194248344372
7.706487160659853,-4.453115761113104,15.284544082048926,4.916890847217464
7.661956003048721,-4.400309710842327,15.3337129905211,4.671436937822563
7.617952905940298,-4.368175687796866,15.380427359899326,4.439365983666391
7.574271149062329,-4.355154567878287,15.42482101973599,4.216637183003845
7.530719603383546,-4.360073811020671,15.466987391566029,3.9996028013482237
7.48711886527334,-4.382106069342763,15.50698341957951,3.7849449491359253
7.443297804579912,-4.420717232951214,15.54483286907087,3.569613103771738
7.3990906322504,-4.475610932102972,15.580529000108587,3.350776616685348
7.35433452292937,-4.546670048345059,15.61403676627544,3.125799573845372
7.308867822445919,-4.633892718486973,15.645294762013894,2.892243157446411
7.262528895261049,-4.737318894834367,15.674217193588358,2.6479003826768297
7.215155706312705,-4.856943098918283,15.700696197415127,2.390868278141696
7.166586275323523,-4.992609506151592,15.724604880196544,2.119662199035642
7.116660180262007,-5.143887196402193,15.7458015021869,1.833375036204797
7.065221308297985,-5.309926736108822,15.764135252548948,1.53187961678077
7.012122040936896,-5.489304598545178,15.779454048716756,1.2160647301327663
6.9572289949514445,-5.679869251835987,15.791614696018083,0.8880837022290111
6.900430302433085,-5.878611153935985,15.800495533040372,0.5515803453482384
6.841644190893725,-6.081586220897782,15.806011336493855,0.2118435450956273
6.7808283286847475,-6.283925160690173,15.808129771944811,-0.12416593633841982
6.717989077077846,-6.47995564117136,15.806888112581428,-0.4479682297588063
6.653189520666132,-6.663448478011321,15.80240843028384,-0.7499269259699028
6.586555035886018,-6.827974725000811,15.794909161024142,-1.0198141768058056
6.51827528863601,-6.967334480034156,15.784711019256084,-1.2475265697411344
6.448601943835668,-7.076000021393584,15.772235753558673,-1.4238632720862792
6.377841943621733,-7.149513218863615,15.75799712083781,-1.5412627444442684
6.306346811433096,-7.184790887649886,15.742584493393368,-1.5944056323397686
6.234498902556598,-7.1803149293527095,15.72664043706997,-1.5806222471885623
6.162695753263071,-7.136206019403324,15.710834214598083,-1.5000787986520383
6.091333693069037,-7.054192105560777,15.695833426611562,-1.3557441185228079
6.020791772013429,-6.937484719385619,15.682275985426335,-1.1531533689431221
5.951416924819573,-6.790572171105991,15.670744451736903,-0.899991709358346
5.8835112031085135,-6.6189366602553825,15.66174453464332,-0.6055277880612413
5.817321836505959,-6.428707371313552,15.655689256762708,-0.2799400990599829
5.753034762792824,-6.226273499583328,15.652889855772107,0.06640268605602229
5.69077202779699,-6.017894393938288,15.653553882632668,0.4236315063616737
5.630593083857607,-5.809351101735642,15.657790197696285,0.7829592957222982
5.57249957284025,-5.6056794415811915,15.665619790653508,1.1370951492653223
5.516442778424438,-5.411009575583384,15.676990742146161,1.4804612119330562
5.462332682668604,-5.2285162527763775,15.691795354265492,1.8092198430128414
5.41004752014084,-5.060464716549855,15.709887552695621,2.121148529249706
5.359442872975341,-4.908325175209413,15.731099037988118,2.4154158839470794
5.310359621223247,-4.772925406809528,15.755253196827589,2.6923130132620523
5.262630367155152,-4.654614805539884,15.78217632696021,2.9529847352898657
5.216084219099753,-4.553420685707075,15.811706174313109,3.1991905974591006
5.170550012242682,-4.469185827617463,15.8436980802877,3.4331113943145897
5.125858153966507,-4.401683080158731,15.878029194230846,3.657205800377989
5.0818413231649195,-4.350707535504511,15.914601252234625,3.874114599715546
5.038334247809875,-4.316149400892174,15.953342398231781,4.08660629566587
4.995172753800953,-4.29805161857987,15.994208461188439,4.297556534207725
4.952192237615154,-4.29665594755367,16.037184026530515,4.509953589023128
4.9092256781396175,-4.312439823697217,16.082283562420745,4.726922006977652
4.8661012799026455,-4.346143684649698,16.12955278249052,4.951755215344184
4.822639843056148,-4.398783827977843,16.179070334643963,5.187943865667006
4.77865200477637,-4.471637578038321,16.230949773300633,5.439177340351339
4.733935628995987,-4.566172305295445,16.285341546704146,5.70927656119221
4.688273905943032,-4.68386185787166,16.34243431231607,6.001978907081177
4.641435287364316,-4.825783998962002,16.40245410138688,6.320427752332856
4.593177447374696,-4.991809693132653,16.46565837891021,6.666104550479417
4.543259350443369,-5.17908154049654,16.532319424415004,7.036782548483865
4.491468535038404,-5.379404697701598,16.60268724989984,7.422974774433876
4.437674488061388,-5.575429755224458,16.67691699764418,7.802697988606616
4.381920190509144,-5.736829109002434,16.754943977530246,8.136204117507717
4.324551899419119,-5.820864842387504,16.836306018705322,8.36677090006253
4.266343250995244,-5.784643516281048,16.919973727705948,8.437662780230603
4.208496815832434,-5.609465141227548,17.004350355508254,8.325748705335425
4.152402164420159,-5.317416810544221,17.08760784256161,8.06411283958698
4.099227996314717,-4.95824761423482,17.168248970957478,7.723374218695699
4.049645520172369,-4.579951457356329,17.245482713144437,7.3708377287941715
4.003846005598806,-4.2123552842881065,17.31919109043238,7.048151861002174
3.961722452755925,-3.8681136765615003,17.389672609042403,6.773137168431716
3.9230413159903104,-3.5495800457978453,17.45740398072672,6.549548528777681
3.8875455155323317,-3.254344867315168,17.522899466014497,6.374815526012337
3.8550020668591802,-2.9782990677093952,17.586647621274622,6.2442765430906215
3.825219076182086,-2.7170368372050326,17.649090386705527,6.15309217114421
3.798048707810036,-2.4664036315785127,17.710621308416968,6.096975075969431
3.773384671494251,-2.222657703975335,17.77159105917666,6.072388972769252
3.7511580944544978,-1.9824743353434569,17.832314948904354,6.076532091529644
3.731333351101063,-1.7428961962445833,17.893080269819652,6.107244659317589
3.713904389138617,-1.501274175523633,17.95415271641283,6.162897619321391
3.698891647383381,-1.2552168184172832,18.01578169260604,6.242283254221914
3.686339479199208,-1.0025554927112625,18.07820452514826,6.344512730004466
3.6763139242720957,-0.7413281286464589,18.141649652448304,6.468919167723142
3.6689006429856312,-0.46978299786050803,18.206338844125536,6.614962472905701
3.664202813007026,-0.18640372798047267,18.272488468854593,6.7821315732259455
3.662338775727221,0.11004328789228601,18.340309784586854,6.969840069681784
3.6634392086061442,0.4204382550010285,18.410008185283672,7.177312373122574
3.6676435911561547,0.7452143028684535,18.4817813090149,7.403459269839712
3.6750957341848394,1.0842430472640001,18.555815901713295,7.646744771089421
3.6859381646574794,1.4367051334360634,18.63228334942419,7.905050282775543
3.70030521599184,1.8009565191354469,18.711333852251943,8.175547627162215
