th1 (rad),w1 (rad/s),th2 (rad),w2 (rad/s),a1 (rad/s^2),a2 (rad/s^2)
4.190823375040698,1.6999552091314214,4.450540381456825,-1.483162515191729,8.562938289344368,0.4480545853567509
4.207822927132012,1.7855845920248652,4.4357087563049085,-1.4786819693381614,8.72434565045101,0.20819529994529323
4.225678773052261,1.8728280485293753,4.420921936611527,-1.4766000163387085,8.872255519176106,0.0025115193728963924
4.244407053537555,1.9615506037211363,4.4061559364481395,-1.4765749011449796,8.999787066250677,-0.15789766422986404
4.264022559574766,2.051548474383643,4.39139018743669,-1.4781538777872782,9.09958077968571,-0.261071205052805
4.2845380443186025,2.1425442821805,4.3766086486588165,-1.4807645898378063,9.16412767959944,-0.2946617971116925
4.305963487140407,2.234185558976494,4.361801002760439,-1.4837112078089232,9.186233283810472,-0.2466142021502174
4.3283053427301725,2.3260478918145986,4.34696389068235,-1.4861773498304254,9.159604473275769,-0.10603126967983408
4.351565821648318,2.417643936547356,4.3321021171840455,-1.4872376625272237,9.079516835132516,0.13583144666712862
4.375742261013792,2.5084391048986814,4.317229740558774,-1.4858793480605523,8.9434848984246,0.48455274342360805
4.400826652062778,2.597873953882927,4.302370947078168,-1.4810338206263163,8.751827186981863,0.941669754088582
4.426805391601608,2.6853922257527456,4.287560608871905,-1.4716171230854305,8.508004885249271,1.504114729873328
4.453659313859135,2.7704722746052384,4.272844437641051,-1.4565759757866972,8.218628974597635,2.1641195026392412
4.4813640366051875,2.8526585643512146,4.258278677883184,-1.4349347807603048,7.893080561618735,2.909672911079947
4.509890622248699,2.931589369967402,4.243929330075581,-1.4058380516495053,7.5427648515394194,3.7255089945132185
4.539206515948373,3.007017018482796,4.229870949559086,-1.368582961704373,7.180100122046486,4.594487514630509
4.569276686133201,3.078818019703261,4.2161851199420415,-1.3226380865580678,6.8174026566455455,5.4991410484902055
4.600064866330234,3.1469920462697165,4.202958739076461,-1.2676466760731657,6.465846330796771,6.423134268522863
4.6315347867929315,3.211650509577684,4.19028227231573,-1.2034153333879372,6.134646573568075,7.352418795886154
4.6636512918887085,3.2729969753133648,4.17824811898185,-1.1298911454290756,5.830555555282871,8.275953836828073
4.696381261641842,3.3313025308661937,4.166949207527559,-1.047131607060795,5.5576820701152725,9.185965994079835
4.729694286950504,3.3868793515673463,4.156477891456952,-0.9552719471199966,5.3175884560196245,10.077808921062694
4.763563080466177,3.4400552361275425,4.146925171985751,-0.8544938579093697,5.109581443400455,10.949535450196079
4.797963632827453,3.491151050561547,4.138380233406657,-0.7449985034074089,4.931105721893155,11.801308549277696
4.832875143333069,3.5404621077804785,4.130930248372583,-0.6269854179146319,4.778161373438623,12.634762194146433
4.8682797644108735,3.5882437215148646,4.1246603941934366,-0.5006377959731676,4.645689072710798,13.452392931449275
4.904162201626022,3.6347006122419727,4.119654016233705,-0.36611386665867485,4.527891269251712,14.257029944548098
4.940509207748442,3.67997952493449,4.115992877567118,-0.22354356721319388,4.418477918311614,15.051403696848542
4.977309002997787,3.7241643041176062,4.113757441894986,-0.07302953024470846,4.310839549403145,15.837813912571498
5.014550646038963,3.7672726996116377,4.113027146592539,0.08534860888100654,4.1981587199753205,16.61788666986652
5.052223373035079,3.8092542868113908,4.113880632681349,0.25152747557967176,4.0734745158104975,17.392405966156357
5.090315915903193,3.849989031969496,4.116395907437146,0.42545153524123536,3.929715313015276,18.16120508646109
5.128815806222888,3.8892861850996487,4.120650422789558,0.6070635861058462,3.7597138674944572,18.92310554035564
5.167708668073884,3.9268833237745935,4.126721058650617,0.7962946415094025,3.556216907177653,19.67589482214882
5.206977501311631,3.96244549284637,4.1346840050657105,0.9930535897308908,3.3118993423333314,20.416337886101008
5.246601956240094,3.9955644862697035,4.144614540963019,1.1972169685919007,3.019391250541355,21.14022049698985
5.286557601102792,4.025758398775117,4.156586710648938,1.4086191735617992,2.6713240034465358,21.842425254416476
5.326815185090543,4.052471638809582,4.170672902384556,1.6270434261059639,2.260400232238654,22.51704298104042
5.367339901478639,4.075075641131968,4.186943336645616,1.8522138559163681,1.7794906714314154,23.157523266252202
5.408090657889958,4.092870547846282,4.20546547520478,2.0837890885788903,1.2217591553203218,23.756868253799606
5.4490193633684205,4.105088139399485,4.226303366090568,2.3213577711168862,0.5808150623153251,24.307873254947175
5.490070244762415,4.110896290022638,4.249516943801737,2.564436503666358,-0.1491097622424782,24.803416473547543
5.531179207662642,4.109405192400214,4.275161308838401,2.8124706684018337,-0.9729651451300717,25.23679808851661
5.572273259586644,4.099675540948913,4.303286015522419,3.0648386492869997,-1.8946761615393997,25.602126238672074
5.613270014996133,4.080728779333518,4.333934402015289,3.3208599116737205,-2.9169375073133454,25.894744241122396
5.654077302789468,4.051559404260384,4.367143001132026,3.5798073540849447,-4.041022961429911,26.11168986710712
5.694592896832072,4.011149174646086,4.402941074672875,3.840924252756016,-5.266626843277217,26.252173996112457
5.734704388578533,3.9584829062133133,4.441350317200436,4.10344599271714,-6.591756300002485,26.31806283747982
5.774289217640666,3.8925653432132883,4.482384777127607,4.366626621091939,-8.012694093097053,26.314345558044966
5.813214871072799,3.812438402282318,4.526051043338526,4.629770076672388,-9.524050829631372,26.24956798263367
5.851339255095622,3.717197893986004,4.57234874410525,4.892265756498725,-11.118922818992331,26.13621333836898
5.888511234035482,3.6060086657960806,4.621271401670238,5.153627889882415,-12.7891664331917,25.991012849126452
5.924571320693443,3.4781170014641636,4.672807680569062,5.413538018373679,-14.52579146367655,25.835171953225355
5.959352490708084,3.332859086827398,4.726943060752799,5.671889737905933,-16.319463785227384,25.694500832070553
5.992681081576358,3.1696644489751242,4.783661958131858,5.928834746226639,-18.161090469630327,25.599438311444086
6.02437772606611,2.988053544278821,4.842950305594124,6.18482912934108,-20.042436048253435,25.584951367133055
6.054258261508898,2.7876291837962865,4.904798596887535,6.4406786430124106,-21.956682311529363,25.690270072019107
6.082134553346861,2.568062360680993,4.96920538331766,6.697581343732602,-23.8987867731293,25.95836505389221
6.107815176953671,2.3290744929497,5.036181196754986,6.957164994271524,-25.865399277112978,26.434965121362477
6.131105921883168,2.07042050017857,5.105752846697701,7.221514645485149,-27.853929757559033,27.16669995416154
6.151810126884953,1.7918812026029798,5.177967993152553,7.493181645026764,-29.860064714296836,28.19755429712573
6.169728938910983,1.4932805554600115,5.2528998096028205,7.775157187998022,-31.872506508888076,29.562095283719316
6.184661744465583,1.1745554903711306,5.3306513814828005,8.070778140835214,-33.86280511673295,31.272661649461455
6.196407299369294,0.8359274392038011,5.411359162891153,8.38350475732983,-35.76668214233925,33.29560079356222
6.204766573761332,0.47826061778040857,5.495194210464451,8.716460765265452,-37.451177627050946,35.50859526401118
6.2095491799391365,0.1037488415098991,5.582358818117106,9.071546717905564,-38.66011419347229,37.62814888860344
6.210586668354235,-0.2828523004248238,5.6730742852961615,9.447828206791598,-38.93264236818507,39.09851148941945
6.207758145349987,-0.6721787241066746,5.767552567364078,9.838813321685793,-37.507872142821384,38.95679557354524
6.2010363581089205,-1.0472574455348884,5.865940700580936,10.228381277421246,-33.28795948137083,35.76850244875384
6.190563783653571,-1.3801370403485966,5.968224513355148,10.586066301908785,-25.051488505167633,27.89069051177091
6.176762413250086,-1.630651925400273,6.074085176374235,10.864973207026495,-12.184236878560892,14.426889577886971
6.160455893996083,-1.7524942941858819,6.1827349084445,11.009242102805365,4.183341473210108,-3.267962522314086
6.1429309510542245,-1.7106608794537808,6.292827329472554,10.976562477582224,20.794478618775475,-21.092801323977973
6.125824342259687,-1.502716093266026,6.402592954248377,10.765634464342444,33.92436456237747,-34.41777379719534
6.110797181327027,-1.1634724476422513,6.510249298891801,10.42145672637049,41.7963747502838,-41.23853715073969
6.099162456850604,-0.7455087001394133,6.614463866155506,10.009071354863092,45.031672342769134,-42.645411031775055
6.09170736984921,-0.2951919767117219,6.714554579704137,9.582617244545341,45.26345550580085,-40.91228090409925
6.088755450082093,0.15744257834628655,6.81038075214959,9.173494435504349,43.9241122196381,-37.92215073344867
6.090329875865556,0.5966837005426675,6.902115696504634,8.794272928169862,41.90198680720127,-34.7810272773396
6.096296712870982,1.0157035686146803,6.990058425786333,8.446462655396466,39.651096609483396,-32.009602683436725
6.106453748557129,1.4122145347095143,7.0745230523402975,8.1263666285621,37.36990104932862,-29.798277749731373
6.120575893904224,1.7859135452028005,7.155786718625919,7.828383851064785,35.12753607334324,-28.176850308444255
6.138435029356252,2.137188905936233,7.234070557136566,7.546615347980342,32.93479526406364,-27.105149219779037
6.159806918415614,2.466536858576869,7.30953671061637,7.275563855782552,30.78024534675274,-26.516406198195483
6.184472287001383,2.7743393120443964,7.382292349174195,7.010399793800597,28.647568724557853,-26.336478234102323
6.212215680121827,3.060814999289975,7.452396347112201,6.747035011459574,26.523414113152768,-26.491721244815267
6.242823830114727,3.3260491404215027,7.519866697226797,6.482117799011421,24.400546932258717,-26.911895745454423
6.276084321518942,3.5700546097440897,7.584687875216911,6.212998841556877,22.278663635136862,-27.531112063936117
6.3117848676163835,3.7928412460954584,7.64681786363248,5.937687720917516,20.164021992926106,-28.28816190716267
6.349713280077338,3.9944814660247197,7.706194740841655,5.65480610184589,18.068458770042646,-29.126786800435074
6.389658094737585,4.175166053725146,7.762742801860114,5.363538233841539,16.008096349184637,-29.996057535430165
6.431409755274836,4.335247017216992,7.816378184198529,5.063577658487238,14.001917287199829,-30.85086556913072
6.474762225447006,4.47526619008899,7.867013960783401,4.75506900279593,12.070329681486967,-31.6524545215055
6.519514887347896,4.59596948690386,7.914564650811361,4.438544457580876,10.233817342307914,-32.36889867884521
6.565474582216934,4.698307660326939,7.95895009538717,4.114855470792423,8.51174871838125,-32.97544165470535
6.612457658820204,4.783425147510751,8.000098650095094,3.7851010542453696,6.921399549312068,-33.45462918777012
6.660291910295311,4.852639143003872,8.037949660637548,3.4505547623676684,5.477223977030224,-33.796197606472
6.7088183017253495,4.907411382774174,8.072455208261225,3.1125927863029483,4.190387655732807,-33.99670833609882
6.7578924155530915,4.9493152593315015,8.103581136124255,2.7726257029419603,3.0685556804254586,-34.05894494491336
6.807385568146406,4.980000816135756,8.131307393153675,2.432036253492827,2.1159095363481777,-33.99110966449052
6.857185576307764,5.001159911499237,8.155627755688602,2.0921251568479216,1.3333520549864755,-33.80586909078541
6.907197175422756,5.014493432049102,8.176549007257082,1.7540664659400675,0.7188482179298215,-33.5193028163837
6.957342109743247,5.021681914228401,8.194089671916482,1.4188734377762304,0.2678424768836581,-33.14980381908781
7.007558928885531,5.024360338997237,8.208278406294244,1.0873753995853523,-0.026310844420402726,-32.7169658959714
7.057802532275503,5.024097230553033,8.219152160290099,0.7602057406256384,-0.1719701781725518,-32.240471912962406
7.108043504581033,5.022377528771307,8.226754217696355,0.43780102149601435,-0.1789520032772361,-31.73896763944755
7.158267279868746,5.020588008738535,8.231132227911315,0.12041134510153884,-0.058475502037341,-31.228869485762903
7.208473159956132,5.020003253718162,8.23233634136233,-0.19187734975609022,0.17660327505336085,-30.72301003761262
7.258673192493313,5.021769286468696,8.23041756786477,-0.4991074501322164,0.5111555306740808,-30.2289724065968
7.308890885358,5.026880841775436,8.225426493363447,-0.8013971741981845,0.9265991360510561,-29.74690474105325
7.359159693775754,5.0361468331359465,8.217412521621466,-1.0988662216087168,1.3989965675104332,-29.266548753902352
7.409521162107113,5.05013679881105,8.206423859405378,-1.3915317091477404,1.896237294676696,-28.763188462033327
7.460022530095224,5.069099171757817,8.1925085423139,-1.6791635937680738,2.3741584916201344,-28.1922957994288
7.510713521812802,5.092840756674018,8.17571690637622,-1.961086551762362,2.7716753561230836,-27.48296420048042
7.561641929379542,5.120557510235249,8.156106040858596,-2.2359161937671663,3.0055712471510834,-26.53104801308182
7.612847504481895,5.1506132227067605,8.133746878920924,-2.5012266738979845,2.9668214261879844,-25.194658790410045
7.664353636708962,5.180281436968641,8.108734612181944,-2.7531732618020848,2.5224257566814856,-23.297627752777018
7.716156451078649,5.205505694535455,8.081202879563923,-2.9861495393298547,1.5293601367980656,-20.650221936854287
7.768211508024003,5.220799295903436,8.051341384170625,-3.1926517586983976,-0.13163538790314652,-17.097871373011234
7.8204195009830375,5.219482942024405,8.019414866583642,-3.3636304724285098,-2.4999709207115837,-12.601088526102892
7.872614330403281,5.19448323281729,7.985778561859356,-3.4896413576895386,-5.471362401318801,-7.325600288871886
7.924559162731454,5.139769608804102,7.950882148282461,-3.5628973605782575,-8.765314337029196,-1.6870487461258423
7.975956858819496,5.0521164654338095,7.915253174676678,-3.579767848039516,-11.969743980658642,3.7145289108268114
8.026478023473834,4.932419025627223,7.879455496196283,-3.5426225589312477,-14.667301050832213,8.276247745353803
8.075802213730105,4.785746015118901,7.8440292706069705,-3.45986008147771,-16.577595476530902,11.59578832120101
8.123659673881294,4.619970060353593,7.809430669792193,-3.3439021982657,-17.62691009891931,13.570644148681728
8.16985937448483,4.443700959364399,7.775991647809536,-3.2081957567788826,-17.917054123253667,14.352929158877773
8.214296384078473,4.264530418131862,7.743909690241748,-3.064666465190105,-17.639357500406685,14.225467925124795
8.256941688259792,4.088136843127796,7.713263025589846,-2.922411785938857,-16.995099613780358,13.486829814773415
8.297823056691069,3.918185846989992,7.684038907730458,-2.787543487791123,-16.1510549462422,12.386566171933987
8.33700491516097,3.75667529752757,7.656163472852547,-2.6636778260717833,-15.226839701665659,11.106177753764964
8.374571668136245,3.6044069005109134,7.629526694591829,-2.5526160485341336,-14.299707747418271,9.765402732105215
8.410615737141354,3.4614098230367305,7.604000534106487,-2.4549620212130816,-13.41511161791678,8.437077859644965
8.445229835371721,3.3272587068575628,7.579450913894356,-2.370591242616632,-12.596995752537694,7.161842095116261
8.478502422440297,3.201288749332186,7.55574500146819,-2.298972821665469,-11.855774019667965,5.95965310619693
8.510515309933618,3.0827310091355065,7.532755273251535,-2.2393762906034995,-11.193854774403942,4.837848897301112
8.541342620024974,2.970792461391467,7.5103615103455,-2.1909978016304885,-10.60921887135605,3.7964345068078376
8.571050544638888,2.8647002726779065,7.4884515323291945,-2.1530334565624103,-10.097631392543219,2.8314027404727033
8.599697547365666,2.7637239587524745,7.46692119776357,-2.1247194291576834,-9.653956884042396,1.936752203377353
8.627334786953192,2.6671843899120504,7.445674003471994,-2.10535190712391,-9.272910371564024,1.1056762215621658
8.654006630852312,2.57445528619641,7.424620484400754,-2.0942951449082883,-8.949463581735337,0.33123819352636025
8.679751183714275,2.484960650379057,7.403677532951671,-2.0909827629730247,-8.679045599545994,-0.39326447807815196
8.704600790218066,2.398170194383597,7.382767705321941,-2.094915407753806,-8.457624050974115,-1.0741214389856286
8.728582492161902,2.313593953873856,7.3618185512444025,-2.1056566221436626,-8.281719027089931,-1.7171375915845606
8.75171843170064,2.2307767636029565,7.340761985022966,-2.122827998059508,-8.148380868592525,-2.327621118808079
8.774026199336669,2.149292954917031,7.319533705042371,-2.146104209247589,-8.055149979424655,-2.9104028273890274
8.79551912888584,2.0687414551227845,7.298072662949895,-2.175208237521479,-8.000008966222735,-3.4698698378614794
8.816206543437067,1.9887413654605572,7.276320580574681,-2.2099069359000936,-7.981332649156213,-4.010003628398526
8.836093957091673,1.908928038968995,7.25422151121568,-2.250006972184079,-7.997838636960969,-4.534416618931639
8.855183237481363,1.8289496525993854,7.231721441493839,-2.2953511383733955,-8.04853945116466,-5.046383942599169
8.873472734007356,1.7484642580877388,7.208767930110105,-2.345814977799387,-8.13269616065703,-5.548868460043172
8.890957376588233,1.6671372964811684,7.185309780332111,-2.401303662399819,-8.249772867532847,-6.044537838307079
8.907628749553044,1.5846395678058398,7.161296743708113,-2.4617490407828897,-8.399390999373567,-6.535772892600822
8.923475145231103,1.5006456578121041,7.136679253300284,-2.527106769708898,-8.581282111450719,-7.024666532966415
8.938481601809224,1.4148328366975969,7.111408185603195,-2.597353435038562,-8.79523772760297,-7.513012668818045
8.952629930176201,1.326880459421567,7.085434651252809,-2.6724835617267426,-9.041054621915517,-8.002284369533802
8.965898734770416,1.236469913202412,7.058709815635542,-2.7525064054220807,-9.318473855856638,-8.493600508580455
8.978263433902441,1.1432851746438455,7.031184751581321,-2.8374424105078853,-9.627111843906338,-8.987680075091378
8.98969628564888,1.047014056204782,7.002810327476243,-2.927319211258799,-9.966381745754218,-9.484783363976737
9.000166426210926,0.9473502387472399,6.973537135363655,-3.0221670448985667,-10.335403609858844,-9.984639403121673
9.009639928598398,0.8439962026486515,6.9433154649146696,-3.1220134389297836,-10.732901971733805,-10.486359303639576
9.018079890624884,0.7366671829313134,6.912095330525371,-3.2268770319661795,-11.157090107132687,-10.988335798647169
9.025446562454198,0.6250962818599866,6.87982656020571,-3.336760389952651,-11.605540937962047,-11.488130152638341
9.031697525272797,0.5090408724803661,6.846458956306184,-3.4516416914790344,-12.075045783749404,-11.98234897206594
9.036787933997601,0.38829041464287206,6.811942539391393,-3.571465181199694,-12.561463847444557,-12.46651532431742
9.04067083814403,0.2626757761684265,6.776227887579396,-3.696130334442868,-13.059567618235828,-12.934941057872102
9.043297595905713,0.13208009998606823,6.739266584234968,-3.8254797450215894,-13.562892332508444,-13.380610349442259
9.044618396905573,-0.0035488233390162105,6.701011786784751,-3.959285848516012,-14.063601256386782,-13.795088238949472
9.044582908672183,-0.14418483590288403,6.661418928299591,-4.097236730905506,-14.552382719800498,-14.168472065160715
9.043141060313154,-0.28970866310088905,6.620446560990536,-4.238921451557114,-15.018399238793924,-14.489407890972036
9.040243973682145,-0.4398926554888283,6.5780573464749645,-4.383815530466834,-15.449313150736053,-14.745197537694732
9.035845047127257,-0.5943857869961888,6.534219191170296,-4.531267505843782,-15.831416082709728,-14.922023734911951
9.029901189257295,-0.7526999478232861,6.488906516111858,-4.680487743192901,-16.1498900723959,-15.005319816525827
9.022374189779063,-0.9141988485472451,6.4421016386799295,-4.8305409413581595,-16.389224798700987,-14.980304819818771
9.01323220129359,-1.078091096534255,6.393796229266348,-4.9803439895563475,-16.53380663997114,-14.83269328697227
9.002451290328247,-1.2434291629339664,6.343992789370785,-5.12867092242607,-16.568679979289833,-14.549570544555728
8.990016998698907,-1.4091159627268648,6.292706080146524,-5.274166627871628,-16.480459033144676,-14.120398890318452
8.975925839071639,-1.5739205530583116,6.239964413867808,-5.415370616774812,-16.2583407510703,-13.538089898385296
