th1 (rad),w1 (rad/s),th2 (rad),w2 (rad/s)
3.5054841774153185,-0.33949321547434447,0.6782753657373061,2.969936935042217
3.502089245260575,-0.35378110163275184,0.7079747350877282,2.8952155414067167
3.4985514342442476,-0.3707410927140773,0.7369268905017954,2.815966319407308
3.494844023317107,-0.38973765627865187,0.7650865536958684,2.732976940570673
3.4909466467543204,-0.41019439598215385,0.7924163231015752,2.646963915095432
3.486844702794499,-0.43159988236810637,0.8188859622525295,2.5585655313008013
3.482528703970818,-0.4535096673608717,0.8444716175655376,2.4683395430334247
3.477993607297209,-0.47554533053665315,0.8691550129958718,2.3767645263334165
3.4732381539918427,-0.4973913735569139,0.892922658259206,2.284243880548773
3.4682642402562736,-0.5187906862961924,0.9157650970646938,2.1911115744000114
3.4630763333933117,-0.5395391853025221,0.9376762128086938,2.097638896005434
3.4576809415402865,-0.5594800952379476,0.9586526017687482,2.004041629945835
3.452086140587907,-0.5784982217539385,0.9786930180682065,1.910487236547684
3.4463011583703675,-0.5965144580592118,0.9977978904336834,1.8171017393958395
3.4403360137897754,-0.6134806805034619,1.0159689078276417,1.7239761332896493
3.4342012069847407,-0.6293751208571989,1.0332086691605382,1.6311722068906818
3.4279074557761686,-0.64419825277716,1.049520391229445,1.538727734773052
3.421465473248397,-0.6579691945033994,1.0649076685771757,1.446661036010143
3.414885781303363,-0.6707226062211661,1.079374278937277,1.354974924508955
3.408178555241151,-0.6825060459933068,1.0929240281823667,1.263660093451573
3.401353494781218,-0.6933777403455903,1.1055606291168825,1.1726979853509543
3.394419717377762,-0.7034047225149336,1.117287608970392,1.0820632027547306
3.3873856701526126,-0.7126612915156604,1.1281082409979393,0.9917255143893411
3.380259057237456,-0.721227747381286,1.1380254961418328,0.9016515089200694
3.373046779763643,-0.7291893613498235,1.1470420112310336,0.8118059445222737
3.3657548861501447,-0.7366355437783686,1.1551600706762564,0.7221528378259154
3.358388530712361,-0.743659176787708,1.1623815990545154,0.6326563309897726
3.3509519389444837,-0.7503560827821256,1.168708162364413,0.5432813709930749
3.3434483781166624,-0.7568246038986862,1.1741409760743438,0.45399423088704227
3.3358801320776754,-0.7631652710217486,1.178680918383214,0.3647628988268077
3.328248479367458,-0.769480544209374,1.1823285473714822,0.2755573572464717
3.3205536739253643,-0.7758746092081439,1.1850841209439469,0.18634977154900248
3.312794927833283,-0.7824532171913806,1.186947618659437,0.09711460513674325
3.304970395661369,-0.7893235569642908,1.1879187647108045,0.007828675471914529
3.297077160091726,-0.7965941506654655,1.1879970514655236,-0.08152883591273644
3.289111218585071,-0.8043747654869389,1.1871817631063961,-0.17097640797986235
3.2810674709302017,-0.8127763351639067,1.1854719990265974,-0.2605302290254305
3.2729397075785625,-0.8219108859779253,1.182866696736343,-0.3502042604163529
3.264720598718783,-0.8318914627994412,1.1793646541321796,-0.44001030659000284
3.256401684090789,-0.8428320512898758,1.1749645510662796,-0.5299580832491291
3.24797336357789,-0.8548474928109457,1.1696649702337882,-0.6200552761249376
3.2394248886497805,-0.8680533888681095,1.1634644174725388,-0.7103075830157444
3.2307443547610992,-0.8825659920630576,1.1563613416423815,-0.8007187320628879
3.2219186948404688,-0.8985020805628718,1.1483541543217526,-0.8912904694210866
3.21293367403484,-0.9159788130260773,1.1394412496275417,-0.9820225096365122
3.203773885904579,-0.9351135607733423,1.1296210245311766,-1.0729124421803147
3.1944227502968454,-0.9560237137684154,1.1188919001093736,-1.1639555877149754
3.1848625131591612,-0.9788264566992699,1.1072523442322237,-1.255144797812102
3.1750742485921686,-1.0036385111379045,1.0947008962541027,-1.346470192009774
3.1650378634807894,-1.030575839429206,1.081236194334005,-1.4379188263127713
3.1547321050864974,-1.0597533056362964,1.0668570060708773,-1.529474287518764
3.1441345720301346,-1.0912842885760734,1.0515622631956896,-1.621116208118388
3.133221729144374,-1.1252802417413088,1.0353511011145058,-1.7128196969897482
3.121968926726961,-1.16185019475486,1.0182229041446083,-1.8045546817130689
3.110350424779412,-1.201100190970502,1.0001773573274775,-1.896285159095933
3.098339422869707,-1.2431326559596827,0.9812145057365181,-1.9879683514523006
3.08590809631011,-1.2880456919424854,0.9613348222219952,-2.079553767348601
3.073027639390685,-1.335932293773928,0.9405392845485092,-2.170982166946441
3.059668316452946,-1.3868794829230746,0.9188294628790448,-2.262184433760139
3.045799521623715,-1.4409673570197665,0.8962076185414434,-2.3530803566297953
3.0313898480535175,-1.4982680540248747,0.8726768149751454,-2.4435773280002366
3.0164071675132687,-1.5588446319295342,0.848241041695143,-2.5335689671942974
3.000818721193973,-1.6227498671194571,0.8229053520232,-2.6229336802609113
2.9845912225227784,-1.690024977148141,0.796676015220591,-2.711533171128944
2.967690972751297,-1.7606982766220929,0.7695606835093015,-2.799210922146145
2.950083989985076,-1.8347837781602772,0.7415685742878401,-2.8857906655395644
2.9317361522034733,-1.912279753866492,0.7127106676324444,-2.9710748707782995
2.9126133546648085,-1.9931672763315902,0.6829999189246614,-3.054843276098894
2.8926816819014927,-2.0774087617127286,0.6524514861636724,-3.1368514953867366
2.8719075942843655,-2.164946540738499,0.621082971209805,-3.2168297339909406
2.8502581288769804,-2.2557014863575637,0.5889146738698956,-3.2944816486747195
2.8277011140134047,-2.3495717289693987,0.5559698573831484,-3.3694833875685983
2.804205396723711,-2.4464314915427394,0.5222750235074625,-3.441482845537221
2.7797410818082833,-2.5461300772688054,0.4878601950520903,-3.5100991686980083
2.7542797810355952,-2.6484910416069374,0.4527592033651102,-3.574922538952259
2.727794870619526,-2.753311578656381,0.41700997797558764,-3.6355142654589185
2.700261754832962,-2.860362148863851,0.3806548353209985,-3.691407205325634
2.6716581333443234,-2.9693863714561166,0.3437407632677421,-3.742106530935782
2.6419642696297623,-3.0801012011649833,0.3063196979583843,-3.7870908570006505
2.6111632576181125,-3.1921974054774824,0.2684487893883778,-3.8258137375283248
2.579241283563338,-3.3053403566571173,0.23019065201309455,-3.857705542460078
2.5461878799967668,-3.4191711531187505,0.19161359658849378,-3.8821757267834625
2.511996168465579,-3.5333080883979884,0.15279183932065915,-3.8986155123982464
2.476663087581599,-3.647348493820334,0.11380568419667669,-3.906401015465712
2.440189602643396,-3.760870993643535,0.07474167404201956,-3.9048968694236557
2.4025808927069603,-3.873438229024432,0.035692705347783,-3.893460415475174
2.363846510416716,-3.984600129042866,-0.003241898806968742,-3.8714465562357696
2.3240005091262876,-4.093897831667877,-0.04195636436932644,-3.8382133910964216
2.2830615308096087,-4.200868382344253,-0.08033849828029066,-3.7931287689982707
2.2410528469861664,-4.305050358990295,-0.11826978597027338,-3.735577899510254
2.198002343396263,-4.405990584669031,-0.1556255649653759,-3.6649721489002958
2.153942437549573,-4.5032520871730135,-0.19227528645437886,-3.5807591061339004
2.1089099166778427,-4.596423442023711,-0.22808287751571787,-3.482433926491323
2.0629456822576056,-4.685129586180858,-0.2629072167806311,-3.3695518414461847
2.016094386395797,-4.769044110003271,-0.29660273519509295,-3.2417415596931196
1.9684039452957642,-4.847902923781655,-0.3290201507920241,-3.09871907836373
1.9199249160579477,-4.9215190563609985,-0.36000734157566144,-2.940301185729935
1.8707097254943377,-4.989798187159952,-0.3894103534329608,-2.766417686375357
1.8208117436227382,-5.052754356625702,-0.4170745302967144,-2.57712114561421
1.7702842000564811,-5.110525168093977,-0.44284574175285646,-2.372592768166001
1.7191789483755413,-5.163385715407027,-0.46657166943451645,-2.1531429362687686
1.667545091221471,-5.211760475894003,-0.48810309879720415,-1.919204970066752
1.615427486462531,-5.256232523516943,-0.5072951484978717,-1.671320860551814
1.5628651612273616,-5.29754965761379,-0.5240083571033899,-1.4101180621016134
1.5098896646512237,-5.336627408179201,-0.5381095377244061,-1.1362768872066242
1.4565233905694317,-5.374549349750697,-0.5494723065964723,-0.8504885575370723
1.4027778970719247,-5.412565696450127,-0.557977192171843,-0.5534044430480386
1.3486522401074235,-5.452091714044565,-0.5635112366023234,-0.24557735950408904
1.2941313229669777,-5.494708024995259,-0.5659670101973643,0.07260410731996575
1.2391842427170252,-5.542165365770191,-0.5652409691241647,0.4009875053645741
1.1837625890593233,-5.596396770069859,-0.561231094070519,0.7397344876267957
1.1277986213586246,-5.659540507244416,-0.553833749194251,1.0894056287589133
1.0712032162861804,-5.733977420776018,-0.5429396929066619,1.4510540813721746
1.0138634420784203,-5.822386575106808,-0.5284291520929402,1.8263313906081762
0.9556395763273522,-5.927823198288327,-0.5101658381868585,2.2176098545942455
0.8963613443444689,-6.05382235443046,-0.487989739640916,2.628125834346733
0.8358231208001643,-6.204529383975686,-0.4617084812974487,3.062145543730073
0.7737778269604074,-6.384850910914253,-0.43108702586014797,3.525144779280308
0.7099293178512649,-6.600600937214931,-0.3958355780673449,4.023966621217532
0.6439233084791156,-6.858568249386008,-0.35559591185516953,4.566852501275512
0.5753376259852555,-7.166314791155162,-0.3099273868424144,5.1630771202266335
0.5036744780737039,-7.5312430971855555,-0.25829661564014805,5.821534982143576
0.42836204710184833,-7.9578752968666855,-0.2000812658187123,6.54678921228354
0.3487832941331815,-8.4411559981828,-0.1346133736958769,7.3295087370801575
0.2643717341513535,-8.952289330250723,-0.061318286325075314,8.126406256582895
0.17484884084884628,-9.415971629098493,0.019945776240753638,8.828147465964468
0.08068912455786134,-9.696845434101974,0.10822725090039832,9.24049295720258
-0.016279329783158394,-9.652703637357993,0.20063218047242412,9.1598918193237
-0.11280636615673832,-9.27168865986285,0.2922310986656611,8.567749462044336
-0.20552325275536681,-8.710258693536105,0.3779085932861045,7.6847686386511045
-0.29262583969072786,-8.139230393397717,0.45475627967261556,6.754088202788587
-0.37401814362470504,-7.640972008418278,0.5222971617005014,5.895289146831858
-0.4504278637088878,-7.2320594145954376,0.5812500531688201,5.135036218836753
-0.5227484578548423,-6.903995140343232,0.6326004153571876,4.463964376281685
-0.5917884092582746,-6.642947867239747,0.6772400591200044,3.8645584332708465
-0.658217887930672,-6.436103692982788,0.7158856434527129,3.3203244804684506
-0.7225789248604999,-6.273001453729104,0.7490888882573974,2.81788673764231
-0.785308939397791,-6.145380908445546,0.7772677556338204,2.3469477005582906
-0.8467627484822464,-6.046712908104181,0.8007372326394033,1.8997616156967927
-0.9072298775632882,-5.971747681466164,0.8197348487963713,1.4706025498665893
-0.9669473543779499,-5.916155524379637,0.8344408742950371,1.0553366434809734
-1.0261089096217462,-5.876259843223068,0.8449942407298469,0.6511000087611722
-1.0848715080539768,-5.848846024848422,0.8515052408174586,0.2560581167515913
-1.1433599683024611,-5.831029450654444,0.8540658219849745,-0.13077883092268078
-1.2016702628090055,-5.820169289004694,0.8527580336757477,-0.5097052446207668
-1.2598719556990523,-5.813817800539846,0.84766098122954,-0.8804492381969098
-1.3180101337044507,-5.809696977896942,0.8388564888475709,-1.2422913128126005
-1.3761071034834202,-5.805695504955251,0.8264335757194449,-1.5941779977607144
-1.4341640585329727,-5.799879599164252,0.8104917957418377,-1.934832093212571
-1.4921628545246153,-5.790511665049512,0.791143474809712,-2.2628582855452435
-1.5500679711751104,-5.776071150412138,0.7685148919542596,-2.57684100375133
-1.6078286826792318,-5.755272759672804,0.7427464819167463,-2.875430545520404
-1.6653814102759599,-5.727078301309995,0.7139921764615422,-3.1574136997163507
-1.72265219328906,-5.690699851032441,0.6824180394643787,-3.421766151391318
-1.7795591917993843,-5.645593421500572,0.6482003779504656,-3.667685565066323
-1.83601512601439,-5.591443725966322,0.6115235222998023,-3.894606022945526
-1.8919295632740531,-5.528141715575564,0.5725774620703471,-4.102196088369673
-1.9472109804298088,-5.4557572405087535,0.5315555011866504,-4.2903439089649265
-2.0017685528348963,-5.374509408755267,0.4886520620970011,-4.459133343484523
-2.055513646922449,-5.284737050979399,0.4440607286621559,-4.608815101388768
-2.1083610174322427,-5.186871256670719,0.3979725776482682,-4.739776435443773
-2.16022972999895,-5.08141135461342,0.3505748132938305,-4.852512186959382
-2.211043843545084,-4.968905087367541,0.30204969142423665,-4.947599117534048
-2.2607328944187595,-4.849933163711113,0.2525737002488962,-5.025674609655259
-2.3092322260558706,-4.725097919137334,0.2023169541523436,-5.087420077756941
-2.356483205247244,-4.59501549558508,0.1514427533747742,-5.133548853984081
-2.4024333602030947,-4.460310767167613,0.10010726483493339,-5.164797915247285
-2.4470364678747707,-4.321614173452865,0.04845928568246054,-5.18192259103069
-2.4902526096092994,-4.179559652955906,-0.0033599402278463655,-5.1856933107599765
-2.5320482061388585,-4.0347829715760755,-0.05521687333544613,-5.176893484445782
-2.572396035854619,-3.887919888988751,-0.10698580817990394,-5.156317728484721
-2.6112752347445065,-3.7396037779174507,-0.15854898546475116,-5.124769819333826
-2.648671272523681,-3.5904624871571587,-0.20979668365808943,-5.0830599540099985
-2.684575897395253,-3.4411144029660825,-0.2606272831981894,-5.032001094864814
-2.7189870414249135,-3.2921638024713373,-0.3109472941468375,-4.9724043582811825
-2.751908679449627,-3.144195698515438,-0.3606713377296494,-4.905073559140127
-2.7833506364347813,-2.9977704435169357,-0.40972207332105065,-4.830799136452869
-2.8133283408699508,-2.8534183900832235,-0.45803006468557933,-4.750351756739956
-2.841862524770783,-2.711634901558432,-0.505533582252979,-4.664475921412487
-2.8689788737863675,-2.572875972519524,-0.5521783414671039,-4.573883897212974
-2.8947076335115627,-2.4375546653824505,-0.5979171804392336,-4.479250252088536
-2.919083180165387,-2.306038503392178,-0.642709682960119,-4.381207221604271
-2.942143565199309,-2.1786478906474835,-0.6865217551761617,-4.280341062378457
-2.963930044105784,-2.0556555635661193,-0.7293251657999462,-4.177189477519106
-2.984486599741445,-1.9372870207012067,-0.7710970605751373,-4.0722401316530155
-3.003859469948457,-1.8237218324819509,-0.8118194618916674,-3.9659302149329925
-3.0220966882732765,-1.715095700773821,-0.8514787640409973,-3.858646969433492
-3.039247645281015,-1.6115031200138472,-0.8900652337353322,-3.750729058789132
-3.0553626764811534,-1.5130004857359016,-0.9275725243232236,-3.642468642467592
-3.0704926813385125,-1.4196095004449543,-0.9639972107478995,-3.5341140082819775
-3.0846887763429622,-1.3313207385546837,-0.9993383508307192,-3.4258726185655983
-3.098001983728509,-1.2480972489748414,-1.0335970770163752,-3.317914434508774
-3.110482956218257,-1.169878093651135,-1.0667762213614629,-3.2103753971737095
-3.1221817371547687,-1.0965817410183185,-1.0988799753332,-3.1033609605734953
-3.133147554564952,-1.0281092534573268,-1.1299135849389348,-2.9969495901897596
-3.143428647099525,-0.9643472264139292,-1.1598830808408325,-2.8911961580721592
-3.1530721193636646,-0.9051704531950404,-1.188795042421554,-2.786135182262731
-3.162123823895615,-0.8504443032903398,-1.2166563942441815,-2.6817838731173715
-3.1706282669285186,-0.8000268133029496,-1.2434742329753552,-2.578144961841161
-3.178628535061548,-0.7537704983240121,-1.2692556825937669,-2.475209297121683
-3.186166240044788,-0.7115238980775502,-1.2940077755649837,-2.3729582042024178
-3.1932814790255635,-0.6731328766826096,-1.317737357607008,-2.2713656072591157
-3.2000128077923895,-0.6384416977417026,-1.340451013679599,-2.1703999207587685
-3.2063972247698067,-0.6072938979760925,-1.3621550128871867,-2.070025718852722
-3.212470163749568,-0.5795329830752689,-1.382855270075714,-1.9702051940437784
-3.2182654935803203,-0.555002969063325,-1.4025573220161518,-1.8708994176184843
-3.2238155232709538,-0.5335487915251362,-1.4212663161923367,-1.7720694148724279
-3.229151011186205,-0.5150166036592944,-1.438987010341061,-1.673677068170988
-3.234301177222798,-0.4992539824767068,-1.4557237810227708,-1.575685860542421
-3.2392937170475653,-0.48611006065652207,-1.471480639628195,-1.4780614719260081
-3.2441548176541306,-0.4754355996907652,-1.4862612543474552,-1.3807722394989415
-3.2489091736510383,-0.46708301805983743,-1.5000689767424447,-1.2837894927605265
-3.2535800038316367,-0.4609063863291224,-1.51290687167005,-1.1870877733184602
-3.258189067694928,-0.4567613992746994,-1.5247777494032346,-1.0906449486386895
-3.262756681687675,-0.454505333455299,-1.5356841988896215,-0.9944422284120336
-3.267301735022228,-0.45399699706198254,-1.5456286211737418,-0.8984640916698955
-3.271841704992848,-0.4550966774047127,-1.5546132620904407,-0.8026981323512032
-3.276392671766895,-0.4576660900401682,-1.5626402434139528,-0.7071348306794512
-3.2809693326672966,-0.46156833230935856,-1.5697115917207474,-0.6117672574435787
-3.28558501599039,-0.46666784293666186,-1.5758292642951832,-0.5165907180772218
-3.290251694419757,-0.47283036834278164,-1.5809951714759554,-0.4216023432833952
-3.2949799981031846,-0.479922935441342,-1.5852111949087893,-0.32680063284079075
-3.299779227457598,-0.4878138299209741,-1.588479201237197,-0.23218495913849782
-3.3046573657568077,-0.49637257836062915,-1.5908010508285821,-0.137755036903774
-3.309621091540414,-0.5054699319848025,-1.5921786011976198,-0.04351036549966275
-3.314675790860262,-0.5149778494372926,-1.5926137048526163,0.05055034993501159
-3.319825569354635,-0.5247694756376833,-1.5921082013532661,0.14442979235961945
-3.3250732641110115,-0.5347191135853244,-1.59066390342967,0.23813263573450988
-3.330420455246865,-0.5447021858934511,-1.5882825770723248,0.3316661511567997
-3.3358674771057992,-0.5545951828744142,-1.5849659155607567,0.4250408106505117
-3.341413428934543,-0.5642755941601192,-1.5807155074542516,0.5182708832692786
-3.3470561848761444,-0.5736218211353854,-1.5755327986215588,0.6113750184127289
-3.3527924030874985,-0.5825130678935682,-1.5694190484374315,0.704376811486529
-3.3586175337664343,-0.5908292090033825,-1.5623752803225663,0.7973053472237132
-3.364525825856468,-0.5984506331166974,-1.5544022268503292,0.890195716096273
-3.370510332187635,-0.6052580623668429,-1.5455002696893665,0.9830894992370649
-3.3765629128113037,-0.6111323486293495,-1.5356693746969958,1.0760352171090792
-3.3826742362975972,-0.6159542490734496,-1.524909022525905,1.1690887367370166
-3.3888337787883316,-0.6196041850645302,-1.5132181351585348,1.2623136315772905
-3.395029820638977,-0.6219619904390135,-1.5005949988427618,1.3557814869548785
-3.401249440543367,-0.6229066575333294,-1.487037183973213,1.4495721423299637
-3.4074785071187006,-0.6223160921959217,-1.4725414625499134,1.5437738593457204
-3.4137016680406598,-0.6200668924558804,-1.4571037239564562,1.6384834015001433
-3.4199023369652184,-0.6160341696995688,-1.4407188899414547,1.7338060072029933
-3.426062678662214,-0.6100914362816101,-1.4233808298694248,1.8298552327185342
-3.43216359302503,-0.6021105896632877,-1.4050822775422396,1.926752634819418
-3.438184698921663,-0.5919620306544802,-1.3858147511940453,2.0246272546190784
-3.4441043192282077,-0.5795149623862356,-1.3655684786478546,2.123614853713305
-3.44989946885207,-0.5646379275290376,-1.3443323301107215,2.223856841131538
-3.45554584812736,-0.5471996542649653,-1.3220937616994062,2.3254988143613144
-3.46101784467001,-0.5270702968551912,-1.2988387735557931,2.4286886195888755
-3.4662885476385616,-0.5041231744655007,-1.2745518873599044,2.533573815116896
-3.4713297793832165,-0.47823713219807124,-1.2492161492087355,2.6402983976933423
-3.4761121507051973,-0.44929967070402,-1.222813165231802,2.7489986245741305
-3.4806051474122377,-0.41721101450609077,-1.1953231789860606,2.859797735471671
-3.4847772575572984,-0.381889312675744,-1.1667252016313439,2.9727993499171523
-3.4885961506840557,-0.3432771860917105,-1.1369972081321724,3.088079290108866
