th1 (rad),w1 (rad/s),th2 (rad),w2 (rad/s)
4.856688983576727,2.5628886136294096,2.2424256810936125,-1.6554787385290048
4.882317869713021,2.6765473013128065,2.2258708937083225,-1.6009214113299628
4.9090833427261495,2.7932083146281297,2.209861679595023,-1.5420285464471777
4.937015425872431,2.912487255270395,2.194441394130551,-1.4794924166383705
4.9661402984251355,3.0338105841957668,2.1796464699641676,-1.4142958832053605
4.996478404267093,3.1563913769492267,2.165503511132114,-1.3477518824096006
5.028042318036586,3.27921303903897,2.152025992308018,-1.2815314841504175
5.060834448426975,3.4010258075944577,2.139210677466514,-1.2176730049956226
5.09484470650292,3.5203610771273257,2.1270339474165576,-1.158564200003975
5.130048317274194,3.6355679715731872,2.115448305416518,-1.1068903812345987
5.166403996989926,3.7448749035812616,2.104379401604172,-1.0655438314163956
5.203852746025738,3.8464760601712187,2.093723963290008,-1.0374942405171463
5.242317506627451,3.93863905844701,2.0833490208848366,-1.0256257836868867
5.281703897211921,4.0198259696764165,2.073092763047968,-1.0325530428865355
5.321902156908685,4.0888163075716015,2.0627672326191027,-1.060433962463103
5.362790319984401,4.14481829013908,2.0521628929944717,-1.1108019425547357
5.404238502885792,4.187554441604914,2.0410548735689242,-1.1844397304982068
5.446114047301841,4.2173097708300915,2.029210476263942,-1.2813142775128932
5.488287145010142,4.234935217070499,2.016397333488813,-1.400584369477452
5.530636497180847,4.241805136177355,2.0023914897940385,-1.5406827570570127
5.57305454854262,4.239734215375729,1.9869846622234684,-1.6994636292893945
5.615451890696377,4.230865034571722,1.9699900259305745,-1.8743968891751184
5.657760541042094,4.217541316537436,1.9512460570388233,-2.0627848562226476
5.699935954207469,4.20218295755309,1.9306182084765968,-2.2619759441569154
5.741957783783,4.187177138023604,1.9079984490350277,-2.469553507173079
5.783829555163235,4.174795842126521,1.8833029139632969,-2.6834851726090614
5.8255775135845,4.167145121106379,1.8564680622372063,-2.9022265977362776
5.867248964795564,4.166146662199817,1.8274457962598436,-3.1247816739637058
5.908910431417563,4.173548630828533,1.7961979795202065,-3.3507272922096694
5.950645917725848,4.190960797193722,1.76269070659811,-3.5802142836821518
5.992555525697785,4.219908612198033,1.7268885637612883,-3.8139572681710043
6.034754611819766,4.261901809695319,1.6887489910795783,-4.053225586639359
6.077373629916719,4.318514809856182,1.6482167352131847,-4.299846124080941
6.1205587780152815,4.3914782406421,1.6052182739723753,-4.556227371652936
6.164473560421703,4.482782922347764,1.559656000255846,-4.825412968098844
6.209301389645181,4.594799328568678,1.5114018705748575,-5.111172219411456
6.2552493829308675,4.73041628430882,1.460290148380743,-5.418134112129843
6.302553545773955,4.893201184872608,1.4061088072594445,-5.751968280375564
6.351485557622682,5.087577069826401,1.348589124455689,-6.119606668663533
6.4023613283209455,5.318991437214372,1.2873930577690536,-6.5294720466708505
6.455551242693089,5.593998183654658,1.222098337302345,-6.991606909108127
6.511491224529636,5.9200407779216615,1.1521822682112637,-7.517413615757122
6.5706916323088524,6.304404628771345,1.0770081320536924,-8.118274362181996
6.633735678596566,6.751080907056955,0.9958253884318724,-8.801310871169035
6.701246487667135,7.252855981527558,0.9078122797201821,-9.558547558678624
6.7737750474824105,7.774226847706261,0.8122268041333959,-10.343322992867499
6.851517315959473,8.223889280955753,0.7087935742047209,-11.032115373109528
6.93375620876903,8.44143824839926,0.5984724204736256,-11.405997205703205
7.018170591253023,8.273519527318047,0.48441244841659353,-11.256410181577854
7.100905786526203,7.740462259636096,0.371848346600815,-10.615906786586635
7.178310409122564,7.0406191964866816,0.26568927873494863,-9.761711740796198
7.24871660108743,6.350714455283577,0.16807216132698666,-8.937937891175556
7.312223745640266,5.7402987950633335,0.07869278241523109,-8.239333500514428
7.369626733590899,5.215824146340012,-0.0037005525899131975,-7.674011857637868
7.421784975054299,4.76384716937302,-0.08044067116629189,-7.2234502335534945
7.46942344674803,4.36841147756301,-0.15267517350182686,-6.866282922066193
7.513107561523659,4.015784267440818,-0.22133800272248877,-6.58461867143176
7.553265404198068,3.6950736946784946,-0.28718418943680635,-6.364744519683346
7.590216141144852,3.397801449010467,-0.3508316346336398,-6.196439966635489
7.624194155634957,3.117343215802066,-0.4127960342999947,-6.0721337753436835
7.655367587792977,2.848463524238153,-0.47351737205343153,-5.986196510093204
7.683852223035358,2.586975538698195,-0.5333793371543636,-5.934397684786532
7.70972197842234,2.3295087633584437,-0.5927233140022289,-5.913494094827004
7.733017066055924,2.073361892439169,-0.651858254950499,-5.920909760512087
7.753750684980315,1.8164222479468963,-0.7110673525556198,-5.954475078416643
7.771914907459784,1.5571382186350808,-0.7706121033397862,-6.012201600860867
7.787486289646135,1.2945343861408725,-0.8307341193483949,-6.09207694010205
7.800431633507544,1.0282599974359161,-0.8916548887494155,-6.191871828682602
7.810714233481903,0.758659986308699,-0.9535736070362415,-6.308959119110322
7.81830083334499,0.4868539479413181,-1.0166631982273446,-6.440153036861689
7.823169372824403,0.21480282852587568,-1.0810647285959616,-6.581586202773163
7.825317401109662,-0.05466309261309099,-1.1468805906236932,-6.72865056868969
7.824770770183531,-0.3178856023613397,-1.2141670963105902,-6.876033716660793
7.821591914159918,-0.5705186866332723,-1.282927433477198,-7.017879843594072
7.815886727293585,-0.8077859349455876,-1.3531062319131388,-7.148090915944415
7.8078088679441295,-1.0248513377683675,-1.424587141072583,-7.260756093766225
7.797560354566446,-1.217268076898301,-1.4971947020102452,-7.3506604803416495
7.785387673797463,-1.3814381524256363,-1.5707013068136617,-7.413788927285191
7.771573292273207,-1.5149971568136162,-1.6448391960865136,-7.447723168256609
7.75642332070507,-1.6170449507725133,-1.7193164277690798,-7.451843900343855
7.740252871197345,-1.6881765230048702,-1.7938348667725184,-7.427293981593502
7.7233711059672965,-1.7303168180686472,-1.8681078065884533,-7.376719305893408
7.70606793778661,-1.746409398405335,-1.9418749996473874,-7.30385624019728
7.688603843802557,-1.740034555609997,-2.0149135620493603,-7.213059736352302
7.671203498246458,-1.7150321906677364,-2.0870441594128835,-7.108859926323067
7.65405317633978,-1.6751847072043047,-2.158132758676114,-6.9956068423169455
7.637301329267737,-1.6239874464941406,-2.2280888270992834,-6.87722831568291
7.621061454802796,-1.5645095874989559,-2.2968611102561125,-6.757097564444928
7.6054163589278065,-1.4993324434798911,-2.3644320859005616,-6.637989986386843
7.590423034493008,-1.4305451478403024,-2.43081198576443,-6.52210270471603
7.576117583014605,-1.3597774379635974,-2.49603301281159,-6.4111119467715305
7.562519808634969,-1.2882525854965536,-2.5601441322793055,-6.306248527457264
7.549637282780004,-1.2168480718373256,-2.623206617553878,-6.208377735616819
7.53746880206163,-1.146155920694537,-2.685290394910046,-6.118075231392861
7.526007242854685,-1.07653803965928,-2.746471147223975,-6.0356945795837325
7.515241862458092,-1.008174366521045,-2.806828093019812,-5.961424760677567
7.505160118792881,-0.9411031918343062,-2.866442340626588,-5.895337658491752
7.495749086874539,-0.8752539475704619,-2.9253957172115057,-5.837426418262454
7.486996547398834,-0.8104732175971621,-2.98376998139413,-5.787635964326238
7.4788918152228625,-0.7465449042457443,-3.0416463410373926,-5.745887061546998
7.471426366180405,-0.6832054954906301,-3.0991052116528626,-5.7120952365602164
7.464594311225499,-0.6201552988680565,-3.156226164018465,-5.6861857312361614
7.458392758236818,-0.5570663910470779,-3.2130880213308264,-5.668105493420515
7.452822094326347,-0.4935879052321868,-3.2697690762650313,-5.657833047241873
7.447886215274025,-0.42934915838539733,-3.32634740673745,-5.655386940431824
7.443592723690171,-0.3639610147402061,-3.3829012761417685,-5.6608333435308635
7.439953113542769,-0.29701579515055443,-3.439509609577077,-5.67429327450142
7.436982955591263,-0.22808597576291204,-3.4962525423220914,-5.695949837583262
7.434702095833634,-0.15672187697853787,-3.553212040697924,-5.726055789706696
7.433134877063849,-0.08244852956859791,-3.610472598594991,-5.764941670347686
7.432310391768163,-0.004761928423562697,-3.6681220152984677,-5.8130246347511525
7.432262772483927,0.07687503735290857,-3.7262522616459792,-5.870817990039487
7.433031522857457,0.16303652701356097,-3.784960441546374,-5.938941207059127
7.434661888127592,0.25433681596547375,-3.8443498536169654,-6.018129799128009
7.437205256287247,0.35143122671448646,-3.9045311516082455,-6.109243807957633
7.440719568554392,0.4550127886218809,-3.965623589687822,-6.213272527241516
7.445269696440611,0.5658010339990099,-4.027756314960238,-6.331331212777145
7.4509277067806,0.684516927683412,-4.091069627088009,-6.464642366970193
7.457772876057435,0.8118339975671895,-4.155716050757711,-6.614488949055541
7.465891216033107,0.9482894663172736,-4.221860940248266,-6.782118380487267
7.47537411069628,1.0941295696059605,-4.289682124053139,-6.968562995849293
7.48631540639234,1.2490495442879297,-4.3593677540116325,-7.174323403625986
7.498805901835219,1.411772138450693,-4.431110988047893,-7.398837256646894
7.512923623219725,1.5793964476524518,-4.505099360614362,-7.63963683844202
7.52871758769625,1.7464652963773089,-4.581495728998782,-7.891116514889561
7.546182240660023,1.903800917601182,-4.660406894147677,-8.142962456128942
7.5652202498360355,2.037442121649893,-4.741836518708967,-8.378675362811004
7.585594671052535,2.1285483379873975,-4.825623272337077,-8.575337382865367
7.6068801544324085,2.155673922968724,-4.91137664616573,-8.706510887823969
7.628436893662096,2.1004003728914067,-4.99844175504397,-8.749602440748758
7.64944089739101,1.9547858742076074,-5.0859377794514575,-8.69560441325861
7.668988756133086,1.7257715080080103,-5.172893823584044,-8.554667347385601
7.686246471213166,1.4324238163021696,-5.2584404970579,-8.352072003847528
7.700570709376188,1.0979383829474028,-5.341961217096375,-8.117409176312389
7.711550093205662,0.7423984602034619,-5.423135308859499,-7.875105024169767
7.7189740778076965,0.3797458431652247,-5.501886359101197,-7.6407634518660394
7.722771536239349,0.018176538211499615,-5.578293993619857,-7.4220432886543755
7.722953301621463,-0.3381667072786864,-5.652514426506401,-7.221121007943215
7.719571634548677,-0.6875549702104184,-5.724725636585833,-7.036951703594827
7.712696084846573,-1.0295089835648452,-5.795095153621782,-6.866820352076927
7.702400995010924,-1.3640855605191384,-5.863763357142551,-6.707263152977916
7.6887601394057326,-1.6914785364276936,-5.93083598867233,-6.554568521513246
7.671845354041456,-2.011813485866129,-5.996381673887463,-6.405032748117528
7.651727219182795,-2.325055224927593,-6.060432001368638,-6.255084320529059
7.628476666933519,-2.630979692227497,-6.1229828445739285,-6.101343390454291
7.602166870011244,-2.9291828778580733,-6.183996278478471,-5.940652661418345
7.572875041232663,-3.219111751139106,-6.243402805092654,-5.7700982850793086
7.540683923721272,-3.5001088450841777,-6.301103787943448,-5.587029325100484
7.505682835270431,-3.7714656005487477,-6.356974081194452,-5.389078693263118
7.467968179264943,-4.032481197891606,-6.410864868127083,-5.17418524768938
7.427643367286027,-4.282524265886482,-6.4626067206039775,-4.940614911786884
7.384818124627162,-4.5210950641534335,-6.512012869721846,-4.686977679326012
7.339607173985628,-4.747885792091386,-6.558882646515106,-4.412236948206877
7.292128316064714,-4.962836769979913,-6.603005015997175,-4.1157076456580155
7.242499948364915,-5.16618647465811,-6.6441620924537546,-3.7970400052030633
7.190838083618334,-5.358513842602235,-6.682132492505785,-3.4561865834205685
7.137252945192311,-5.540771875220882,-6.71669435833999,-3.093351113187128
7.081845226440103,-5.714312340142675,-6.747627869471861,-2.708919027601454
7.024702103038676,-5.88090214330529,-6.774717059747876,-2.3033709193636698
6.965893081605623,-6.042732555840687,-6.797750768941513,-1.877181852313685
6.905465756047216,-6.202422602524537,-6.816522587464649,-1.430711499850315
6.843441530021971,-6.363017029923992,-6.830829702463152,-0.9640930593270858
6.77981135972273,-6.5279764488337815,-6.840470633056423,-0.47713392607211785
6.7145315952343925,-6.701150785956259,-6.845241972317145,0.030749452171385527
6.64752008737483,-6.886713878145277,-6.844934477795431,0.5605217118534465
6.578652948593377,-7.089010902868679,-6.839329260676896,1.113366935973786
6.50776283956469,-7.312220678118144,-6.828195591317159,1.6902299180790181
6.434640632783509,-7.559644978934396,-6.8112932921363685,2.2907905930465464
6.3590441829941655,-7.832289886464388,-6.788385386205903,2.9113988909425284
6.2807212841295215,-8.126219640055767,-6.7592713972964775,3.5412469092265733
6.199459087728964,-8.42813569069845,-6.723858928204212,4.156038463785698
6.115177730821979,-8.709473299063735,-6.682298543566355,4.709646618592388
6.0280829978313415,-8.922526277167737,-6.635202077380431,5.128866938964972
5.938857735059664,-9.008023826243885,-6.5839134079907815,5.324787175622678
5.848777496797226,-8.923332014189523,-6.5306655362345545,5.23383762375641
5.75954417665533,-8.676641711994797,-6.47832715999699,4.867473564985061
5.672777759535382,-8.326710900298302,-6.42965242434714,4.312373363773246
5.589510650532399,-7.9432606932019425,-6.386528690709407,3.6735046486487626
5.51007804360038,-7.5739000765137705,-6.3497936442229195,3.025553791959822
5.4343390428352425,-7.240011056567424,-6.319538106303321,2.4057151278807716
5.3619389322695685,-6.946396500878804,-6.295480955024513,1.8268059141581565
5.29247496726078,-6.690213819107326,-6.277212895882932,1.2899239430424019
5.225572829069707,-6.465976667107115,-6.264313656452508,0.7917281630134394
5.1609130623986355,-6.267795160256025,-6.256396374822374,0.3278149835294351
5.098235110796075,-6.090223008138836,-6.253118224987079,-0.10592898187307148
5.037332880714687,-5.928499388365117,-6.25417751480581,-0.5128869945118828
4.978047886831036,-5.778556066255691,-6.2593063847509285,-0.8956505876587653
4.920262326168479,-5.636948179351716,-6.268262890627516,-1.2561004134527023
4.863892844374962,-5.50077150316648,-6.280823894762043,-1.5955306520656931
4.808885129343297,-5.367588303888172,-6.2967792012827,-1.9147776186957883
4.755209246304415,-5.235367294984435,-6.315926977469657,-2.214338173430808
4.7028555733545705,-5.10243689653007,-6.338070359203965,-2.494473590050484
4.65183120438927,-4.967448959232826,-6.36301509510447,-2.7552983115378407
4.6021567147969416,-4.829349813807367,-6.390568078219848,-2.9968542519691814
4.5538632166588675,-4.68735586847822,-6.42053662073954,-3.21917159225207
4.506989657974085,-4.540931554747894,-6.4527283366620605,-3.422317020895102
4.461580342426606,-4.389768027925761,-6.486951506871011,-3.6064303423279758
4.417682662147349,-4.233761587499469,-6.523015810294291,-3.771750389965806
4.375345046272354,-4.072991262466747,-6.560733314193949,-3.9186312428829155
4.334615133647687,-3.9076953975589004,-6.599919626622778,-4.047549832239423
4.295538179672098,-3.7382473768407323,-6.640395124945172,-4.159106111048421
4.2581557059036905,-3.565130835666857,-6.681986186055656,-4.254017027611885
4.222504397547022,-3.388914847748369,-6.724526356331776,-4.333105575305186
4.188615249069538,-3.2102296403986896,-6.767857412084828,-4.397286182668908
4.156512952665551,-3.0297433982963478,-6.811830273911517,-4.44754765700853
4.126215518682588,-2.8481406753899967,-6.856305750481602,-4.484934805178456
4.097734111928688,-2.6661028572550585,-6.901155098533387,-4.510529733139278
4.071073083356137,-2.4842910136919705,-6.94626039586478,-4.525433679316154
4.046230173219217,-2.3033313647148455,-6.991514732657941,-4.530750074880069
4.023196859572069,-2.123803462652937,-7.036822233406742,-4.52756935623894
4.00195882494554,-1.9462310779812038,-7.082097926969131,-4.516955890262086
3.9824965141657276,-1.7710756741211264,-7.1272674858717515,-4.499937219004969
3.9647857574245164,-1.5987322721771313,-7.172266858061802,-4.477495694283367
3.948798434702745,-1.4295274435697753,-7.217041815004635,-4.450562457730895
3.934503160267047,-1.2637191278423339,-7.261547439581944,-4.420013631209849
3.9218659689886235,-1.1014979537591438,-7.305747575894043,-4.386668515840392
3.910850989451032,-0.9429897419854766,-7.349614261052447,-4.351289553893996
3.9014210920311774,-0.7882588840603961,-7.393127156591387,-4.314583783389385
3.8935385031905736,-0.6373123216108365,-7.436272994425281,-4.277205506480033
3.887165379974465,-0.4901038884915405,-7.479045049490081,-4.239759895095149
3.8822643410895497,-0.3465388239635936,-7.521442648441032,-4.202807265981662
3.878798952849914,-0.20647831513242879,-7.563470721100849,-4.166867767404063
3.8767341696985897,-0.06974398063617351,-7.60513939877489,-4.132426226386839
3.876036729892228,0.0638777348940992,-7.646463661038759,-4.099936903550089
3.876675507241169,0.19463122350551174,-7.68746303007426,-4.069827887081598
3.878621819476224,0.32278733152449346,-7.728161308945076,-4.042504822565836
3.881849692791469,0.44863874862723896,-7.768586357170734,-4.018353615020444
3.8863360802777414,0.572494887964727,-7.808769893320938,-3.997741646797965
3.8920610291573885,0.6946758593930811,-7.8487473097889175,-3.9810169232102264
3.8990077877513194,0.8155049957809012,-7.88855747902102,-3.9685043815641237
3.9071628377091283,0.9352992252630387,-7.928242522836661,-3.9604983784179537
3.916515829961759,1.0543563980244155,-7.96784750662084,-3.9572501154760364
3.927059393942003,1.172938499366546,-8.0074200077756,-3.9589485112010254
3.938788778935668,1.2912495666239627,-8.04700949288761,-3.965692850215459
3.951701274601908,1.4094071817240041,-8.086666421389765,-3.977455594244828
3.965795346419148,1.527406814453025,-8.126440977332214,-3.9940342708858614
3.9810694145636782,1.6450793176538112,-8.166381320041072,-4.014992756788145
3.9975202077402163,1.7620438767953774,-8.206531247608954,-4.039595040614807
4.01514064650817,1.8776620204133823,-8.246927198015102,-4.066739161337865
4.033917266712304,1.991002937983456,-8.287594589628482,-4.094905537363788
4.053827296092139,2.100835571459453,-8.328543645002119,-4.1221413009129435
4.074835651806734,2.2056665881956143,-8.369765058011248,-4.14610753545055
4.09689231768869,2.303841622053175,-8.411226133365753,-4.164214190972196
4.1199307339092215,2.3937158199936768,-8.452868275275476,-4.173851913557309
4.143867892109158,2.4738773352135057,-8.494606794411048,-4.172698988216364
4.168606665461294,2.5433798142768462,-8.536333784293213,-4.159043096333565
4.194040463604062,2.601921371670149,-8.577924215256548,-4.132031414439506
4.220059677320764,2.6499135239730918,-8.619244529400943,-4.091770365390219
4.246558812560495,2.6884175351963107,-8.660162233054844,-4.039243049517338
4.273442987912458,2.7189719140904383,-8.700554663550017,-3.9760763535268473
4.300632707053362,2.743368138178277,-8.740315427085285,-3.904235919970062
4.328066388435144,2.7634364962012175,-8.779357786284987,-3.8257339576714
4.355700753397157,2.7808842918852763,-8.8176151258617,-3.7424078789742117
4.383509596316009,2.7972007802596175,-8.855039204651442,-3.6557894328966265
4.411481604118605,2.8136215362376142,-8.891597098980409,-3.567054274082825
4.439617819480981,2.8311348073864813,-8.927267641721237,-3.4770280655227954
4.467929167554845,2.8505116675997972,-8.962037922376465,-3.3862242985109416
4.496434284230843,2.8723458483218733,-8.995900165361574,-3.2948946425048193
4.525157742714062,2.897094247057748,-9.028849111786622,-3.203079679286597
4.554128685184639,2.9251133819330213,-9.060879908579487,-3.11065371376003
4.583379819003969,2.9566899445675165,-9.091986445717087,-3.017361278845586
4.612946718449645,2.9920652619602874,-9.122160058505543,-2.9228452002148195
4.642867371069247,3.0314542772518687,-9.15138851050769,-2.8266671689389153
4.673181913841766,3.075059938321239,-9.179655182197079,-2.72832215576751
