th1 (rad),w1 (rad/s),th2 (rad),w2 (rad/s)
1.9633514069228404,-0.7624326425386152,0.09533444921551741,-2.4091161943075288
1.9557270804974543,-0.8866021477108779,0.07124328727244213,-2.449251424223642
1.9468610590203455,-1.0118466816082958,0.04675077303020571,-2.487396796574717
1.9367425922042625,-1.1380446543764307,0.02187680506445854,-2.523100187591231
1.9253621456604981,-1.2650511759336511,-0.0033541968114537725,-2.5558935195822885
1.9127116339011616,-1.3926981590927694,-0.02891313200727666,-2.5852936103376885
1.8987846523102339,-1.5207947390658063,-0.05476606811065354,-2.6108034606601715
1.8835767049195757,-1.6491280550761114,-0.08087410271725526,-2.631914006539446
1.8670854243688146,-1.7774644373405843,-0.10719324278264972,-2.6481063568308523
1.8493107799954087,-1.9055510391743389,-0.13367430635095823,-2.6588545301866766
1.8302552696036654,-2.0331179494096854,-0.160262851652825,-2.6636286963898965
1.8099240901095686,-2.1598808147210318,-0.18689913861672397,-2.6618989171118725
1.7883252819623583,-2.285543994809202,-0.21351812778784268,-2.653139369354804
1.7654698420142663,-2.40980426569474,-0.24004952148139072,-2.6368330212653057
1.7413717993573188,-2.5323550775236043,-0.26641785169404375,-2.6124767143451835
1.7160482485820827,-2.65289136316704,-0.2925426188374956,-2.5795865879854123
1.6895193349504123,-2.7711148823205103,-0.3183384847173497,-2.5377037613127484
1.6618081861272072,-2.8867400725840806,-0.3437155223304772,-2.4864001632028603
1.6329407854013664,-2.9995003640060895,-0.3685795239625058,-2.425284373768426
1.6029457817613055,-3.109154896820405,-0.3928323677001901,-2.3540073097683862
1.5718542327931015,-3.2154955639208525,-0.41637244079787394,-2.2722675527734113
1.539699277153893,-3.3183542807419886,-0.43909511632560805,-2.17981608376641
1.5065157343464732,-3.4176103669644076,-0.46089327716327216,-2.0764601531046503
1.4723396306768293,-3.513197908799866,-0.48165787869431864,-1.9620659831256395
1.4372076515888306,-3.6051129601658705,-0.501278538525575,-1.8365599754608228
1.4011565219871718,-3.6934204390248726,-0.5196441382801833,-1.6999280799353105
1.364222317596923,-3.7782605850669864,-0.5366434190795364,-1.5522129801463544
1.3264397117462532,-3.8598548702582276,-0.5521655488809999,-1.393508764864511
1.287841163043671,-3.9385112975795598,-0.566100636529645,-1.2239527850113867
1.2484560500678754,-4.014629087604093,-0.5783401643797589,-1.0437144414033925
1.2083097591918346,-4.0887028380767925,-0.5887773087937928,-0.8529807039929553
1.1674227308110667,-4.161326347401885,-0.5973071158337223,-0.6519382211442509
1.1258094673370478,-4.233196416240648,-0.6038264980451649,-0.44075192700608934
1.0834775031746413,-4.305117078062968,-0.6082340173152258,-0.21954008416799584
1.0404263323940117,-4.378004853911896,-0.6104294181569057,0.011654304241989683
0.9966462838548927,-4.452895771766765,-0.6103128751144857,0.25289582241224456
0.9521173261372251,-4.5309550269678835,-0.6077839168903633,0.5043929035398947
0.9068077758675462,-4.613490271163085,-0.6027399878549643,0.766538329635235
0.8606728731559153,-4.701969572452726,-0.5950746045586119,1.0399543661786248
0.8136531774313881,-4.798045025583493,-0.5846750608968256,1.325542904841027
0.7656727271755531,-4.903582675750046,-0.5714196318484154,1.6245406451502034
0.7166369004180526,-5.020698577401528,-0.5551742253969133,1.938578275615495
0.6664299146440373,-5.151798873648452,-0.5357884426407583,2.2697399951234245
0.6149119259075528,-5.299617596870847,-0.5130910426895241,2.620613898826107
0.5619157499388444,-5.467237122484995,-0.486884903701263,2.994311441461352
0.5072433787139945,-5.658058204230001,-0.4569417892866495,3.394408847068584
0.4506627966716945,-5.8756502668059305,-0.42299770081596366,3.824712323097791
0.3919062940036352,-6.123341702656775,-0.38475057758498576,4.288649282892014
0.33067287697706743,-6.403278592210947,-0.3418640847560656,4.787903618828726
0.26664009105495795,-6.7144652937959854,-0.29398504856777835,5.319612409516017
0.1994954381169981,-7.049054325684457,-0.24078892447261818,5.871099800320787
0.12900489486015354,-7.38627062978955,-0.18207792646941032,6.411299506800254
0.05514218856225804,-7.6851703366745,-0.11796493140140778,6.88059135737666
-0.021709514804486962,-7.883213176558105,-0.04915901782764118,7.188938482967303
-0.100541646570068,-7.914982635145565,0.022730367002031848,7.2425679824304545
-0.17969147292152365,-7.754579720115221,0.0951560468263364,7.004124163766833
-0.2572372701226759,-7.443296456181785,0.16519728846400472,6.532010748509575
-0.33167023468449375,-7.06090567849652,0.23051739594910048,5.939977739649102
-0.40227929146945895,-6.674891342758152,0.28991717334559153,5.325229601389226
-0.46902820489704045,-6.320884912951703,0.3431694693594838,4.740325662899216
-0.5322370540265575,-6.010525536534324,0.3905727259884759,4.203870077473265
-0.5923423093919008,-5.743519200166213,0.4326114267632086,3.7173632301676136
-0.6497775013935629,-5.515125833702322,0.4697850590648847,3.2757643316538894
-0.7049287597305861,-5.3196068533213055,0.5025427023814236,2.87241702168105
-0.7581248282637991,-5.151542273065783,0.5312668725982341,2.5009781215529934
-0.8096402509944569,-5.006219529746659,0.556276653813764,2.1560265256968107
-0.8597024462919235,-4.879663211305335,0.5778369190707321,1.8331513171680012
-0.9084990784049769,-4.768545819992456,0.5961684322424121,1.5288588921152841
-0.9561845366049014,-4.670073659756793,0.6114570211635649,1.2404338587303596
-1.0028852732024693,-4.581881377373722,0.6238613597508685,0.9658028509224683
-1.0487040869762065,-4.501944691863451,0.6335193882600932,0.7034161379710085
-1.093723533894841,-4.428511891920811,0.6405535496398034,0.45214895332222715
-1.1380086528140492,-4.360051737414641,0.6450750391730257,0.21122013140623802
-1.1816091701881957,-4.2952147606898965,0.6471872404870881,-0.019875316370841
-1.2245613177950947,-4.232805131190939,0.6469884873233797,-0.24142278354206967
-1.266889369107004,-4.171760639473355,0.644574259487959,-0.45353626828840216
-1.3086069755017375,-4.111138763115455,0.640038896805075,-0.6561999842998735
-1.3497183631328922,-4.050107135206803,0.6334768969620762,-0.8493046013729422
-1.39021943448496,-3.987937039524094,0.6249838509483467,-1.0326788862889187
-1.430098804880201,-3.9239988160331234,0.6146570620854576,-1.2061171942982405
-1.4693387930405322,-3.857758288661419,0.6025958901424752,-1.3694030567400832
-1.5079163759271463,-3.7887735333556685,0.5889018595750743,-1.5223290027813476
-1.545804111260703,-3.7166914923741596,0.5736785695472608,-1.664712722044269
-1.5829710261844447,-3.6412441105480977,0.5570314423268181,-1.7964096980334858
-1.6193834672899257,-3.562243818292631,0.5390673453464833,-1.9173224982545856
-1.6550059054728519,-3.4795783110198557,0.5198941203639375,-2.027406976222651
-1.6898016885830505,-3.3932046724794716,0.49962005060171094,-2.126675707077097
-1.7237337353078452,-3.303142959223455,0.47835329353093997,-2.2151990305219766
-1.7567651649000797,-3.209469405719635,0.4562013032257202,-2.2931041053562167
-1.7888598589572762,-3.112309427482982,0.433270262172158,-2.3605723865516812
-1.819982953232106,-3.0118305973533244,0.40966453830664123,-2.4178359200712625
-1.8501012592056392,-2.9082357530010134,0.38548617910592864,-2.465172816480868
-1.8791836167356493,-2.8017563673338186,0.36083445094111993,-2.502902217480428
-1.9072011804089875,-2.692646282712155,0.33580542876631564,-2.5313790157340024
-1.934127643236109,-2.581175878881103,0.3104916386089756,-2.5509885333123057
-1.95993940202492,-2.467626716314995,0.28498175327585257,-2.562141312113088
-1.9846156691880699,-2.3522866731151857,0.2593603401547217,-2.565268123904763
-2.0081385359192216,-2.2354455755359113,0.23370765891567408,-2.5608152698962914
-2.030492991674581,-2.117391309629785,0.20809950621671117,-2.549240210515244
-2.0516669047708787,-1.998406393800111,0.18260710411155873,-2.5310075449727636
-2.0716509687088798,-1.8787649882646424,0.1572970286618311,-2.5065853461575602
-2.0904386185915262,-1.758730316477009,0.13223117520025549,-2.476441848022376
-2.108025921756296,-1.6385524743470967,0.10746675672003173,-2.4410424783872395
-2.124411446499767,-1.5184666047221835,0.08305633193615933,-2.400847228546187
-2.139596112546989,-1.3986914163174216,0.059047859650697455,-2.356308350996608
-2.153583026710163,-1.279428027630288,0.035484776140731374,-2.3078683770565416
-2.1663773069864662,-1.1608591170743336,0.012406092370165957,-2.255958446432947
-2.1779858981572096,-1.0431483605486822,-0.010153492094163514,-2.200996940567703
-2.1884173817626964,-0.9264401369922616,-0.03216346149984054,-2.1433884106672436
-2.197681783132619,-0.8108594813227479,-0.053597345606512976,-2.0835227897458237
-2.2057903779458465,-0.6965122627459428,-0.07443257350397121,-2.021774875932644
-2.212755500573306,-0.5834855649671946,-0.09465032226329766,-1.958504071928011
-2.218590356222978,-0.4718482435464576,-0.11423536298257776,-1.8940543630827487
-2.2233088386584425,-0.3616516346747892,-0.13317590661340525,-1.8287545143433255
-2.2269253550051906,-0.25293038912216026,-0.1514634517568385,-1.7629184644395763
-2.229454658896412,-0.14570340506929275,-0.1690926364012343,-1.6968458943282585
-2.230911692947105,-0.039974833994020645,-0.18606109534451687,-1.6308229461247827
-2.231311441287045,0.06426486530283389,-0.2023693248057647,-1.5651230685861357
-2.2306687926340167,0.16703784814590816,-0.21802055549162605,-1.5000079656349075
-2.228998414152558,0.26837780292477126,-0.23302063514797514,-1.4357286253883204
-2.22631463612331,0.3683288877488912,-0.24737792140185833,-1.3725264086054867
-2.2226313472458212,0.4669447031573589,-0.26110318548791317,-1.3106341773072938
-2.2179619002142474,0.5642873173408693,-0.27420952726098613,-1.2502774464704478
-2.212319027040839,0.6604263585410529,-0.2867123017256906,-1.1916755440697175
-2.205714763455428,0.7554381876618381,-0.2986290571663878,-1.1350427672706618
-2.19816038157881,0.849405162717458,-0.30997948483909443,-1.0805895252041886
-2.1896663299516352,0.9424150055964909,-0.32078538009113633,-1.0285234614461345
-2.18024217989567,1.0345602807731105,-0.3310706147055977,-0.9790505520592442
-2.1698965770879393,1.1259379950675985,-0.34086112022619014,-0.932376177828526
-2.158637197137263,1.2166493273628731,-0.3501848820044754,-0.8887061721474884
-2.1464707038636344,1.306799497332617,-0.3590719437259503,-0.8482478489210328
-2.133402708890308,1.396497782738503,-0.36755442221516066,-0.8112110178832326
-2.119437731062923,1.4858576957194811,-0.375666532393993,-0.777808997939413
-2.1045791541057284,1.5749973297399023,-0.3834446223733871,-0.7482596425967576
-2.0888291808083292,1.6640398905070253,-0.3909272187993547,-0.722786395319564
-2.072188781903259,1.7531144262425347,-0.39815508275255035,-0.7016193968140353
-2.0546576376408336,1.84235677523755,-0.4051712767206907,-0.6849966708961726
-2.036234069888458,1.9319107516867569,-0.4120212434296524,-0.6731654208065688
-2.0169149623715903,2.0219295944432596,-0.4187528976377181,-0.6663834736801932
-1.9966956664271578,2.1125777076224765,-0.42541673237452005,-0.6649209174080901
-1.975569889350933,2.2040327269624886,-0.43206594154860095,-0.6690619813479243
-1.9535295620813082,2.296487951540229,-0.4387565613620802,-0.6791072201773768
-1.930564682565906,2.390155186798286,-0.44554763356385396,-0.6953760684217606
-1.9066631306979231,2.485268051668991,-0.45250139424807156,-0.718209841361624
-1.8818104501812332,2.5820858094513612,-0.4596834926616878,-0.7479752652545568
-1.8559895920867195,2.6808977881154803,-0.46716324531423337,-0.7850686244962422
-1.8291806142055647,2.782028459215115,-0.4750139315591958,-0.8299206127172628
-1.8013603296134135,2.8858432425920086,-0.4833131376863684,-0.883001964089604
-1.7725018971874935,2.9927550913074397,-0.49214315732726444,-0.9448299121926741
-1.7425743462744192,3.1032318786758704,-0.5015914564491912,-1.0159754629830893
-1.7115420274876605,3.217804541401941,-0.5117512110790221,-1.0970713527277058
-1.679363982073641,3.3370758032965355,-0.5227219246062992,-1.1888203526188983
-1.6459932240406756,3.4617290683240753,-0.5346101281324882,-1.2920032146054377
-1.611375933357435,3.592536654822157,-0.5475301602785426,-1.4074849198783048
-1.5754505668092134,3.7303658191777602,-0.5616050094773257,-1.5362168131812044
-1.5381469086174357,3.8761797792485613,-0.5769671776091377,-1.6792303874426757
-1.49938511082495,4.031028857190999,-0.5937594814835645,-1.8376154461609222
-1.45907482225304,4.196023384694465,-0.6121356359451737,-2.012470365602126
-1.4171145884060954,4.372274357852688,-0.632260339601195,-2.204804097261799
-1.3733918448275686,4.560778951791138,-0.654308380573813,-2.4153569518171283
-1.3277840553096572,4.762214935166975,-0.6784619500919843,-2.6442887843392286
-1.2801619059579874,4.976591114036347,-0.7049048379353766,-2.8906595913579025
-1.230395994817624,5.202685460490348,-0.7338114338489556,-3.151606444587946
-1.1783691402127205,5.437207152884722,-0.7653274982948352,-3.4211288488419758
-1.1239970686838734,5.67369012033725,-0.7995387867832549,-3.6884987009939647
-1.067260167480501,5.901349906194475,-0.8364237737931945,-3.936633265417288
-1.0082466684185563,6.104594038253137,-0.8757901064473674,-4.141424667370119
-0.9472007280360248,6.264430373984491,-0.9172043531210686,-4.273809176806213
-0.8845564242961799,6.362926363636051,-0.9599424448891307,-4.306227920167695
-0.8209271606598194,6.38998366401853,-1.0030047240908078,-4.222438323727488
-0.7570273240196341,6.348517696888589,-1.0452291073280826,-4.025099316344036
-0.6935421470507482,6.2536322392622825,-1.0854801004915229,-3.7347988025144105
-0.6310058246581254,6.126089249381234,-1.122828088516667,-3.3808591670092945
-0.569744932164313,5.985104550042235,-1.15663668018676,-2.991030449414765
-0.5098938866638907,5.844521612939418,-1.1865469846809076,-2.585886664785006
-0.4514486705344965,5.712483009031212,-1.2124058513287577,-2.1781902168025984
-0.3943238404441844,5.592774912854433,-1.2341877534967836,-1.774688790158832
-0.3383960913156401,5.486384826530583,-1.2519346413983719,-1.378276833858008
-0.28353224305033425,5.3926923934306155,-1.265717409736952,-0.9896793548940923
-0.2296053191160281,5.3102320574003565,-1.2756142032858928,-0.6085507411708448
-0.17650299854202453,5.237135016459686,-1.2816997106976014,-0.23412661394987916
-0.12413164837742766,5.171368209054694,-1.2840409768371002,0.13441300347915308
-0.07241796628688071,5.110856026502759,-1.2826968468023086,0.49775269301316494
-0.02130940602185312,5.053538615268665,-1.2777193198721768,0.8563494364649695
0.02922598013083353,4.997398322397917,-1.269155825507527,1.2103963787132432
0.07919996335481269,4.940472033487484,-1.2570518617203945,1.559818680746304
0.12860468368968753,4.880859059337536,-1.2414536749129315,1.9042885568694692
0.1774132742830629,4.816729569182724,-1.2224107893442369,2.2432526676617517
0.22558056997489012,4.746335870483182,-1.1999782626676194,2.5759682509731574
0.27304392867972194,4.66802722896057,-1.174218580157888,2.9015459442529554
0.31972420096932763,4.580267923330098,-1.1452031207153583,3.218997901585017
0.36552688020262863,4.481657578697365,-1.1130131416995082,3.5272899592133733
0.4103434559896023,4.370952390680919,-1.0777402421073745,3.8253965066768982
0.4540529798964115,4.247085579012048,-1.0394862770406055,4.112356534183711
0.496523835686532,4.109185271208536,-0.9983627116987683,4.387329152227426
0.5376156883986174,3.9565880073426696,-0.9544894201764941,4.649646783722086
0.577181568472044,3.7888461744773982,-0.9079929523392732,4.898864255164192
0.615070030216818,3.605727920419903,-0.8590043097876313,5.13480218566943
0.651127309421017,3.4072084506134583,-0.807656287930937,5.357583398390199
0.6851993939271517,3.1934520593215234,-0.754080453947035,5.5676615482317295
0.7171339145203669,2.9647847567937835,-0.6984038384647178,5.765841745843604
0.7467817620883047,2.721657890330296,-0.6407454210062817,5.9532936148950535
0.7739983409916077,2.4646036805650917,-0.5812124848573312,6.1315578822597425
0.7986443777972586,2.194184077180579,-0.5198969060347338,6.302548181515957
0.8205862185690644,1.9109347823111964,-0.4568714242195743,6.46855013277118
0.8396955663921764,1.615306754159993,-0.3921859228918625,6.632219782368471
0.8558486339337763,1.3076081480096367,-0.3258637250681778,6.796582889445474
0.8689247154138726,0.9879508111866273,-0.25789789617372305,6.965034894077111
0.8788042235257388,0.6562077605716351,-0.18824754723295195,7.1413378899963025
0.8853663011314552,0.3119927120414827,-0.11683416833298893,7.329604043030775
0.8884862282518701,-0.04531816996041327,-0.043538127902681176,7.534241817865403
0.8880330465522659,-0.4164848212700454,0.031804290275972855,7.759816961541035
0.8838681983395654,-0.8021528697171351,0.10940245989138321,8.010735675823215
0.8758466696423941,-1.2023298295541691,0.18950981664961536,8.290579865683807
0.8638233713468524,-1.6153773257739017,0.2724156153064534,8.600801940665193
0.8476695980891134,-2.0362062414679647,0.35842363471310534,8.93833653799559
0.8273075356744337,-2.453347894820287,0.44780700009306124,9.291649198821661
0.8027740567262308,-2.845005323941813,0.5407234920812778,9.63530458535864
0.7743240034868126,-3.175822568663557,0.6370765379348642,9.925350455690502
0.7425657778001771,-3.3993916860284887,0.7363300424917693,10.102321256446105
0.7085718609398922,-3.4731918160479363,0.8373532550562303,10.111026363638949
0.6738399427794128,-3.383364513684871,0.9384635186926198,9.9336491924106
0.6400062976425641,-3.157811808522594,1.0378000106167258,9.606956380292024
0.6084281795573382,-2.8500827412861844,1.133869574419646,9.200219980111882
0.5799273521444763,-2.510832710280279,1.225871774220765,8.777195948271183
0.5548190250416736,-2.1729681123060747,1.3136437337034768,8.377223687925769
0.5330893439186128,-1.8526480864758268,1.3974159705827345,8.017518250051419
0.5145628630538546,-1.55557460653921,1.4775911530832486,7.702033444434736
0.49900711698846245,-1.2822138435743264,1.554611487527596,7.428494971093393
0.4861849785527192,-1.0308383757253485,1.62889643723853,7.192347948896193
0.47587659479546573,-0.7990326096623324,1.7008199167274918,6.988616565885933
0.4678862686988424,-0.5843605192123149,1.7707060823863512,6.812663630985035
0.4620426635067193,-0.3846258717298413,1.8388327186962015,6.660436572781902
0.45819640478942086,-0.1979474678634737,1.9054370844240205,6.528494243928932
0.4562169301107861,-0.022756061571671177,1.9707220268633099,6.413950764782985
0.4559893694950694,0.14223810618259142,2.0348615345111396,6.3143959615069845
0.4574117505568953,0.29808561126093236,2.0980054941262094,6.227816681868395
0.46039260666950466,0.44563708249819034,2.160283660944893,6.1525276189858635
0.46484897749448656,0.5855781632191601,2.221808937134752,6.087113610722777
0.47070475912667814,0.7184594657441401,2.2826800732419796,6.030382749869393
0.47788935378411956,0.8447217833948695,2.3429839007406734,5.981328768446203
0.48633657161806826,0.9647171573318964,2.4027971884251356,5.939101023195053
0.4959837431913872,1.078726441609019,2.462188198657086,5.902980552399185
0.5067710076074774,1.1869739425081434,2.521218004181078,5.872360899155309
0.5186407470325588,1.289639605596892,2.579941613172631,5.846732622433762
0.5315371430885277,1.386869119692502,2.6384089393969687,5.825670615829845
0.5454058342854528,1.4787822141838693,2.6966656455552673,5.808823518111661
0.5601936564272915,1.5654793488776122,2.754753880736384,5.7959046315411795
0.5758484499160675,1.6470469336336406,2.8127129270517957,5.78668386834347
0.592318919252404,1.723561166942705,2.8705797657352305,5.780980327818238
0.609554530921831,1.7950905462515296,2.928389569013413,5.778655171043752
0.6275054363843463,1.8616970763254321,2.9861761207238504,5.779604510753356
0.6461224071476006,1.9234361836549578,3.043972165831384,5.783752073945444
0.6653567689841502,1.9803553337562105,3.101809686570838,5.791041426896883
0.6851603223217123,2.032491343712268,3.1597201008398073,5.80142757919549
0.705485235758835,2.0798663847747694,3.2177343766317623,5.814867808192383
0.7262838996065827,2.122482680581058,3.2758830547136863,5.831311571580765
