th1 (rad),w1 (rad/s),th2 (rad),w2 (rad/s),a1 (rad/s^2),a2 (rad/s^2)
6.099498942436315,1.6709224978985333,5.152423757320173,-1.8876202722184212,-3.504989346494169,13.179825805718192
6.116208167415301,1.6358726044335916,5.133547554597989,-1.7558220141612393,-3.2529672759863906,12.97485259443976
6.132566893459637,1.6033429316737278,5.115989334456376,-1.6260734882168417,-3.0184552226986687,12.78705328505846
6.148600322776374,1.573158379446741,5.099728599574208,-1.498202955366257,-2.802962086757648,12.616735943430902
6.164331906570841,1.5451287585791644,5.084746570020545,-1.3720355959319481,-2.607397856612824,12.463461192354304
6.179783194156633,1.5190547800130363,5.071026214061226,-1.247400984008405,-2.4322665834380177,12.326299804066863
6.194973741956763,1.494732114178656,5.058552204221142,-1.1241379859677365,-2.277802474136879,12.20401503334487
6.209921063098549,1.4719540894372873,5.047310824361465,-1.0020978356342878,-2.1440645797447844,12.095190818857311
6.224640603992922,1.4505134436398395,5.037289846005122,-0.8811459274457146,-2.031001605633211,11.998321477172746
6.239145738429321,1.4302034275835074,5.028478386730665,-0.7611627126739872,-1.9384953054689193,11.91187426952903
6.253447772705156,1.4108184745288181,5.020866759603925,-0.6420439699786968,-1.8663886150595892,11.834333041394812
6.267555957450444,1.3921545883782223,5.014446319904138,-0.5237006395647488,-1.8145029811345195,11.764228795597548
6.2814775033342265,1.374009558566877,5.0092093135084905,-0.4060583516087733,-1.782648101665298,11.70016135935779
6.295217598919895,1.356183077550224,5.005148729992403,-0.2890567380151954,-1.770626400917442,11.640815078838221
6.308779429695397,1.3384768135410494,5.002258162612251,-0.17264858722681317,-1.7782339221271959,11.584970593967537
6.322164197830808,1.3206944743197775,5.000531676739983,-0.05679888128713781,-1.8052588640634901,11.531514115558565
6.335371142574005,1.3026418856791426,4.999963687927111,0.05851625986844784,-1.8514786633623548,11.4794451758235
6.348397561430796,1.2841270990455191,5.000548850525796,0.17331071162668282,-1.9166562948609946,11.427883501429026
6.361238832421251,1.2649605360969092,5.0022819576420625,0.2875895466409731,-2.0005363000010847,11.37607542876871
6.37388843778222,1.2449551730968984,5.005157853108472,0.4013503009286602,-2.1028409390846505,11.323400118202443
6.386337989513189,1.2239267637060518,5.009171356117759,0.5145843021106846,-2.223266782614729,11.269375709249488
6.398577257150249,1.2016940958799045,5.0143171991388655,0.6272780592031795,-2.361481999955268,11.21366547917801
6.410594198109048,1.1780792758803518,5.0205899797308975,0.7394147139949596,-2.5171245627512473,11.156084014035903
6.422374990867851,1.1529080302528394,5.027984126870847,0.8509755541353187,-2.689801550637292,11.096603367585665
6.43390407117038,1.1260100147464664,5.0364938824122,0.9619415878111753,-2.879089723851069,11.035359165444286
6.4451641713178445,1.0972191175079558,5.046113298290312,1.0722951794656181,-3.084537508607067,10.972656605937617
6.456136362492924,1.066373742421885,5.0568362500849675,1.1820217455249944,-3.3056685243570567,10.908976313615783
6.466800099917143,1.0333170571783146,5.068656467540217,1.2911115086611522,-3.5419867657572004,10.844980014474684
6.477133270488927,0.9978971895207426,5.081567582626828,1.3995613088058991,-3.7929835350118606,10.78151602241857
6.487112242384134,0.959967354170624,5.095563195714887,1.5073764690300848,-4.058146201200926,10.719624553161415
6.49671191592584,0.9193858921586147,5.110636960405188,1.614572714561699,-4.336968841205586,10.660542913181336
6.5059057748474265,0.8760162037465588,5.126782687550805,1.7211781436935123,-4.628964790792845,10.605710645612545
6.514665936884892,0.8297265558386303,5.14399446898774,1.8272352501496378,-4.9336811028217165,10.55677474934925
6.522963202443279,0.7803897448104131,5.162266821489236,1.9328029976431302,-5.250714870232834,10.515595118107884
6.530767099891383,0.7278825961080848,5.181594851465667,2.037958948824209,-5.579731321143289,10.484250366744599
6.538045925852464,0.6720852828966519,5.20197444095391,2.142801452491655,-5.920483526735476,10.465044213819837
6.5447667786814305,0.6128804476292972,5.223402455478826,2.2474518946298536,-6.272833471411535,10.460512558942755
6.550895583157724,0.5501521129151818,5.245876974425125,2.352057020219281,-6.636774105869324,10.4734313109828
6.556397104286876,0.4837843718564886,5.269397544627317,2.456791333329109,-7.012451817069228,10.506824859139126
6.56123494800544,0.41365985368579633,5.293965457960608,2.5618595819205003,-7.400188473147881,10.563974788555605
6.565371546542298,0.33965796895431755,5.319584053779813,2.6674993298060565,-7.800501787981409,10.648427958466389
6.568768126231841,0.2616529510745035,5.346259047077874,2.7739836093907204,-8.214122125511699,10.76400228203794
6.571384655742587,0.1795117298193865,5.373998883171781,2.8816236322110997,-8.642002915573723,10.914787318734808
6.57317977304078,0.09309170066364927,5.4028151194938925,2.990771505398448,-9.085320409683009,11.105134877483417
6.574110690047417,0.0022384965668191814,5.432722834547877,3.101822854173282,-9.54545630783092,11.339631875595096
6.574133075013084,-0.09321606651149002,5.46374106308961,3.215219172929233,-10.023953445068345,11.62304316440269
6.57320091434797,-0.19345560096217346,5.495893254818902,3.33144960457326,-10.52242965536884,11.960205105820506
6.571266358338348,-0.2986798975158619,5.529207750864634,3.451051655631465,-11.042427268149385,12.35584015837269
6.568279559363189,-0.40910417019735573,5.563718267420949,3.574610057215192,-11.585164196648,12.81424685281894
6.564188517661216,-0.5249558121638357,5.599464367993101,3.7027525257433815,-12.15113552140923,13.338795848028562
6.558938959539577,-0.646467167377928,5.636491893250535,3.8361404842236673,-12.739489624740136,13.931128033323658
6.552474287865798,-0.7738620636253293,5.6748532980927715,3.9754517645569036,-13.347067809810978,14.58990120057775
6.544735667229545,-0.907332741723439,5.714607815738341,4.121350776562681,-13.966949219581073,15.308864837864247
6.53566233981231,-1.0470022339192497,5.755821323503968,4.274439424941324,-14.58628563667244,16.073959996881328
6.525192317473118,-1.192865090285974,5.798565717753381,4.435179024910138,-15.183155721390108,16.859058941504998
6.513263666570258,-1.3446966474998752,5.842917508002483,4.603769614325188,-15.722152976079153,17.61992788212304
6.499816700095259,-1.5019181772606667,5.888955204145734,4.779968893146418,-16.148537272870612,18.286139955871324
6.484797518322653,-1.663403549989373,5.9367548930771985,4.9628302927051315,-16.38121561273188,18.75124617259123
6.468163482822759,-1.8272157061166916,5.98638319600425,5.150342754431044,-16.305905880954597,18.86299125386845
6.449891325761592,-1.9902747649262376,6.037886623548561,5.338972666969728,-15.772007785185128,18.418344390485856
6.429988578112329,-2.147994842778089,6.091276350218258,5.523156110874587,-14.60010522867741,17.172828172872794
6.408508629684548,-2.293995895064863,6.146507911327004,5.694884392603315,-12.610383456589032,14.878346947493819
6.3855686707339,-2.420099729630753,6.203456755253037,5.843667862078253,-9.680985915463951,11.362129912612511
6.361367673437592,-2.5169095887853925,6.261893433873819,5.957289161204378,-5.831370246351444,6.640301611846412
6.336198577549738,-2.575223291248907,6.321466325485863,6.023692177322842,-1.295495981510851,1.0179904853886392
6.310446344637249,-2.5881782510640154,6.381703247259091,6.033872082176728,3.4774026121489725,-4.9094151974093
6.284564562126609,-2.5534042249425255,6.442041968080859,5.984777930202635,7.935873603888587,-10.410425483179031
6.259030519877183,-2.4740454889036396,6.501889747382885,5.880673675370845,11.61086421507373,-14.8683417398909
6.234290064988147,-2.3579368467529025,6.560696484136593,5.731990257971936,14.258598785231946,-17.97331377351829
6.210710696520618,-2.215350858900583,6.618016386716312,5.552257120236753,15.88108628524849,-19.74640479277005
6.188557187931612,-2.056539996048098,6.67353895791868,5.354793072309053,16.645215005685444,-20.426491231529408
6.167991787971131,-1.8900878459912436,6.727086888641771,5.150528159993759,16.777702846738983,-20.326708651367007
6.1490909095112185,-1.7223108175238537,6.7785921702417085,4.947261073480089,16.49136734843463,-19.735557512455905
6.1318678013359795,-1.5573971440395074,6.82806478097651,4.749905498355529,15.953197319328831,-18.87563669005079
6.116293829895584,-1.397865170846219,6.875563835960065,4.561149131455021,15.280570942856524,-17.900418168560293
6.102315178187122,-1.2450594614176538,6.921175327274615,4.382144949769419,14.54985556561434,-16.907239750046614
6.089864583572945,-1.0995609057615103,6.96499677677231,4.213072552268953,13.8076623573415,-15.953321205171523
6.07886897451533,-0.9614842821880953,7.007127502294999,4.053539340217237,13.080609801736488,-15.069341688019408
6.069254131693449,-0.8306781841707305,7.047662895697171,3.9028459233370434,12.38256154773654,-14.269342096148979
6.060947349851742,-0.7068525686933651,7.086691354930542,3.7601525023755538,11.719572083848336,-13.557390013014672
6.0538788241648085,-0.5896568478548817,7.1242928799542975,3.624578602245407,11.093107186365318,-12.931850332375435
6.04798225568626,-0.4787257759912285,7.160538665976752,3.4952600989216527,10.50207552141806,-12.388029568501716
6.0431949979263475,-0.3737050207770479,7.195491266965968,3.3713798032366356,9.944079736187327,-11.919767536420599
6.039457947718577,-0.27426422341517465,7.229205064998334,3.2521821278724294,9.416169678340179,-11.520368087564213
6.036715305484425,-0.18010252663177284,7.261726886277058,3.136978446996787,8.915283853118668,-11.183123720806998
6.034914280218108,-0.09094968810058617,7.293096670747026,3.025147209788717,8.438498239687014,-10.901595217429673
6.034004783337102,-0.00656470570371602,7.323348142844913,2.9161312576144205,7.983157434298142,-10.669746391506196
6.033939136280065,0.0732668686392654,7.352509455421057,2.8094337936993585,7.5469348009961985,-10.481995323375045
6.034671804966457,0.14873621664922737,7.38060379335805,2.704613840465608,7.127850482959463,-10.333219275124327
6.03615916713295,0.220014721478822,7.407649931762706,2.6012816477143645,6.724265000258905,-10.21873555076126
6.038359314347738,0.28725737148141106,7.43366274823985,2.499094292206752,6.3348592569344815,-10.134271395430044
6.041231888062552,0.3506059640507559,7.458653691161917,2.3977515782524517,5.9586075172651505,-10.075930432916511
6.04473794770306,0.4101920392234074,7.482631206944442,2.2969922739232866,5.594747289380225,-10.040159748998091
6.0488398680952935,0.46613951211720966,7.505601129683675,2.196590676433306,5.242748449802224,-10.023719691960302
6.053501263216465,0.5185669966152319,7.527567036448008,2.0963534795137027,4.902282966552613,-10.023657257846574
6.058686933182617,0.5675898262807579,7.548530571243145,1.996116906935237,4.573195989576884,-10.037283234679652
6.0643628314454245,0.6133217861765268,7.568491740312497,1.8957440745884404,4.255478725473648,-10.062152898625648
6.07049604930719,0.6558765734312633,7.587449181058382,1.795122545602184,3.94924330582047,-10.09604986355531
6.077054815041502,0.695369006489468,7.605400406514404,1.694162046966631,3.654699737244399,-10.136972608147737
6.084008505106397,0.7319160038619119,7.62234202698407,1.5927923208851535,3.372134951402405,-10.183123194829047
6.091327665145016,0.765637353375936,7.638269950192921,1.4909610889368632,3.1018939326682884,-10.232897723457004
6.0989840386787755,0.7966562927026188,7.65317956108229,1.388632111702293,2.8443628776558123,-10.284878111765538
6.106950601605802,0.825099921479177,7.667065882199313,1.2857833305846378,2.5999543261953755,-10.337824853023772
6.115201600820594,0.8510994647411307,7.679923715505159,1.1824050820544,2.3690941937768546,-10.390670462284392
6.123712595468005,0.8747904066788993,7.691747766325703,1.0784983774315562,2.15221062851892,-10.442513381848073
6.132460499534794,0.8963125129640885,7.702532750100018,0.9740732436130755,1.94972461033513,-10.49261217174075
6.1414236246644345,0.9158097590674399,7.712273482536149,0.8691471218956679,1.7620422056938214,-10.540379860797213
6.150581722255109,0.9334301811243781,7.720964953755106,0.7637433232876958,1.5895483880910295,-10.585378377805611
6.159916024066352,0.9493256650052885,7.728602386987983,0.6578895395096397,1.4326023320839338,-10.627313020003584
6.169409280716406,0.9636516883261278,7.7351812823830794,0.5516164093096039,1.2915340875002923,-10.666026948235825
6.179045797599667,0.9765670292011307,7.740697446476175,0.44495613982724563,1.166642540247505,-10.701495724666506
6.188811467891678,0.9882334546036058,7.745147007874447,0.3379411825805806,1.0581945669351895,-10.733821930551354
6.198693802437714,0.9988154002729577,7.748526419700253,0.23060296327506705,0.9664252921738195,-10.763229918689586
6.208681956440444,1.0084796531946958,7.750832449333004,0.12297066408817119,0.8915393597271216,-10.790060768228736
6.218766752972391,1.017395046791967,7.752062155973885,0.015070056405883825,0.833713131415855,-10.814767518830127
6.22894070344031,1.0257321781061255,7.752212856537944,-0.09307761878241745,0.793097730454816,-10.837910767032357
6.239198025221372,1.0336631554106737,7.751282080350119,-0.20145672645274101,0.7698228483123095,-10.860154710011592
6.249534656775478,1.0413613838937967,7.7492675130855915,-0.3100582735528569,0.7640012356367609,-10.882263720636233
6.259948270614416,1.0490013962501643,7.746166930350063,-0.41888091075921924,0.7757337975303192,-10.905099532253445
6.270438284576917,1.0567587342254674,7.741978121242471,-0.5279319060817537,0.8051152104205478,-10.929619101122434
6.281005871919172,1.0648098863296729,7.736698802181653,-0.637228097092978,0.8522399705477529,-10.9568731973661
6.291653970782469,1.0733322860351504,7.730326521210723,-0.746796829066639,0.9172087706384477,-10.988005749516473
6.302387293642821,1.082504373741535,7.722858552920057,-0.8566768865618037,1.000135078852953,-11.024253929857688
6.313212337380236,1.0925057245300644,7.7142917840544385,-0.9669194258603806,1.101151758599496,-11.066948912949671
6.324137394625536,1.1035172421160595,7.704622589795835,-1.0775889149898774,1.2204175136705264,-11.11751716085903
6.335172567046697,1.1157214172527647,7.693846700645937,-1.1887640865984677,1.3581228624039952,-11.177481975470734
6.346329781219224,1.1293026458768047,7.681959059779952,-1.300538906353175,1.5144952258784432,-11.248464895999437
6.357622807677992,1.1444475981355893,7.66895367071642,-1.4130235553131694,1.6898025424187542,-11.33218628713599
6.369067283659348,1.1613456235597768,7.654823435163289,-1.5263454181845293,1.884354571020205,-11.430464129488628
6.380680739894945,1.1801891692699789,7.639559980981444,-1.6406500594794156,2.0985006871219856,-11.545209545101006
6.392482631587645,1.2011741761411987,7.62315348038665,-1.7561021549304257,2.3326224592133706,-11.678416903853272
6.404494373349056,1.2245004007333324,7.605592458837346,-1.8728863239689584,2.5871185585138865,-11.832145371647227
6.416739377356389,1.2503715863184712,7.586863595597656,-1.9912077776854307,2.862378504142852,-12.00848735111015
6.429243093219574,1.2789953713598998,7.566951517820802,-2.111292651196532,3.158740253958361,-12.209517251287513
6.442033046933173,1.3105827738994835,7.545838591308836,-2.233387823709407,3.4764245393686806,-12.437211156820133
6.455138874672168,1.3453470192931702,7.523504713071742,-2.3577599352776084,3.815435872668105,-12.693323914175576
6.4685923448651,1.3835013780198513,7.499927113718966,-2.4846931744193643,4.17541601959231,-12.979204474961296
6.482427358645299,1.4252555382157743,7.475080181974772,-2.6144852191689774,4.555430054891085,-13.29552249766576
6.496679914027457,1.470809838764685,7.448935329783082,-2.747440444145635,4.953657510647184,-13.64186862834011
6.511388012415104,1.5203464138711569,7.421460925341626,-2.883859130429036,5.366951302143205,-14.016177105722754
6.526591476553816,1.5740159268925888,7.392622334037336,-3.0240209014862636,5.790215219434077,-14.413902472561967
6.542331635822742,1.6319180790869297,7.3623821250224735,-3.1681599262118834,6.215538067047506,-14.826863823182435
6.5586508166136115,1.6940734597574048,7.330700525760355,-3.316428564443708,6.631012774350249,-15.241655161511922
6.575591551211185,1.7603835875009073,7.297536240115917,-3.468845116058827,7.019170771334048,-15.637520959712996
6.593195387086195,1.8305752952142478,7.262847788955329,-3.625220325655957,7.354993692193225,-15.983636567055425
6.611501140038337,1.9041252321361801,7.22659558569877,-3.785056691326511,7.60355939631077,-16.235859630217256
6.630542392359699,1.9801608260992878,7.188745018785505,-3.947415287628684,7.717591765304837,-16.33330645185891
6.6503440006206915,2.057336743752336,7.149270865909218,-4.110748352147273,7.6355862879198675,-16.19565741745611
6.670917368058215,2.1336926066315347,7.108163382387745,-4.272704926321834,7.281833875255188,-15.722990369899637
6.69225429412453,2.2065109453840868,7.065436333124526,-4.429934830020831,6.570503869367524,-14.801101198437689
6.714319403578371,2.272215984077762,7.021136984824318,-4.5779458420052075,5.416585363789397,-13.316164223265574
6.737041563419149,2.326381837715656,6.975357526404267,-4.711107484237863,3.7559503553562603,-11.181867686276156
6.7603053817963055,2.3639413412692187,6.928246451561888,-4.822926161100625,1.5736127995220872,-8.377783249971543
6.783944795208997,2.37967746926444,6.880017189950882,-4.906703993600341,-1.0673736660543136,-4.988600749900175
6.8077415699016415,2.369003732603897,6.830950150014878,-4.956590001099343,-4.011478040972404,-1.2234891901004528
6.831431607227681,2.328888952194173,6.781384250003885,-4.968824893000348,-7.026859725034797,2.6065180612642074
6.854720496749622,2.258620354943825,6.731696001073882,-4.942759712387706,-9.85559665506131,6.157604069551226
6.87730670029906,2.160064388393212,6.682268403950005,-4.8811836716921935,-12.279359639258342,9.14279055379465
6.898907344182993,2.0372707920006285,6.6334565672330825,-4.789755766154247,-14.169013991865418,11.398692032511791
6.919280052102999,1.8955806520819745,6.58555900957154,-4.675768845829129,-15.496944950311647,12.900666487513135
6.938235858623819,1.740611202578858,6.538801321113248,-4.546762180953998,-16.315183226817073,13.73127610566577
6.955641970649608,1.5774593703106874,6.493333699303708,-4.40944941989734,-16.71877555164871,14.029253369661056
6.971416564352714,1.4102716147942003,6.4492392051047345,-4.269156886200729,-16.813003912292295,13.944546804853099
6.9855192805006565,1.2421415756712773,6.406547636242728,-4.1297114181521986,-16.69286833202554,13.610701284547112
6.997940696257369,1.0752128923510218,6.3652505220612055,-3.9936044053067272,-16.43439229203065,13.13362009037439
7.008692825180879,0.9108689694307153,6.3253144780081385,-3.8622682044029832,-16.093659064732126,12.59086262460899
7.017801514875186,0.749932378783394,6.286691795964109,-3.7363595781568932,-15.709571003875075,12.035885147974383
7.0253008386630205,0.5928366687446432,6.24932820018254,-3.6160007266771492,-15.30771342578792,11.503628597414599
7.031229205350467,0.4397595344867641,6.213168192915768,-3.500964440703003,-14.904011901761196,11.015689312173745
7.035626800695335,0.29071941546915214,6.178158548508738,-3.390807547581266,-14.507704322358885,10.584457357172335
7.0385339948500265,0.14564237224556328,6.144250473032925,-3.2849629740095425,-14.12356877311273,10.21617617480246
7.039990418572482,0.004406684514435988,6.11140084329283,-3.182801212261518,-13.75351471417767,9.91309592861269
7.040034485417626,-0.1331284626273407,6.079572831170215,-3.0836702529753914,-13.397684685294191,9.674938951166883
7.038703200791353,-0.26710530948028266,6.048736128640461,-2.9869208634637228,-13.055201177564319,9.499872321827837
7.036032147696551,-0.39765732125592584,6.018866920005824,-2.8919221402454443,-12.724665182286246,9.385139977883254
7.032055574483992,-0.5249039730787883,5.989947698603369,-2.7980707404666116,-12.40448473384839,9.327465593708215
7.026806534753204,-0.6489488204172722,5.961966991198703,-2.7047960845295296,-12.093088647480242,9.323304272204364
