th1 (rad),w1 (rad/s),th2 (rad),w2 (rad/s)
4.035564466503266,2.487016226626628,3.618736035719778,-1.267626445454112
4.060434628769532,2.5576737280245254,3.6060597712652367,-1.2621864635643922
4.086011366049777,2.6277414915245387,3.593437906629593,-1.2525345474459553
4.112288780965023,2.6971231875817905,3.5809125611551336,-1.2382251645908178
4.1392600128408406,2.7657699749277045,3.5685303095092253,-1.2188632936240427
4.166917712590117,2.8336794790687616,3.556341676572985,-1.1941032097951405
4.195254507380805,2.9008927251971004,3.5444006444750333,-1.1636444521829814
4.2242634346327765,2.967489450909632,3.5327641999532036,-1.1272255862170693
4.253938329141873,3.0335822881885157,3.521491944091033,-1.0846164807820675
4.284274152023758,3.099310298595302,3.5106457792832124,-1.035609828012204
4.315267255009711,3.164832285398309,3.5002896810030903,-0.9800125661355884
4.346915577863694,3.2303202116972427,3.4904895553417346,-0.9176377496037242
4.3792187799806666,3.295952944923941,3.4813131778456974,-0.8482972747934033
4.412178309429906,3.3619104420651853,3.4728302050977633,-0.7717957372781005
4.445797413850557,3.4283683977802846,3.4651122477249823,-0.6879255838508803
4.48008109782836,3.4954933049850285,3.4582329918864736,-0.5964636371425552
4.5150360308782105,3.563437825738117,3.452268355515048,-0.497169014401717
4.550670409135591,3.632336337782385,3.447296665371031,-0.3897824319728465
4.586993772513416,3.7023005057961407,3.4433988410513026,-0.27402687796421754
4.624016777571377,3.773414722922825,3.4406585722716603,-0.1496096413467653
4.6617509248006055,3.8457312745261376,3.4391624758581925,-0.01622570011726379
4.7002082375458665,3.9192650902423325,3.4390002188570197,0.1264375114266873
4.73940088844829,3.9939879710977486,3.4402645939712864,0.2786939207640454
4.779340768159267,4.069822205446096,3.443051533178927,0.4408511758154307
4.820038990213728,4.1466335212054455,3.447460044937081,0.613201500316536
4.8615053254257825,4.224223363293391,3.4535920599402465,0.7960110165129988
4.903747559058717,4.3023205354620435,3.4615521701053766,0.9895075370588556
4.946770764413337,4.3805723060477835,3.4714472454759653,1.193866878808489
4.990576487473815,4.45853514819418,3.48338591426405,1.4091978236752496
5.035161838955757,4.535665366824883,3.4974778925008025,1.635525947047003
5.080518492624006,4.6113099558182995,3.5138331519712724,1.872776652120204
5.126631592182189,4.684698126710053,3.5325609184924747,2.1207578867092947
5.17347857344929,4.754934050206615,3.5537684973595676,2.3791431729400174
5.221027913951356,4.820991447152747,3.577559929088968,2.6474557422849134
5.269237828422884,4.881710747574299,3.604034486511817,2.9250547282848416
5.318054935898626,4.935799594313561,3.6332850337946656,3.2111245139827225
5.367412931841762,4.981837489374281,3.6653962789344927,3.5046684454676376
5.417231306735505,5.018285353294524,3.700442963389169,3.804508190772956
5.46741416026845,5.043500677445979,3.7384880452968985,4.109290028556334
5.517849167042909,5.055758783650677,3.779580945582462,4.417499278702049
5.568406754879416,5.053280454175816,3.8237559383694824,4.727483924884414
5.618939559421174,5.034265850220367,3.8710307776183264,5.037488218363074
5.669282217923378,4.996934195292028,3.921405659801957,5.345696688614843
5.719251559876298,4.939568165421077,3.9748626266881057,5.6502885219569725
5.768647241530509,4.860561315778092,4.0313655119076754,5.949501715478519
5.81725285468829,4.758466212960965,4.090860529062461,6.24170579555646
5.864837516817899,4.632040283393295,4.153277587018025,6.525481252671424
5.911157919651832,4.480285801680368,4.218532399544739,6.799703256609726
5.955960777668636,4.302480017487054,4.286529432110837,7.0636267746088715
5.998985577843507,4.098191252508848,4.3571656998569255,7.316970037361722
6.039967490368595,3.867276976739396,4.430335400230542,7.559993508263338
6.078640260135989,3.6098604475699045,4.5059353353131755,7.7935722143509985
6.114738864611688,3.3262834632277753,4.583871057456686,8.019260542880058
6.148001699243966,3.0170340801834983,4.664063662885487,8.239350350842884
6.1781720400458005,2.682649675856229,4.746457166393915,8.456925292921406
6.2049985368043625,2.3235974555944723,4.831026419323129,8.67591626221479
6.2282345113603075,1.9401365788688374,4.917785581945276,8.901164043098323
6.247635877148996,1.5321692370369717,5.006797222376259,9.138494337049409
6.262957569519366,1.0990941831153331,5.098182165746754,9.394804469757114
6.273948511350519,0.6396898902716827,5.192130210444325,9.678144349795545
6.280345410253236,0.15208567313501675,5.2889116539422805,9.997733424812184
6.281866266984586,-0.366050718167064,5.388888988190402,10.36376140225513
6.2782057598029155,-0.9168266240939609,5.492526602212953,10.786611657997605
6.269037493561976,-1.5003353212436172,5.600392718792929,11.274704105166698
6.25403414034954,-2.1105590348461636,5.713139759844596,11.829312568104918
6.232928550001078,-2.726944181613037,5.831432885525645,12.433531653447352
6.205659108184947,-3.2998700779014722,5.955768202060119,13.032738692875306
6.172660407405933,-3.7347652061744503,6.086095588988872,13.51257102511215
6.135312755344188,-3.900897981553555,6.221221299239994,13.709331118124892
6.096303775528653,-3.7052357553624895,6.3583146104212425,13.507402423024846
6.059251417975028,-3.189389944548192,6.493388634651491,12.966245410467502
6.027357518529546,-2.5027981474749956,6.623051088756166,12.28011078013442
6.002329537054796,-1.778854365120643,6.74585219655751,11.613043837132373
5.98454099340359,-1.0826708079554543,6.861982634928833,11.03543121381886
5.973714285324035,-0.4327812925289092,6.972336947067022,10.557450252741582
5.969386472398746,0.1714759438479988,7.0779114495944375,10.166377478869098
5.971101231837226,0.7360653925266211,7.179575224383129,9.844377615156704
5.978461885762492,1.2670745495898312,7.278019000534695,9.574551357333474
5.991132631258391,1.7691839525137065,7.37376451410803,9.342366106845631
6.008824470783527,2.2454330104868365,7.467188175176487,9.135617514821075
6.031278800888396,2.6973937459440256,7.558544350324698,8.94404793424439
6.058252738347837,3.125448275899565,7.647984829667141,8.75897572621831
6.089507221106833,3.52907529746912,7.735574586929324,8.573023455938806
6.124797974081524,3.907120773769349,7.821304821488712,8.379947582155545
6.1638691818192175,4.258048314522659,7.905104297310268,8.174547786790011
6.2064496649644445,4.580168215503388,7.986849775178168,7.9526294677444955
6.252251347119478,4.871842731979097,8.066376069855613,7.710994589624079
6.300969774439269,5.131663328405081,8.143486015751854,7.447439877037061
6.35228640772332,5.358594919965057,8.217960414522224,7.160746021626681
6.405872356922971,5.552082834676012,8.289567874738491,6.850646680278566
6.461393185269731,5.7121201194984375,8.358074341541277,6.517771153391815
6.518514386464716,5.839275353845251,8.423252053075196,6.163559292072544
6.5769071400031685,5.93468372807001,8.48488764599592,5.790150989436109
6.636253977283869,6.00000631608977,8.542789155890281,5.400255331805158
6.696254040444766,6.037363951735188,8.596791709208333,4.997006105351295
6.7566276799621185,6.049252854890414,8.646761770261845,4.583811033275298
6.817120208511023,6.038449246988227,8.692599880594598,4.164202096716714
6.877504700980905,6.007909810422283,8.734241901561765,3.7416937864421462
6.937583799085128,5.960674134887882,8.771658839426186,3.3196552810497844
6.997190540434007,5.8997743591364635,8.804855392236684,2.9012014138101234
7.056188284025371,5.82815611947227,8.833867406374786,2.4891059055397826
7.114469845220094,5.748613702004715,8.858758465430183,2.085738758463261
7.17195598224014,5.66374102287883,8.879615853014815,1.693028033604431
7.2285933924689285,5.575898812556753,8.89654613335086,1.3124446302241761
7.284352380594496,5.48719725490917,8.909670579653103,0.9450073253155711
7.339224353143587,5.399492420179622,8.919120652906258,0.5913043611900191
7.393219277345383,5.314394192726136,8.925033696518158,0.2515273733325046
7.446363219272644,5.233283044433815,8.927548970251483,-0.07448656366884338
7.498696049716982,5.157332910547426,8.926804104614794,-0.3872085849219413
7.550269378822456,5.087537516206092,8.922932018765575,-0.6873704533816541
7.601144753984517,5.02473768477458,8.916058314231758,-0.9759178534307594
7.651392130832263,4.96964732673355,8.90629913569745,-1.2539655380345778
7.701088604099598,4.92287584829023,8.893759480317105,-1.5227540403845863
7.750317362582501,4.884944513112616,8.878531939913259,-1.7836062081843982
7.799166807713627,4.8562937061681195,8.860695877831414,-2.037880059453094
7.847729744775308,4.837276932609357,8.840317077236884,-2.2869121982717706
7.896102514101401,4.828135570780724,8.817447955254167,-2.5319430234730333
7.944383869809209,4.828945760575908,8.792128525019436,-2.77401100881652
7.992673327414968,4.839525430510435,8.76438841493127,-3.0137985153116102
8.041068581720072,4.859286071015685,8.734250429778154,-3.25140689839622
8.089661442430229,4.887012731046098,8.701736360794191,-3.486037274486633
8.13853156974069,4.920562364184504,8.666875988049325,-3.7155629284045215
8.187737193382535,4.956495980501936,8.62972035876528,-3.9360152372953614
8.237302153187555,4.98972056051472,8.590360206392326,-4.141090203272337
8.287199358792702,5.0133247734677795,8.548949304359603,-4.321934397417879
8.33733260652738,5.01892289369829,8.505729960385423,-4.467651217768279
8.387521835464362,4.997852858080219,8.46105344820774,-4.5670100281982275
8.437500364045164,4.943285154231507,8.415383347925758,-4.611429902602336
8.486933215587479,4.852593832994405,8.369269048899735,-4.59831462469904
8.535459153917422,4.728680531977585,8.323285902652744,-4.532889648932723
8.582745959237197,4.579229810505201,8.277957006163417,-4.42710715431917
8.62853825734225,4.414236187429807,8.233685934620226,-4.29611388832724
8.672680619216548,4.24327733176424,8.190724795736953,-4.154374451160468
8.71511339253419,4.073799101826444,8.149181051225348,-4.013239982214165
8.755851383552455,3.9106617016401195,8.109048651403207,-3.880311024478834
8.794958000568856,3.7564929272764687,8.070245541158418,-3.7599483371969327
8.832522929841621,3.612316309862159,8.032646057786447,-3.6541756665175713
8.868646092940242,3.478138800683039,7.996104301121272,-3.563526097363549
8.903427480947073,3.353389019917001,7.960469040147636,-3.4876763797636725
8.936961371146243,3.2372058878968866,7.92559227635,-3.425868236874634
8.96933343002521,3.128613340723213,7.891333593981253,-3.3771669282593377
9.000619563432442,3.026618660236381,7.857561924698659,-3.3406102249524556
9.030885750034805,2.9302632369001187,7.824155822449135,-3.3152887659530657
9.060188382403807,2.8386451941018245,7.791002934789604,-3.3003855181710007
9.088574834344826,2.750926092555727,7.7579990796078935,-3.295191843757497
9.116084095270383,2.6663290781703606,7.725047161170319,-3.2991107650529576
9.142747386052086,2.584132779920343,7.6920560535197895,-3.311653635989246
9.168588713851289,2.50366341634366,7.658939517159897,-3.3324337510436903
9.193625348014725,2.4242864852999357,7.6256151796494605,-3.361158819355655
9.217868212867725,2.345398795365628,7.592003591455904,-3.397623280251043
9.241322200821381,2.266421263564522,7.558027358653393,-3.4417008700729896
9.263986413457026,2.1867927416799446,7.523610349952663,-3.4933375045262287
9.285854340873826,2.1059650772424536,7.488676974907401,-3.5525443154943646
9.30691399164625,2.0233996289514082,7.453151531752457,-3.619390514998697
9.327147987935763,1.9385655204581633,7.41695762660247,-3.693995613097689
9.346533643140345,1.8509400219423697,7.380017670471494,-3.776520366152766
9.36504304335977,1.7600115921035464,7.342252466809966,-3.867155660628146
9.382643159280805,1.6652862923930116,7.303580910203684,-3.9661083355854196
9.399296022204735,1.566298497290383,7.26391982684783,-4.0735827114592675
9.41495900717764,1.4626270599133882,7.223183999733237,-4.189756330974614
9.429585277776773,1.3539183295540602,7.181286436423491,-4.314748154232006
9.443124461072314,1.239917613514756,7.138138954881171,-4.4485772351223565
9.455523637207461,1.1205107520889757,7.093653182529947,-4.591109833471951
9.466728744728352,0.9957773044885387,7.047742084195228,-4.7419931410063505
9.476686517773237,0.866056230047206,7.000322152785165,-4.9005745545919845
9.485347080073709,0.732023623038786,6.951316407239245,-5.065807043694858
9.492667316304097,0.5947796921354297,6.900658336802297,-5.236144028158815
9.498615113225451,0.4559384504624713,6.848296896520709,-5.409431689218905
9.503174497730075,0.31770836176442946,6.79420257962852,-5.582812944047164
9.506351581347719,0.18294581114314498,6.738374450188048,-5.752665002275583
9.508181039459151,0.05515696404124637,6.680847800165292,-5.914599984821211
9.508732609099564,-0.061580154143763596,6.62170180031708,-6.063562465164834
9.508116807558126,-0.16279892557712045,6.561066175665432,-6.194054421302504
9.506488818302355,-0.2439453485619465,6.499125631452407,-6.300502093126872
9.504049364816735,-0.30078443682866407,6.436120610521138,-6.377748328630167
9.501041520448448,-0.32986460217388125,6.372343127234837,-6.421612348466434
9.49774287442671,-0.3289597936003939,6.308127003750172,-6.429419480277579
9.494453276490706,-0.2973932672225649,6.2438328089473965,-6.400385327708368
9.49147934381848,-0.23616121308294089,6.179828955670313,-6.33575753464139
9.48911773168765,-0.14781995427383726,6.116471380323899,-6.238674088702835
9.487639532144911,-0.03616166754487503,6.054084639436871,-6.113770700643911
9.487277915469463,0.09424422560576177,5.992946932430432,-5.96663125359942
9.48822035772552,0.238543707615695,5.933280619894438,-5.803201240154089
9.490605794801677,0.39203497080839705,5.875248607492897,-5.629270135423991
9.494526144509761,0.5504925786627898,5.818955906138657,-5.450088527605877
9.500031070296389,0.7103607603710131,5.764455020862599,-5.27014012900225
9.5071346779001,0.8688280350370204,5.711753619572576,-5.093053381172222
9.51582295825047,1.023811965235172,5.660823085760854,-4.921618446422042
9.52606107790282,1.1738868489010887,5.611606901296634,-4.757871152848487
9.537799946391832,1.3181830677507835,5.564028189768149,-4.603210510119803
9.55098177706934,1.4562792574720607,5.517996084666951,-4.458525316348141
9.56554456964406,1.588100695183758,5.473410831503469,-4.324314414358387
9.581425576595898,1.7138309558429246,5.430167687359885,-4.200792486486054
9.598563886154327,1.8338394373747446,5.388159762495025,-4.087978406551677
9.616902280528075,1.9486246172712713,5.347279978429508,-3.9857663239064287
9.636388526700788,2.0587714628024485,5.307422315190444,-3.893981328281635
9.656976241328813,2.1649208407868805,5.268482501907628,-3.8124222333609157
9.678625449736682,2.2677487117820743,5.230358279574019,-3.7408941204171358
9.701302936854503,2.367953101357987,5.192949338369847,-3.679233080298951
9.724982467868083,2.4662471608579537,5.156157007566858,-3.627325258837097
9.749644939476662,2.563356970172578,5.119883754978487,-3.585121947616278
9.775278509178387,2.6600230466559696,5.084032535502324,-3.5526521178149295
9.801878739644946,2.757004783151639,5.0485060143241745,-3.53003348489627
9.829448787476462,2.855087231286685,5.013205679475211,-3.517482909527704
9.857999659789328,2.9550897621762595,4.978030850379934,-3.515326660825662
9.88755055741109,3.0578761563914068,4.942877583771677,-3.524010748570673
9.918129318975005,3.1643655620082085,4.907637476285971,-3.5441111012905044
9.949772974595087,3.275543446098416,4.872196365273066,-3.576342713658319
9.982528409056071,3.3924710309328785,4.836432938136483,-3.6215658239578756
10.0164531193654,3.5162905451189985,4.800217279896904,-3.680785405726948
10.051616024816589,3.6482215886153804,4.763409425839634,-3.7551372715782523
10.088098240702744,3.7895404601051514,4.725858053123852,-3.845849108405494
10.125993645303796,3.9415286032689347,4.687399562039797,-3.9541566260759584
10.165408931336485,4.105367316662036,4.647857995779037,-4.081142184446017
10.206462604503105,4.281942571892134,4.607046573934577,-4.227444409040861
10.249282030222027,4.471506755165209,4.564772129844168,-4.392763228859581
10.293997097773678,4.673129506375371,4.520844497555572,-4.575064162765115
10.340728392837432,4.88387847858288,4.475093855927921,-4.76939815216321
10.389567177623261,5.097753768363646,4.427399874406289,-4.966370947271125
10.440544715306897,5.304645345479827,4.3777361649335775,-5.150644046869742
10.493591168761695,5.490054273617486,4.32622972446488,-5.300517161897918
10.548491711497869,5.6368058996447905,4.2732245528459005,-5.390334136343231
10.604859770494317,5.7296543727504865,4.219321211482468,-5.396995041265677
10.662156314221821,5.761547104357886,4.165351261069811,-5.308851289342259
10.7197717852654,5.737513300638864,4.112262748176389,-5.131291115084974
10.77714691827179,5.672689845361477,4.060949837025539,-4.884068776651127
10.833873816725404,5.585914772404443,4.012109149259027,-4.59234483582907
10.889732964449449,5.49372412897128,3.9661857009007364,-4.278225367351647
10.944670205739161,5.407681644483319,3.92340344722722,-3.9569438483286357
10.998747022183995,5.334546539299151,3.883834008743934,-3.637026453558385
11.052092487576987,5.277592667734173,3.84746374420835,-3.3220925994196366
11.104868414254328,5.237946744877855,3.8142428182141535,-3.012705419138113
11.157247881703107,5.215559707011383,3.7841157640227725,-2.7077269253084886
11.20940347877322,5.209808473133053,3.7570384947696875,-2.405169375281502
11.26150156350455,5.219832466274541,3.7329868010168723,-2.1026860713230313
11.313699888167296,5.24470428613173,3.711959940303642,-1.7978395699337237
11.366146931028613,5.283503531939571,3.6939815446043047,-1.4882438931829405
11.418981966348008,5.335335983230991,3.679099105672475,-1.1716404782064314
11.472335326180318,5.39932235773009,3.667382700890411,-0.845942645181871
11.526328549757618,5.47457008351695,3.6589232744385924,-0.5092681351970691
11.581074250592788,5.560135484957167,3.6538305930866217,-0.15997033742704903
11.63667560544236,5.654980620920433,3.652230889712351,0.20332643399443723
11.693225411651564,5.757927542045314,3.6542641540522958,0.5816855084538439
11.750804687072018,5.867612239648918,3.6600810091368343,0.9758103904398974
11.809480809468507,5.982440610742583,3.6698391130412333,1.3859930786650283
11.869305215575933,6.10054907642897,3.683699043827884,1.81206141292895
11.930310706340222,6.2197728486880015,3.701819657957173,2.253329846769053
11.992508434827103,6.337625061225234,3.724352956424864,2.708558852557231
12.055884685439356,6.451289912910621,3.751438544950436,3.175928470863341
12.120397584568462,6.557632518149573,3.7831978296590694,3.6530311692464554
12.185973909749958,6.653227300987257,3.819728141351534,4.136888110635517
12.25250618275983,6.7344056008706055,3.8610970224578893,4.623991231273805
12.319850238768536,6.797321877485768,3.9073369347706275,5.1103714585318745
12.387823457543394,6.838036774786359,3.9584406493559463,5.591691378412082
12.456203825291258,6.852614574197042,4.014357563140067,6.063359158775651
12.524729971033228,6.837232347897056,4.074991154727824,6.520659902755613
12.593102294512198,6.7882983069914635,4.1401977537553805,6.958900924776927
12.660985277582112,6.702577069969079,4.20978676300315,7.373568407171428
12.728011048281802,6.577319324604901,4.283522447074864,7.760493854693361
12.79378424152785,6.410392099163173,4.361127385621797,8.116028893239633
12.857888162519483,6.20040333013944,4.442287674554193,8.437225571014503
12.919892195820877,5.946810842827589,4.526659930264338,8.72201621437797
12.979360304249152,5.650002096888798,4.613880092408118,8.969382614445028
13.03586032521804,5.311328467272695,4.703573918552568,9.179500208906486
13.088973609890768,4.933077963395297,4.795368920641633,9.353840812536145
13.138304389524722,4.518374231470593,4.888907328766995,9.495219075410201
13.183488131839427,4.0709974746356234,4.983859519521097,9.607774101783018
13.224198106585783,3.5951332038087536,5.0799372605389275,9.696888025745094
13.26014943862387,3.0950649476544783,5.176906140796379,9.769055827209717
13.291100088100414,2.5748342495114875,5.274596699068476,9.831732426224942
