th1 (rad),w1 (rad/s),th2 (rad),w2 (rad/s),a1 (rad/s^2),a2 (rad/s^2)
3.623343493835605,2.933990387650975,1.2626267531702235,-0.937202925451598,4.1017068204601195,-0.3654964624714826
3.652683397712115,2.975007455855576,1.2532547239157075,-0.9408578900763128,4.486376631197402,-0.021534530362067004
3.6824334722706706,3.0198712221675503,1.2438461450149443,-0.9410732353799335,4.891667161864125,0.3469666716715925
3.712632184492346,3.0687878937861917,1.234435412661145,-0.9376035686632176,5.31687508635176,0.7376019798745483
3.743320063430208,3.121956644649709,1.2250593769745128,-0.9302275488644721,5.760320599897784,1.1464530322195459
3.774539629876705,3.179559850648687,1.2157571014858681,-0.9187630185422767,6.219077166289225,1.5676704139061959
3.8063352283831917,3.2417506223115793,1.2065694713004453,-0.9030863144032147,6.688675022724663,1.9930137613842522
3.8387527346063077,3.308637372538826,1.1975386081564132,-0.8831561767893722,7.162796593945897,2.4113767956917536
3.871839108331696,3.380265338478285,1.1887070463885194,-0.8590424088324546,7.63299388221088,2.80834255211367
3.905641761716479,3.456595277300394,1.1801166223001949,-0.8309589833113179,8.088472104069396,3.1658361425569943
3.9402077144894827,3.537479998341088,1.1718070324670817,-0.7993006218857479,8.515998678644223,3.4619658157435964
3.975582514472894,3.62263998512753,1.1638140262482242,-0.764680963728312,8.900009006743653,3.6711631651910848
4.0118089143241695,3.7116400751949667,1.1561672166109411,-0.7279693320764011,9.22298560293307,3.7647428169437287
4.0489253150761195,3.8038699312242974,1.1488875232901772,-0.6903219039069638,9.466179208227182,3.7119915652869633
4.0869640143883625,3.898531723306569,1.1419843042511075,-0.6532019882540941,9.610713851151914,3.4818573861473943
4.125949331621428,3.994638861818088,1.1354522843685666,-0.6183834143926202,9.639069179375158,3.0452340313536426
4.165895720239609,4.09102955361184,1.1292684502246404,-0.5879310740790838,9.536864622291734,2.377728655837045
4.206806015775728,4.186398199834757,1.1233891394838496,-0.5641537875207134,9.29479022039369,1.4626712744929935
4.248669997774075,4.279346102038694,1.1177476016086425,-0.5495270747757836,8.910454847038952,0.29400129217280485
4.291463458794462,4.368450650509084,1.1122523308608847,-0.5465870618540555,8.389875065831943,-1.1214181101449956
4.335147965299553,4.452349401167403,1.106786460242344,-0.5578012429555055,7.748326514960475,-2.7625187989499067
4.379671459311227,4.529832666317008,1.101208447812789,-0.5854264309450046,7.0103354760397645,-4.594158530584901
4.4249697859743975,4.599936021077405,1.095354183503339,-0.6313680162508536,6.208698542969721,-6.568866452313891
4.470969146185172,4.662023006507102,1.0890405033408304,-0.6970566807739925,5.382565982121867,-8.630161237201465
4.517589376250243,4.715848666328321,1.0820699365330904,-0.7833582931460071,4.574781663899995,-10.717133089052266
4.564747862913526,4.76159648296732,1.0742363536016304,-0.8905296240365298,3.828807322378742,-12.769749061953075
4.6123638277431995,4.799884556191108,1.065331057361265,-1.0182271146560606,3.185642179084119,-14.734198495838884
4.6603626733051104,4.831740977981949,1.0551487862147044,-1.1655690996144494,2.681160671906444,-16.567579703546514
4.70868008308493,4.858552584701013,1.04349309521856,-1.3312448966499146,2.344225696610728,-18.2413505344713
4.757265608931941,4.881994841667121,1.0301806462520608,-1.5136584019946278,2.195804748595482,-19.74320073348247
4.806085557348612,4.903952889153075,1.0150440622321146,-1.7110904093294526,2.2491509641188228,-21.07729956440604
4.855125086240143,4.926444398794263,0.9979331581388201,-1.921863404973513,2.510949775806588,-22.263158573151873
4.9043895302280855,4.951553896552329,0.978714524089085,-2.1444949907050317,2.983212647833735,-23.333563163538525
4.953905069193609,4.981386023030666,0.9572695741820346,-2.377830622340417,3.6656465698159875,-24.332130771300083
5.003718929423916,5.018042488728826,0.9334912679586305,-2.6211519300534176,4.5582460271693375,-25.31104695605769
5.053899354311204,5.063624949000519,0.9072797486580962,-2.8742623996139947,5.663929060454333,-26.329444302481868
5.104535603801209,5.120264239605063,0.8785371246619563,-3.1375568426388134,6.9911467820014295,-27.452769411851136
5.15573824619726,5.190175707425077,0.8471615562355682,-3.412084536757325,8.55651225118133,-28.75337564028201
5.207640003271511,5.27574082993689,0.813040710867995,-3.699618293160145,10.387602242845892,-30.312513812656743
5.26039741157088,5.3796168523653485,0.7760445279363936,-4.002743431286713,12.526172669923751,-32.22387752639876
5.314193580094534,5.504878579064586,0.7360170936235264,-4.3249822065507,15.032080425899654,-34.59887087406625
5.36924236588518,5.655199383323583,0.6927672715580194,-4.670970915291363,17.988177999925306,-37.57372702610273
5.425794359718416,5.835081163322836,0.6460575624051058,-5.04670818555239,21.506209543436505,-41.31830968243957
5.484145171351644,6.050143258757201,0.595590480549582,-5.459891282376786,25.732908244784998,-46.04532817280372
5.544646603939216,6.307472341205051,0.5409915677258141,-5.920344564104823,30.85302925967125,-52.01532012412516
5.607721327351267,6.616002633801763,0.4817881220847659,-6.440497765346075,37.07911842764296,-59.523141479391064
5.673881353689285,6.986793818078192,0.41738314443130514,-7.0357291801399855,44.59889212702042,-68.82532458021232
5.743749291870067,7.432782739348396,0.34702585262990526,-7.723982425942109,53.40130250931489,-79.89804458611736
5.818077119263551,7.966795764441545,0.26978602837048415,-8.522962871803282,62.7824532460883,-91.74743002023382
5.897745076907966,8.594620296902429,0.18455639965245135,-9.44043717200562,70.11690747015682,-100.6910827619032
5.98369127987699,9.295789371603997,0.09015202793239516,-10.447347999624652,68.53449365906258,-97.10412304982944
6.07664917359303,9.981134308194623,-0.014321452063851367,-11.418389230122946,45.79795863416869,-63.84549223589173
6.176460516674976,10.439113894536309,-0.12850534436508082,-12.056844152481863,-4.704244383118235,8.332368105845442
6.2808516556203395,10.392071450705126,-0.24907378588989945,-11.97352047142341,-59.350703216907135,86.3461383386568
6.384772370127391,9.798564418536055,-0.3688089906041335,-11.110059088036842,-82.85186748752426,120.90253362751477
6.4827580143127514,8.970045743660812,-0.4799095814845019,-9.901033751761695,-77.6689449047351,115.50454965331087
6.57245847174936,8.19335629461346,-0.5789199190021188,-8.745988255228585,-63.53464333702473,97.6502130610564
6.654392034695494,7.558009861243213,-0.6663798015544047,-7.769486124618021,-50.05600098009413,80.69491340279197
6.7299721333079265,7.057449851442271,-0.7440746628005849,-6.962536990590102,-39.251531531123874,67.45003508182108
6.800546631822349,6.664934536131033,-0.8137000327064858,-6.2880366397718905,-30.8907371105364,57.60876726488061
6.867195977183659,6.356027165025669,-0.8765803991042047,-5.711948967123084,-24.38748216485366,50.368038468508466
6.930756248833916,6.112152343377132,-0.9336998887754355,-5.2082685824379995,-19.238304059383417,45.03234730297496
6.991877772267687,5.919769302783298,-0.9857825745998156,-4.75794510940825,-15.076524901476803,41.08639758930343
7.051075465295519,5.76900405376853,-1.033362025693898,-4.347081133515216,-11.647819705849514,38.159360208432616
7.108765505833205,5.652525856710035,-1.07683283702905,-3.96548753143089,-8.779486772441773,35.98042497997194
7.165290764400305,5.564730988985618,-1.116487712343359,-3.6056832816311704,-6.356877324852225,34.344289097626444
7.220938074290162,5.501162215737096,-1.1525445451596708,-3.262240390654906,-4.307140476279045,33.08710312988473
7.275949696447533,5.458090810974305,-1.1851669490662198,-2.931369359356059,-2.5881458202756096,32.07045326806998
7.330530604557277,5.432209352771549,-1.2144806426597803,-2.610664826675359,-1.1805598564139113,31.17130712690713
7.384852698084992,5.42040375420741,-1.2405872909265339,-2.298951755406288,-0.08153894409387692,30.276626546371396
7.439056735627066,5.419588364766471,-1.2635768084805967,-1.996185489942574,0.7010372237620972,29.281910836843853
7.49325261927473,5.426598737004093,-1.2835386633800225,-1.7033663815741353,1.154441134124453,28.09315517632764
7.547518606644771,5.438143148345337,-1.3005723271957639,-1.422434829810859,1.267289456609448,26.631594001091496
7.601900038128225,5.450816042911431,-1.3147966754938725,-1.156118889799944,1.0357906647580901,24.84022004679963
7.656408198557339,5.461173949559012,-1.3263578643918719,-0.9077166893319476,0.4693555026407396,22.690586766187643
7.71101993805293,5.46586750458542,-1.3354350312851913,-0.6808108216700712,-0.4053895803075842,20.188061024010736
7.765678613098784,5.461813608782344,-1.342243139501892,-0.47893021142996384,-1.5431108398952136,17.373753179095385
7.820296749186607,5.4463825003833914,-1.3470324416161916,-0.30519267963901,-2.8813281112144056,14.321953327769002
7.874760574190441,5.417569219271248,-1.3500843684125816,-0.16197314636131996,-4.344898851525446,11.13295127913336
7.928936266383154,5.374120230755993,-1.3517040998761949,-0.05064363356998636,-5.852602919724436,7.922282899056877
7.982677468690714,5.315594201558749,-1.3522105362118948,0.028579195420582418,-7.324544314769303,4.808307918350168
8.035833410706301,5.242348758411056,-1.351924744257689,0.07666227460408409,-8.689015364294454,1.9002942601319874
8.088256898290412,5.1554586047681115,-1.3511581215116482,0.09566521720540397,-9.887767031772869,-0.7111606176035524
8.139811484338093,5.056580934450383,-1.350201469339594,0.08855361102936844,-10.879130902861224,-2.9602807860527856
8.190377293682596,4.947789625421771,-1.3493159332293003,0.05895080316884059,-11.638943789910396,-4.808570376831692
8.239855189936813,4.831400187522666,-1.3487264251976119,0.010865099400523673,-12.1595967627047,-6.2439816247817195
8.28816919181204,4.709804219895619,-1.3486177742036067,-0.05157471684729353,-12.447724216297116,-7.2775950084597625
8.335267234010995,4.585326977732648,-1.3491335213720796,-0.12435066693189115,-12.521093066578787,-7.93875796988561
8.381120503788322,4.46011604706686,-1.3503770280413985,-0.20373824663074724,-12.405200618923528,-8.269583922207095
8.42572166425899,4.336064040877624,-1.352414410507706,-0.2864340858528182,-12.129989111379096,-8.319555554029971
8.469082304667767,4.214764149763833,-1.3552787513662343,-0.36962964139311794,-11.726966157081847,-8.14076650022303
8.511229946165406,4.097494488193014,-1.3589750477801654,-0.4510373063953482,-11.226901538736572,-7.784116629239418
8.552204891047335,3.9852254728056486,-1.363485420844119,-0.5288784726877425,-10.658164055024557,-7.296578827944971
8.592057145775392,3.878643832255403,-1.3687742055709964,-0.6018442609671921,-10.045676223054029,-6.719499203802528
8.630843584097946,3.7781870700248628,-1.3747926481806683,-0.6690392530052174,-9.41040505007487,-6.087787844268892
8.668625454798194,3.684083019524114,-1.3814830407107204,-0.7299171314479063,-8.769274827851575,-5.429803452743601
8.705466284993435,3.5963902712455984,-1.3887822120251994,-0.7842151659753422,-8.135379616402643,-4.767724062876744
8.741430187705891,3.515036475081572,-1.3966243636849527,-0.8318924066041097,-7.5183824376926705,-4.118214880974543
8.776580552456707,3.4398526507046454,-1.4049432877509938,-0.8730745554138551,-6.925007915067734,-3.493239718025084
8.810979078963754,3.370602571553968,-1.4136740333051323,-0.908006952594106,-6.359558693219115,-2.9009032143623212
8.844685104679295,3.307006984621777,-1.4227541028310733,-0.9370159847377293,-5.824408760596313,-2.346249399769354
8.877755174525513,3.2487628970158138,-1.4321242626784505,-0.9604784787354228,-5.320446056834487,-1.831973872501536
8.91024280349567,3.195558436447469,-1.4417290474658047,-0.9787982174604382,-4.847451427511651,-1.3590306171751705
8.942198387860145,3.1470839221723526,-1.451517029640409,-0.9923885236321899,-4.404411161403533,-0.9271306117758793
8.973669227081869,3.1030398105583172,-1.461440914876731,-1.0016598297499486,-3.989766696376463,-0.5351392102917395
9.004699625187452,3.0631421435945527,-1.4714575131742305,-1.007011221852866,-3.6016085134054547,-0.18138441677979394
9.035331046623398,3.027126058460498,-1.4815276253927592,-1.008825066020664,-3.237822634041985,0.13610992640565864
9.065602307208003,2.9947478321200784,-1.4916158760529659,-1.0074639667566074,-2.896198231145214,0.41945211945920857
9.095549785529204,2.9657858498086265,-1.501690515720532,-1.0032694455620152,-2.574504211853674,0.6707590627546846
9.125207644027292,2.9400408076900897,-1.5117232101761522,-0.9965618549344684,-2.27054162227071,0.8920702321407014
9.154608052104193,2.9173353914673825,-1.5216888287254968,-0.9876411526130614,-1.982177603717308,1.085290070843717
9.183781406018866,2.8975136154302095,-1.5315652402516275,-0.9767882519046243,-1.7073655467677955,1.2521514602389605
9.21275654217317,2.8804399599625317,-1.5413331227706737,-0.9642667373022347,-1.444155117232919,1.3941944915081443
9.241560941772795,2.8659984087902024,-1.550975790143696,-0.9503247923871532,-1.1906949981615573,1.5127560773036075
9.270220925860697,2.8540914588085866,-1.5604790380675675,-0.935197231614117,-0.9452305072797889,1.6089670183642524
9.298761840448783,2.844639153735789,-1.5698310103837088,-0.9191075614304746,-0.7060976991291867,1.6837539969789719
9.327208231986141,2.837578176744497,-1.5790220859980135,-0.9022700214606848,-0.47171512809309357,1.737844638517683
9.355584013753585,2.832861025463566,-1.5880447862126204,-0.884891575075508,-0.24057411340650364,1.7717742969667103
9.383912624008222,2.830455284329501,-1.5968937019633753,-0.8671738321058409,-0.011228091977619422,1.7858936115768698
9.412217176851517,2.830343003409725,-1.6055654402844337,-0.8493148959900721,0.21771854649438074,1.780376176833999
9.440520606885613,2.832520188874669,-1.6140585892443344,-0.8315111342217322,0.4476218881739475,1.755225890496809
9.46884580877436,2.8369964077564083,-1.6223737005865517,-0.813958875316764,0.6798100336192786,1.710283714262719
9.497215772851924,2.8437945080926013,-1.6305132893397194,-0.7968560381741369,0.915594659306148,1.6452337155988657
9.52565371793285,2.8529504546856628,-1.6384818497214608,-0.7804037010181482,1.1562825540975905,1.5596083722140344
9.554183222479706,2.864513280226639,-1.6462858867316423,-0.7648076172960078,1.4031870954841885,1.4527932262853966
9.582828355281972,2.8785451511814806,-1.6539339629046024,-0.7502796850331538,1.6576396168217629,1.3240310877089725
9.611613806793788,2.895121547349698,-1.661436759754934,-0.737039374156064,1.9210005731559006,1.1724261195284955
9.640565022267284,2.914331553081257,-1.6688071534964946,-0.7253151129607791,2.1946703322899026,0.9969483125259577
9.669708337798097,2.936278256404156,-1.6760603046261024,-0.7153456298355195,2.4800992875612557,0.7964390929529009
9.699071120362138,2.9610792492797686,-1.6832137609244577,-0.7073812389059905,2.7787967911237526,0.5696191384144085
9.728681912854936,2.988867217191006,-1.6902875733135176,-0.7016850475218464,3.0923381146909277,0.31509994398102054
9.758570585026847,3.019790598337915,-1.697304423788736,-0.6985340480820361,3.422368220381398,0.031401341422996956
9.788768491010226,3.054014280541729,-1.7042897642695565,-0.6982200346678061,3.770600513419634,-0.2830218914986298
9.819308633815643,3.091720285675925,-1.7112719646162344,-0.7010502535827924,4.138807875633046,-0.629739878720587
9.850225836672402,3.1331083644322555,-1.7182824671520625,-0.7073476523699983,4.528802040756205,-1.010287652587277
9.881556920316726,3.1783963848398176,-1.7253559436757624,-0.717450528895871,4.9423956314166,-1.426076453372156
9.913340884165123,3.2278203411539836,-1.732530448964721,-0.7317112934295926,5.381338754899878,-1.8782639161513601
9.945619087576663,3.2816337287029826,-1.739847561899017,-0.7504939325911062,5.847218732667343,-2.3675659323408036
9.978435424863694,3.340105916029656,-1.747352501224928,-0.7741695919145142,6.341307078283792,-2.893986581896658
10.01183648402399,3.403518986812494,-1.7550941971440732,-0.8031094577334807,6.864332036355381,-3.456434308503399
10.045871673892114,3.4721623071760477,-1.763125291721408,-0.8376738008185147,7.416147817798873,-4.052182475326439
10.080593296963874,3.5463237853540366,-1.7715020297295931,-0.8781956255717791,7.995263535550096,-4.676121303179844
10.116056534817414,3.6262764207095377,-1.780283985985311,-0.9249568386035776,8.598187188054684,-5.319738159725215
10.152319299024509,3.7122582925900844,-1.7895335543713469,-0.9781542202008298,9.21853628219443,-5.969759366171523
10.18944188195041,3.8044436554120287,-1.799315096573355,-1.037851813862545,9.845873877649463,-6.606399493433613
10.22748631850453,3.9029023941885232,-1.8096936147119806,-1.1039158087968812,10.464259930615663,-7.201212421434602
10.266515342446416,4.00754499349468,-1.8207327727999494,-1.1759279330112273,11.050584096419431,-7.714652997741089
10.306590792381362,4.118050834458874,-1.8324920521300616,-1.2530744629886383,11.572897490260623,-8.093681801888483
10.34777130072595,4.23377980936148,-1.845022796759948,-1.334011281007523,11.989218153411848,-8.270121999168849
10.390109098819565,4.353671990895599,-1.8583629095700231,-1.4167125009992116,12.247653491762083,-8.161012738039835
10.43364581872852,4.47614852581322,-1.8725300345800153,-1.49832262837961,12.28908387919988,-7.67278207117367
10.478407303986652,4.599039364605218,-1.8875132608638114,-1.5750504490913468,12.05383293241819,-6.7113183365688265
10.524397697632704,4.7195776939294,-1.9032637653547249,-1.642163632457035,11.4932305528447,-5.199257315687976
10.571593474571998,4.834509999457847,-1.9196854016792952,-1.6941562056139148,10.585197793588165,-3.0992197326734163
10.619938574566577,4.940361977393729,-1.9366269637354343,-1.725148402940649,9.34989861689149,-0.4372555121342465
10.669342194340514,5.033860963562644,-1.9538784477648408,-1.7295209580619915,7.858451894469375,2.6837002996548227
10.719680803976141,5.112445482507337,-1.9711736573454606,-1.7026839550654433,6.22754240656951,6.0908540254729395
10.770805258801214,5.174720906573032,-1.988200496896115,-1.641775414810714,4.597853106435683,9.57229655359142
10.822552467866945,5.220699437637389,-2.004618251044222,-1.5460524492747998,3.1028922320437085,12.92220402112877
10.874759462243318,5.251728359957826,-2.02007877553697,-1.416830409063512,1.8408301925166808,15.982346312265841
10.927276745842896,5.270136661882993,-2.034247079627605,-1.2570069459408535,0.8601104130734697,18.664141999265677
10.979978112461726,5.278737766013728,-2.0468171490870137,-1.0703655259481968,0.16137208573754422,20.947169325803316
11.032765490121863,5.280351486871103,-2.057520804346496,-0.8608938326901636,-0.28963442755915275,22.861414999028717
11.085569004990573,5.277455142595511,-2.0661297426733976,-0.6322796826998764,-0.5460541432089664,24.464511373500986
11.138343556416528,5.271994601163422,-2.072452539500396,-0.3876345689648666,-0.6666108134169059,25.82233719543136
11.191063502428163,5.265328493029252,-2.0763288851900445,-0.12941119701055298,-0.7071299376539699,26.996304948720915
11.243716787358455,5.258257193652713,-2.07762299716015,0.1405518524766562,-0.7164975049331673,28.03696435307907
11.296299359294983,5.2510922186033815,-2.076217478635383,0.4209214960074469,-0.7356411159730277,28.982040775082286
11.348810281481017,5.2437358074436515,-2.0720082636753085,0.7107419037582697,-0.7981370187829686,29.85698803933179
11.401247639555454,5.235754437255822,-2.0649008446377257,1.0093117841515875,-0.9314512185115732,30.676672497625326
11.453605183928012,5.226439925070706,-2.0548077267962097,1.3160785091278409,-1.1582406134142784,31.447382130257918
11.505869583178718,5.214857518936563,-2.0416469417049314,1.6305523304304201,-1.4974405553234262,32.168776017053446
11.558018158368084,5.199883113383329,-2.025341418400627,1.9522400906009545,-1.9650439035935965,32.83564147896023
11.610016989501917,5.180232674347393,-2.0058190174946176,2.2805965053905566,-2.5745689314027094,33.439453799438326
11.66181931624539,5.154486985033366,-1.983013052440712,2.61499104338494,-3.337255203263676,33.96978500910064
