th1 (rad),w1 (rad/s),th2 (rad),w2 (rad/s),a1 (rad/s^2),a2 (rad/s^2)
0.7021640236556493,3.12832008246405,3.1219177674218286,-0.5668328571677846,-12.143295069578048,-15.773972548800376
0.7334472244802899,3.0068871317682695,3.1162494388501507,-0.7245725826557884,-11.8461565039742,-15.065585185794122
0.7635160957979725,2.8884255667285275,3.109003713023593,-0.8752284345137296,-11.517266148984257,-14.337809034922177
0.7924003514652578,2.7732529052386847,3.100251428678456,-1.0186065248629514,-11.165678989824626,-13.60435364483599
0.8201328805176447,2.6615961153404384,3.0900653634298263,-1.1546500613113113,-10.799415632852625,-12.876934927812162
0.846748841671049,2.553601959011912,3.078518862816713,-1.283419410589433,-10.425390354031917,-12.165263743956285
0.8722848612611681,2.4493480554715927,3.065684668710819,-1.4050720480289958,-10.049404147223417,-11.47712930911548
0.896778341815884,2.3488540139993583,3.051633948230529,-1.5198433411201506,-9.676187540550888,-10.818549732988656
0.9202668819558776,2.2520921385938495,3.0364355148193276,-1.6280288384500372,-9.30947824801876,-10.193964294422392
0.9427878033418161,2.158997356113662,3.0201552264348273,-1.729968481394261,-8.952120329736427,-9.606446042132662
0.9643777769029527,2.0694761528162977,3.002855541620885,-1.8260329418155876,-8.606173843957446,-9.057917986698012
0.9850725384311156,1.9834144143767232,2.984595212202729,-1.9166121216825678,-8.27302650560516,-8.549360794225572
1.004906682574883,1.9006841493206716,2.965429090985903,-2.0021057296248235,-7.953501284092452,-8.081004040969917
1.0239135240680897,1.8211491364797472,2.945408033689655,-2.0829157700345227,-7.647955980799723,-7.652496507965998
1.0421250154328872,1.74466957667175,2.92457887598931,-2.1594407351141824,-7.356372536320823,-7.263053622427461
1.0595717111996046,1.6711058513085417,2.902984468638168,-2.232071271338457,-7.078435119397174,-6.911582035462452
1.07628276971269,1.60032150011457,2.8806637559247834,-2.3011870916930817,-6.813596980134395,-6.596782570211111
1.0922859847138358,1.5321855303132261,2.8576518850078525,-2.367154917395193,-6.561136669638191,-6.317233509655364
1.107607840016968,1.4665741636168441,2.8339803358339006,-2.4303272524917467,-6.320204603350761,-6.071456546089943
1.1222735816531364,1.4033721175833365,2.809677063308983,-2.491041817952646,-6.08986113950037,-5.857967796429667
1.1363073028289699,1.3424735061883328,2.784766645129457,-2.5496214959169428,-5.869107412052014,-5.675316190269072
1.149732037890853,1.2837824320678126,2.7592704301702873,-2.6063746578196336,-5.656910143856995,-5.522111330553141
1.1625698622115312,1.2272133306292428,2.733206683592091,-2.661595771125165,-5.452221604676536,-5.397042660037208
1.1748419955178238,1.1726911145824774,2.7065907258808393,-2.715566197725537,-5.253995795849488,-5.298891474282241
1.1865689066636484,1.1201511566239826,2.679435063903584,-2.7685551124683596,-5.061201856862446,-5.2265370247137035
1.1977704182298883,1.069539138055358,2.6517495127789004,-2.820820482715497,-4.87283561181204,-5.178957664427157
1.208465809610442,1.0208107819372376,2.6235413079517453,-2.8726100593597685,-4.687930114729865,-5.155227708877716
1.2186739174298142,0.973931480789939,2.5948152073581476,-2.924162336448546,-4.505566018467714,-5.154510412029351
1.2284132322377137,0.9288758206052619,2.565573583993662,-2.9757074405688395,-4.324882587357683,-5.176047190872909
1.2377019904437663,0.885626994731685,2.5358165095879737,-3.0274679124775687,-4.145090203545106,-5.219142959616771
1.2465582603910832,0.844176092696234,2.505541830463198,-3.0796593420737364,-3.965485284966535,-5.283147149491331
1.2550000213180454,0.8045212398465686,2.4747452370424603,-3.1324908135686496,-3.785468643702558,-5.367429679813462
1.2630452337165112,0.766666553409543,2.443420328906774,-3.186165110366784,-3.6045684710872945,-5.4713507989426855
1.2707118992506066,0.73062086869867,2.411558677803106,-3.240878618356211,-3.4224693439565885,-5.59422331877201
1.2780181079375932,0.6963961752591041,2.379149891619544,-3.2968208515439312,-3.239048905985534,-5.735265314710594
1.2849820696901841,0.6640056861992488,2.3461816831041045,-3.3541735046910373,-3.0544241854596486,-5.893540852050308
1.2916221265521766,0.6334614443446523,2.312639948057194,-3.4131089132115404,-2.8690098526511107,-6.067885738537327
1.2979567409956232,0.6047713458181412,2.2785088589250786,-3.4737877705969136,-2.683591065513277,-6.2568147232825
1.3040044544538045,0.5779354351630084,2.2437709812191096,-3.536355917829739,-2.4994138415146,-6.458406033161032
1.3097838088054345,0.5529412967478624,2.2084074220408123,-3.600939978161349,-2.318296018158133,-6.6701587912852895
1.315313221772913,0.5297583365662811,2.1723980222591988,-3.667641566074202,-2.1427616427308354,-6.888818927954358
1.3206108051385759,0.5083307201389727,2.1357216065984566,-3.7365297553537453,-1.976200770203099,-7.110170050322195
1.3256941123399657,0.4885687124369417,2.0983563090449193,-3.807631455856967,-1.8230546990306804,-7.3287879699898415
1.3305797994643351,0.4703381654466349,2.0602799944863497,-3.8809193355568654,-1.6890229898806142,-7.5377620589419605
1.3352831811188015,0.4534479355478288,2.021470801130781,-3.956296956146285,-1.5812823197018977,-7.728394488098012
1.3398176604742797,0.4376351123508098,1.9819078315693184,-4.033580901027265,-1.5086972700132448,-7.889901138472467
1.344194011597788,0.4225481396506774,1.9415720225590458,-4.11247991241199,-1.4819884985418554,-8.00915701289768
1.3484194929942948,0.40772825466525886,1.900447223434926,-4.192571482540966,-1.5138038732888173,-8.070555129035672
1.3524967755409474,0.3925902159323707,1.8585215086095161,-4.273277033831323,-1.6186140111072316,-8.05608002724663
1.356422677700271,0.37640407582129837,1.815788738271203,-4.353837834103789,-1.8123292618723592,-7.9457300199781
1.360186718458484,0.3582807832025748,1.772250359930165,-4.43329513430357,-2.1115196013812714,-7.718444173054868
1.3637695262905096,0.33716558718876205,1.7279174085871294,-4.510479576034119,-2.532127960551004,-7.353679690232125
1.3671411821623973,0.311844307583252,1.6828126128267882,-4.58401637293644,-3.087622958350168,-6.833713765096915
1.3702596252382298,0.2809680779997503,1.6369724490974238,-4.652353510587409,-3.7866598110922034,-6.146582831632919
1.3730693060182273,0.2431014798888283,1.5904489139915496,-4.713819338903739,-4.6305130687048,-5.28931507507402
1.3755003208171155,0.1967963492017803,1.5433107206025123,-4.766712489654479,-5.6107776271559935,-4.270804954111462
1.3774682843091333,0.14068857293022036,1.4956435957059675,-4.809420539195593,-6.708015577398203,-3.113441798003424
1.3788751700384354,0.07360841715623832,1.4475493903140115,-4.840554957175628,-7.892025123718776,-1.8526134541520984
1.3796112542099979,-0.005311834080949443,1.3991438407422552,-4.859081091717148,-9.124117713236181,-0.5336010369846
1.3795581358691884,-0.09655301121331125,1.3505530298250836,-4.864417102086994,-10.361227503696819,0.7938653471814009
1.3785926057570552,-0.20016528625027946,1.3019088588042136,-4.856478448615181,-11.561040343176527,2.0822775930332194
1.3765909528945524,-0.3157756896820447,1.2533440743180617,-4.835655672684848,-12.686925072365684,3.292618509959395
1.373433195997732,-0.44264494040570157,1.2049875175912133,-4.802729487585254,-13.711507055033174,4.3987096926065465
1.3690067465936748,-0.5797600109560332,1.1569602227153608,-4.758742390659188,-14.61822313412395,5.388815597503421
1.3632091464841145,-0.7259422422972728,1.109372798808769,-4.704854234684154,-15.400877017612697,6.264599480178317
1.3559497240611418,-0.8799510124733998,1.0623242564619273,-4.642208239882371,-16.06175296619614,7.038233212679983
1.3471502139364078,-1.0405685421353612,1.0159021740631036,-4.571825907755571,-16.609061052171477,7.728721338282831
1.336744528515054,-1.206659152657076,0.9701839149855479,-4.494538694372743,-17.05439840297652,8.358349866614642
1.3246779369884834,-1.3772031366868411,0.9252385280418205,-4.410955195706596,-17.410660283870122,8.949814115908136
1.310905905621615,-1.5513097395255424,0.8811289760847545,-4.321457054547515,-17.69057115132621,9.524219732074574
1.2953928082263595,-1.7282154510388046,0.8379144055392793,-4.226214857226769,-17.905814982362763,10.09989931601798
1.2781106537159714,-1.9072736008624323,0.7956522569670116,-4.12521586406659,-18.066645197635367,10.69186400043372
1.2590379177073472,-2.087940052838786,0.7544000983263457,-4.018297224062253,-18.181827143761993,11.311683182617392
1.2381585171789593,-2.2697583242764057,0.7142171260857232,-3.905180392236079,-18.2587796961811,11.967612629408809
1.2154609339361953,-2.4523461212382167,0.6751653221633624,-3.7855042659419906,-18.30381194690178,12.664836668083781
1.1909374727238131,-2.6353842407072348,0.6373102795039426,-3.6588558992611526,-18.32238096627393,13.405733890749095
1.1645836303167407,-2.818608050369974,0.6007217205113311,-3.524798560353662,-18.319320406904982,14.190109024519842
1.136397549813041,-3.001801254439024,0.5654737349077945,-3.3828974701084635,-18.299005470262625,15.015354513354689
1.1063795372686507,-3.18479130914165,0.5316447602067099,-3.232743924974917,-18.265428083475253,15.876515167704186
1.0745316241772342,-3.367445589976403,0.49931732095696074,-3.073978773297875,-18.22215835844797,16.766230068276244
1.0408571682774703,-3.5496671735608825,0.468577533223982,-2.9063164726151127,-18.172165794707297,17.674519731446658
1.0053604965418614,-3.7313888315079553,0.4395143684978309,-2.7295712753006462,-18.117467270030026,18.58837502998435
0.9680466082267819,-3.9125635042082556,0.4122186557448244,-2.5436875250008026,-18.058559659992277,19.491089288668082
0.9289209731846994,-4.093149100808178,0.3867817804948164,-2.348776632114122,-17.993584579525812,20.36125915932248
0.8879894821766176,-4.273084946603436,0.36329401417367513,-2.145164040520897,-17.91716468235367,21.171368896068692
0.8452586327105832,-4.452256593426973,0.34184237376846616,-1.9334503515602102,-17.81885244826371,21.885877720995694
0.8007360667763135,-4.63044511790961,0.32250787025286404,-1.7145915743502531,-17.681157749154863,22.458772513732704
0.7544316155972174,-4.807256695401159,0.3053619545093615,-1.490003849212926,-17.47719552009322,22.830665828980187
0.7063590486432058,-4.982028650602091,0.2904619160172322,-1.261697190923124,-17.168161060531748,22.925771834021447
0.6565387621371849,-5.153710261207409,0.277844944108001,-1.0324394725829096,-16.701153521639586,22.64955847027498
0.6050016595251108,-5.320721796423805,0.2675205493821719,-0.8059438878801598,-16.008376875431008,21.88861834965922
0.5517944415608727,-5.480805565178115,0.2594611105033703,-0.5870577043835676,-15.009428132791314,20.51527923852896
0.4969863859090915,-5.630899846506028,0.2535905334595346,-0.38190491199827803,-13.61899905066353,18.40033264354916
0.44067738744403123,-5.767089837012664,0.2497714843395518,-0.19790158556278642,-11.762234171769771,15.43706209298087
0.3830064890739046,-5.884712178730362,0.24779246848392392,-0.0435309646329777,-9.39813030096337,11.576941800835737
0.324159367286601,-5.978693481739995,0.24735715883759413,0.07223845337537967,-6.546807996610219,6.870633011180928
0.26437243246920106,-6.0441615617060975,0.2480795433713479,0.14094478348718895,-3.3100998494202067,1.498525245847848
0.2039308168521401,-6.0772625602003,0.2494889912062198,0.15593003594566743,0.12891695948207263,-4.230513013750319
0.1431581912501371,-6.075973390605479,0.2510482915656765,0.11362490580816423,3.5366028957601303,-9.925855604709334
0.0823984573440823,-6.0406073616478775,0.2521845406237581,0.014366349761070887,6.6831104095971465,-15.197900402694081
0.021992383727603523,-5.973776257551906,0.2523282041213688,-0.13761265426586994,9.397621591920048,-19.743362229030883
-0.03774537884791554,-5.879800041632706,0.25095207757871013,-0.3350462765561788,11.599705197066823,-23.39605009645226
-0.0965433792642426,-5.763802989662038,0.24760161481314835,-0.5690067775207014,13.297242051299751,-26.12796752282247
-0.15418140916086298,-5.63083056914904,0.24191154703794135,-0.8302864527489261,14.560209682033463,-28.01337304050451
-0.21048971485235338,-5.485228472328706,0.23360868251045208,-1.1104201831539713,15.487651419195066,-29.180933902881105
-0.2653419995756404,-5.330351958136755,0.22250448067891238,-1.4022295221827823,16.180958328676358,-29.773664581727903
-0.31864551915700795,-5.1685423748499915,0.20848218545708455,-1.6999661680000613,16.728104474515096,-29.9241870758616
-0.3703309429055079,-5.001261330104841,0.19148252377708394,-1.9992080387586773,17.197430202465807,-29.74386804981335
-0.4203435562065563,-4.8292870280801825,0.17149044338949718,-2.2966467192568105,17.637468057609595,-29.321028083127036
-0.4686364264873581,-4.6529123475040866,0.1485239761969291,-2.589857000088081,18.07966282338794,-28.723698138312784
-0.5151655499623989,-4.4721157192702075,0.12262540619604828,-2.8770939814712087,18.54195841924573,-28.003905173408718
-0.559886707155101,-4.28669613507775,0.0938544663813362,-3.157133033205296,19.03221906975128,-27.2018811463235
-0.6027536685058785,-4.096373944380237,0.06228313604928324,-3.4291518446685307,19.551084469379738,-26.349523388600694
-0.6437174079496809,-3.9008630996864397,0.027991617602597933,-3.6926470785545376,20.09418221300645,-25.472936846398742
-0.6827260389465453,-3.699921277556375,-0.008934853182947441,-3.947376447018525,20.653750926516754,-24.59411114541853
-0.719725251722109,-3.4933837682912077,-0.048408617653132695,-4.19331755847271,21.219756763125645,-23.73185515114978
-0.754659089405021,-3.2811862006599513,-0.09034179323785979,-4.430636109984208,21.78057037432953,-22.90210814246024
-0.7874709514116205,-3.063380496916656,-0.1346481543377019,-4.659657191408811,22.323240122072388,-22.117712001154576
-0.8181047563807871,-2.8401480956959317,-0.18124472625179,-4.880834311420356,22.833363478478642,-21.387682915799992
-0.8465062373377463,-2.6118144609111456,-0.23005306936599357,-5.094711140578356,23.29452846262275,-20.715973702728007
-0.8726243819468578,-2.378869176284918,-0.28100018077177713,-5.301870877605636,23.687275759012937,-20.099676877309843
-0.8964130737097069,-2.141996418694789,-0.3340188895478335,-5.502867646378735,23.987529224695137,-19.5265975099663
-0.9178330378966548,-1.9021211264478375,-0.3890475660116208,-5.698133621478398,24.16447740240112,-18.97215102262652
-0.9368542491611332,-1.6604763524238262,-0.4460289022264048,-5.887855131704663,24.177998638844105,-18.395666220984044
-0.9534590126853715,-1.418696366035385,-0.5049074535434515,-6.071811793914503,23.975969024268252,-17.736484306726155
-0.9676459763457254,-1.1789366757927024,-0.5656255714825965,-6.2491766369817645,23.49225777419486,-16.9108577203643
-0.9794353431036524,-0.9440140980507539,-0.6281173378524142,-6.418285214185407,22.646961826594605,-15.811664964324068
-0.9888754840841599,-0.7175444797848078,-0.6923001899942682,-6.576401863828648,21.351380949277356,-14.314278651063232
-0.996050928882008,-0.5040306702920343,-0.7580642086325547,-6.719544650339281,19.520914507911836,-12.292932951832062
-1.0010912355849284,-0.30882152521291595,-0.8252596551359476,-6.842473979857601,17.098312093080427,-9.651068508494465
-1.0041794508370576,-0.13783840428211167,-0.8936843949345236,-6.938984664942546,14.085817074942787,-6.364034009928112
-1.0055578348798788,0.003019766467316193,-0.963074241583949,-7.0026250050418275,10.576927460890099,-2.522066202044851
-1.0055276372152055,0.10878904107621719,-1.0331004916343673,-7.027845667062276,6.770043807401189,1.649988182789538
-1.0044397468044435,0.17648947915022908,-1.10337894830499,-7.01134578523438,2.9460442440746926,5.820242630488197
-1.0026748520129412,0.205949921590976,-1.173492406157334,-6.953143358929498,-0.5923040952042754,9.627547850160456
-1.0006153527970314,0.20002688063893326,-1.243023839746629,-6.8568678804278935,-3.5957261912952574,12.778466637049995
-0.998615083990642,0.1640696187259807,-1.3115925185509079,-6.729083214057393,-5.922324678834894,15.115537228229227
-0.9969743878033822,0.10484637193763174,-1.3788833506914817,-6.577927841775101,-7.547789356987392,16.628188144615283
-0.9959259240840059,0.029368478367757814,-1.4446626291092328,-6.411645960328948,-8.537834199007536,17.415073285806702
-0.9956322393003284,-0.05600986362231755,-1.5087790887125223,-6.237495227470881,-9.005822418937353,17.62860826801099
-0.9961923379365516,-0.14606808781169106,-1.571154040987231,-6.061209144790771,-9.076023610309194,17.42832005758906
-0.9976530188146685,-0.236828323914783,-1.631766132435139,-5.88692594421488,-8.861034502094764,16.953447558586305
-1.0000213020538162,-0.32543866893573065,-1.6906353918772876,-5.7173914686290175,-8.452311607914655,16.31268580373635
-1.0032756887431735,-0.40996178501487723,-1.7478093065635778,-5.5542646105916536,-7.919113472774963,15.584501904956216
-1.0073753065933222,-0.48915291974262687,-1.8033519526694943,-5.398419591542091,-7.311455133912635,14.82216062858086
-1.0122668357907485,-0.5622674710817532,-1.8573361485849151,-5.250197985256283,-6.664256328768603,14.059841852120014
-1.017889510501566,-0.6289100343694393,-1.909838128437478,-5.109599566735083,-6.001283017161119,13.318146368270403
-1.0241786108452604,-0.6889228645410505,-1.9609341241048288,-4.976418103052379,-5.338369225434249,12.608440795029736
-1.031067839490671,-0.7423065567953929,-2.0106983051353526,-4.850333695102082,-4.685850861533406,11.9360442953809
-1.0384909050586248,-0.789165065410727,-2.0592016420863732,-4.730973252148273,-4.050320286831836,11.302460774189786
-1.0463825557127322,-0.8296682682790453,-2.106511374607856,-4.617948644406375,-3.435854287054557,10.706893582325323
-1.0546792383955226,-0.8640268111495908,-2.1526908610519198,-4.510879708583121,-2.844856648264933,10.147248430092963
-1.0633195065070185,-0.8924753776322402,-2.197799658137751,-4.409407224282192,-2.278628228730085,9.620782928748586
-1.0722442602833409,-0.915261659919541,-2.2418937303805726,-4.313199394994706,-1.7377485018050969,9.124517356845567
-1.0813968768825362,-0.9326391449375919,-2.2850257243305196,-4.221954221426251,-1.2223285471448926,8.655486568697228
-1.0907232683319121,-0.9448624304090408,-2.3272452665447823,-4.1353993557392785,-0.7321772929893394,8.210887530684664
-1.1001718926360025,-0.9521842033389343,-2.368599260102175,-4.053290480432432,-0.2669097025950006,7.78815909817484
-1.1096937346693918,-0.9548533003648842,-2.409132164906499,-3.9754088894506836,0.17398359626113144,7.3850184006143325
-1.1192422676730407,-0.953113464402273,-2.448886253801006,-3.90155870544454,0.5910920806914678,6.99946994380144
-1.1287734023170635,-0.9472025435953583,-2.4879018408554514,-3.8315640060065257,0.985057672212422,6.629798022954723
-1.138245427753017,-0.9373519668732341,-2.5262174809155167,-3.7652660257769783,1.3565577552417993,6.274549379266571
-1.1476189474217493,-0.9237863893208161,-2.5638701411732865,-3.7025205319843124,1.7062949691650706,5.932510611719647
-1.1568568113149575,-0.9067234396291655,-2.6008953464931297,-3.6431954258671158,2.034991206920088,5.602683258638571
-1.1659240457112492,-0.8863735275599646,-2.6373273007518008,-3.58716859328073,2.343384152536045,5.2842584109774995
-1.1747877809868488,-0.8629396860346041,-2.673198986684608,-3.534326009170955,2.63222529236833,4.976592026487267
-1.183417177847195,-0.8366174331109208,-2.7085422467763176,-3.4845600889060826,2.9022787359274895,4.679181658169748
-1.1917833521783041,-0.807594645751646,-2.7433878476653786,-3.437768272324385,3.1543204472633177,4.391645011022209
-1.1998592986358205,-0.7760514412790128,-2.7777655303886224,-3.3938518222141627,3.3891376609542574,4.113700544797969
-1.2076198130486107,-0.7421600646694703,-2.811704048610764,-3.352714816766183,3.6075283678456946,3.845150212347667
-1.2150414136953054,-0.7060847809910133,-2.845231196778426,-3.314263314642706,3.8103008251853225,3.5858643400115824
-1.2221022615052155,-0.6679817727391602,-2.878373829924853,-3.27840467124259,3.9982730876235575,3.3357686033216094
-1.2287820792326072,-0.6279990418629245,-2.911157876637279,-3.245046985209374,4.172272579146984,3.0948330179081687
