th1 (rad),w1 (rad/s),th2 (rad),w2 (rad/s)
4.5838652876570425,2.6767854488992566,2.963743246647532,-1.1715562881916959
4.610633142146035,2.768571212293961,2.9520276837656154,-1.1128035745370817
4.638318854268975,2.862797110207924,2.9408996480202445,-1.0466520597836044
4.6669468253710535,2.959768001170889,2.9304331274224085,-0.9726423271413553
4.696544505382763,3.059794713260355,2.920706704150995,-0.8902799836506307
4.727142452515366,3.163191367010186,2.9118039043144885,-0.7990365832891609
4.7587743661854685,3.2702718849115744,2.903813538481597,-0.6983518211206102
4.791477085034584,3.381345507567924,2.896830020270391,-0.587637293110589
4.825290540110264,3.496711125854286,2.8909536473392854,-0.4662821509334845
4.860257651368807,3.6166502372956812,2.8862908258299504,-0.33366100537267723
4.896424153741764,3.741418348412329,2.882954215776224,-0.18914443759043695
4.933838337225887,3.8712346792121806,2.8810627714003196,-0.03211245413849473
4.9725506840180085,4.006270088379986,2.880741646858935,0.1380288434174739
5.012613384901808,4.146633235126519,2.88212193529311,0.32182722366986194
5.054079717253074,4.292355132006772,2.8853402075298082,0.5197609634419437
5.0970032685731415,4.443372425001955,2.8905378171642275,0.732212463647233
5.141436992823161,4.599509959743092,2.8978599418007,0.9594394948292227
5.187432092420592,4.760463444195449,2.9074543367489922,1.2015451410552207
5.235036726862547,4.925783275296233,2.9194697881595446,1.45844796910312
5.2842945596155095,5.09486082399522,2.9340542678505757,1.7298543995597842
5.335243167855462,5.266918622273007,2.9513528118461734,2.015235625138688
5.387912354078193,5.4410059127875146,2.9715051680975604,2.3138116197145386
5.4423224132060675,5.616000855725933,2.994643284294706,2.6245447154834287
5.498482421763327,5.790620303995931,3.0208887314495403,2.9461448177000222
5.556388624803286,5.96343745497017,3.0503501796265406,3.27708754039314
5.616022999352987,6.132906906759754,3.083121055030472,3.6156454109900062
5.677352068420585,6.297395779409128,3.119277509140372,3.9599309136368586
5.740326026214676,6.455218734849183,3.1588768182767404,4.307948699615186
5.8048782135631685,6.604674087600267,3.2019563052728923,4.657653012978676
5.870924954439171,6.744077867945137,3.248532835402679,5.007005483593025
5.938365733118622,6.871792758846532,3.2986028902386093,5.354028098000548
6.007083660707087,6.986249286441129,3.3521431712186147,5.69684644583254
6.076946153571498,7.085957440352032,3.40911163567694,6.033719219448959
6.147805727975019,7.169507921817839,3.46944882787143,6.363051284440641
6.219500807193198,7.235563333318306,3.5330793407158363,6.683389250509279
6.291856440526381,7.282840716875147,3.599913233220929,6.993400164366706
6.364684847695132,7.310087842862262,3.669847234864596,7.2918355683474
6.437785726123755,7.316056516174427,3.74276559054807,7.577484635507438
6.510946291285499,7.299476904205124,3.8185404369031444,7.849121381621449
6.58394106032755,7.259037508317101,3.897031650719359,8.10545207858342
6.656531435410721,7.1933758728187716,3.9780861715051934,8.345069953112674
6.728465194138908,7.101085361114926,4.06153687103632,8.566424987305735
6.7994760477500575,6.980743144403623,4.1472011209093775,8.767816973522093
6.8692834791940935,6.830963669864797,4.2348792906445984,8.9474196162662
6.937593115892741,6.650479979647843,4.324353486807261,9.103342013732792
7.004097915689219,6.43825206603593,4.415386906944589,9.233730873641322
7.068480436349579,6.193596908085268,4.507724215681002,9.33691206349168
7.130416405430432,5.916329279180155,4.601093336315919,9.411563702078581
7.189579698222233,5.606896737939039,4.695208973336705,9.456905730005152
7.245648665601624,5.266487866688573,4.789778030636756,9.472884232613513
7.29831354426851,4.897091535666698,4.884506872962891,9.460324732406729
7.347284459625176,4.501488191962241,4.9791101202869585,9.421029186090392
7.392299341544799,4.083162330979302,5.073320412147862,9.357797627403789
7.433130964854592,3.6461372778971013,5.166898388421901,9.27436681337945
7.469592337633563,3.1947465186884405,5.259642056555695,9.175272569840294
7.501539802820448,2.7333666138367914,5.351394782254098,9.06565626691126
7.528873468958816,2.2661421959449,5.44205134492321,8.951045458031036
7.551534890918265,1.7967323018754717,5.53156179950352,8.837141985204669
7.569502213937019,1.3281000198296131,5.619933219355567,8.729647681986183
7.582783214135315,0.8623565074058221,5.707229696175429,8.634150027840962
7.591406779209373,0.40065884672301877,5.793571196453839,8.556080589434544
7.595413367676603,-0.05684852730694856,5.879132002348184,8.500750583663768
7.5948448824035335,-0.5110655266445284,5.964139508184822,8.473462199381643
7.589734227137088,-0.9639607257899934,6.048874130178638,8.479691844989095
7.580094619879188,-1.4186070452113568,6.133671048628529,8.525341206217641
7.565908549427074,-1.8792428225148043,6.2189244606907055,8.617051039476443
7.547116121201926,-2.3513606499383486,6.30509497108547,8.762564767315322
7.523602514702542,-2.841798722145077,6.392720618758624,8.97110003406217
7.495184527481092,-3.35874199774823,6.482431619099246,9.253602605010775
7.46159710750361,-3.911374739113754,6.5749676451493535,9.622536780600104
7.422483360112472,-4.508526421273494,6.671193012955355,10.09032029970055
7.377398095899737,-5.154744945293931,6.77209621595236,10.664251833697543
7.325850646446798,-5.840478440852665,6.878738734289335,11.333318159564179
7.267445862038271,-6.521268710109334,6.992071915884977,12.03969589351319
7.202233174937178,-7.086727870242319,7.112468874820109,12.635687319607564
7.131365896234755,-7.356372108148762,7.238825748016184,12.876996718898003
7.057802175153267,-7.190175396457188,7.367595715205164,12.573682347175364
6.985900421188695,-6.661779170054943,7.493332538676918,11.82619541280721
6.919282629488145,-5.997148303866909,7.61159449280499,10.937961404987423
6.859311146449476,-5.35968649492194,7.7209741068548645,10.122549401112625
6.805714281500256,-4.803787262239476,7.822199600865991,9.445415534596984
6.757676408877861,-4.330421138972834,7.916653756211961,8.902095246343269
6.714372197488133,-3.9256959405334526,8.005674708675393,8.470438237453624
6.675115238082799,-3.5746828433033113,8.090379091049929,8.128599279340218
6.639368409649766,-3.264859064637454,8.171665083843331,7.859090118051246
6.606719819003391,-2.9863861784225825,8.250255985023843,7.648761362653962
6.576855957219165,-2.7316427002697274,8.326743598650383,7.4879203080817
6.549539530216468,-2.494701333045582,8.4016228017312,7.369451936367431
6.524592516886012,-2.2709134199549843,8.475317321094874,7.288116292289343
6.501883382686462,-2.0566173021103062,8.548198484017767,7.240011866588271
6.4813172096653595,-1.848954700366071,8.62059860268365,7.22215721145464
6.462827662661699,-1.6457778624810975,8.692820174798197,7.232143621986531
6.446369884036888,-1.4456354728347673,8.765141611018063,7.267820140896892
6.43191352930854,-1.2478296418472388,8.837819812427032,7.326981570348467
6.419435232890067,-1.0525366054348924,8.911089628130517,7.407041108787812
6.408909866835718,-0.8609776863945672,8.985160039218394,7.504684802687798
6.400300089971773,-0.6756121716487662,9.060206887245272,7.61552912830855
6.393543968255285,-0.500298766930234,9.136362178528357,7.733838143093051
6.388540980585983,-0.3403403753328076,9.213700559959287,7.852399412500333
6.385137576832655,-0.20230071615822265,9.29222455408429,7.96269283044238
6.383114569671073,-0.0934860616872571,9.371851482388715,8.055481831843988
6.3821797090542,-0.021052468004270908,9.452406300707155,8.12187319008312
6.3819691843741575,0.009159266830327452,9.533625032607986,8.154714938485135
6.382060777042461,-0.006215759207255284,9.615172181992838,8.14998666166031
6.381998619450388,-0.06728917606259288,9.696672048609441,8.107714976106994
6.381325727689762,-0.17082873391150294,9.777749198370511,8.032048742733048
6.379617440350647,-0.31090519135370326,9.858069685797842,7.930446848147029
6.37650838843711,-0.4800377320501124,9.937374154279313,7.812285843997849
6.371708011116609,-0.670447658780147,10.015497012719292,7.687369611513747
6.365003534528808,-0.8750809463934879,10.09237070883443,7.564748512567288
6.356252725064873,-1.0882350413815425,10.168018193960103,7.452035625505668
6.345370374651057,-1.305799144356743,10.24253855021516,7.355197546734869
6.33231238320749,-1.5252160232997958,10.316090525682508,7.278683511930518
6.317060222974492,-1.7452938533173545,10.388877360801814,7.225738582595299
6.2996072844413185,-1.9659714030883413,10.461134746627767,7.198782100399713
6.279947570410435,-2.188101967210096,10.533122567631764,7.199781530138591
6.258066550738334,-2.4132893293605107,10.60512038293315,7.2305926818864705
6.233933657444729,-2.643788380341383,10.677426309752015,7.2932642915168335
6.207495773641315,-2.88247260241388,10.750358952667183,7.390320064401011
6.1786710476171764,-3.1328670568736663,10.824262153311192,7.525038537783409
6.14734237704844,-3.399245195642869,10.899512538689025,7.701753416682049
6.113349925092011,-3.686786964732867,10.976530072855846,7.926194594303858
6.076482055444683,-4.001788377155868,11.055792018798885,8.205878040850667
6.036464171673124,-4.351886060733303,11.137850799207392,8.550515175873757
5.9929453110657915,-4.746182060605097,11.22335595096613,8.972305910822055
5.945483490459741,-5.194943046959245,11.31307901007435,9.485692194689136
5.893534059990148,-5.708005124347032,11.407935932021243,10.105403758084751
5.836454008746678,-6.289708523213721,11.50898996960209,10.83981784093065
5.7735569235145405,-6.925521147252766,11.617388148011397,11.67292818111687
5.704301712042013,-7.552728363712649,11.734117429822566,12.524236409717883
5.628774428404887,-8.018027454108614,11.859359793919745,13.190136100257863
5.5485941538638,-8.08732604374898,11.991261154922324,13.356796377504374
5.467720893426311,-7.6341416616522935,12.124829118697367,12.858800699623384
5.391379476809788,-6.834923700701077,12.2534171256936,11.943806287354349
5.323030239802777,-5.971662778515782,12.372855188567144,10.995782334004561
5.263313612017619,-5.185878623857957,12.48281301190719,10.201285508046823
5.21145482577904,-4.501271666410412,12.584825866987659,9.587063386545504
5.166442109114936,-3.9017034484874653,12.680696500853115,9.128401246692453
5.127425074630061,-3.36524528765408,12.77198051332004,8.794925665112757
5.09377262175352,-2.873030180745861,12.859929769971167,8.561812389200716
5.065042319946062,-2.4103313634571557,12.945547893863175,8.410646053784173
5.04093900631149,-1.9658867411438732,13.029654354401016,8.328081237602284
5.021280138900051,-1.5310776165211193,13.112935166777039,8.304395712545567
5.00596936273484,-1.0993052662884626,13.195979123902495,8.332334067382865
4.994976310071955,-0.6655904660644567,13.279302464576324,8.40623314758105
4.988320405411311,-0.22635629466621227,13.363364796052133,8.52135108062265
4.986056842464649,0.2206494092779958,13.44857830685836,8.673331749808577
4.988263336557429,0.6763301619200085,13.535311624356446,8.857761238885203
4.995026638176629,1.1401518211363795,13.623889236745297,9.069797591875998
5.006428156387993,1.6100284681557668,13.714587212664057,9.303878009623025
5.022528441069551,2.0822310813557525,13.807625992760288,9.55352750042074
5.043350751883109,2.5513750353839595,13.903161267764496,9.811307273652657
5.0688645022369485,3.010544649117358,14.001274340501022,10.068944470240504
5.098969948728122,3.4516016881173375,14.101963785203427,10.31767055573112
5.133485965609296,3.865693980237017,14.205140490760739,10.548759749032163
5.1721429054116665,4.24393078574443,14.310628088251061,10.754205117304076
5.214582213269111,4.578134926549635,14.418170139424102,10.92741439894597
5.260363562534607,4.861539859004791,14.527444283413562,11.06377571453556
5.308978961124655,5.089295899574997,14.638082040558917,11.160958124249285
5.359871920120405,5.2586931450949015,14.749691621801409,11.21887769813908
5.412458851571354,5.369085461838688,14.8618803987828,11.239353718989065
5.466149706189741,5.421578317028927,14.97427393597269,11.225562380441067
5.520365489360031,5.418591489767353,15.0865295597771,11.181433762833151
5.574551404257704,5.363412119828661,15.198343897405431,11.11112365024526
5.628185525455991,5.259822538433199,15.309455133907884,11.018641657999888
5.680783750840323,5.11184155612157,15.419641550487883,10.907658232908497
5.731902166401539,4.923576799712453,15.528718132816968,10.781466771554637
5.7811379343986635,4.699159754673428,15.636532800532514,10.643052162923867
5.828129531945398,4.442725728275865,15.742963322161753,10.495211817268181
5.872556789228156,4.158404046790734,15.847915440334434,10.34068320649725
5.914140829696064,3.8502939870274657,15.951322272399407,10.182246331844055
5.952643769566338,3.522414426234179,16.053144735717847,10.022785249414692
5.98786791382868,3.1786265441169466,16.153372588211994,9.865306609650588
6.01965417926985,2.8225370737859583,16.2520256543085,9.712923372630913
6.04787955000771,2.457393734844793,16.34915488803481,9.568817821153523
6.0724534873561575,2.085984758618135,16.444843066246346,9.436199944694815
6.093313334942339,1.7105517296494972,16.539205065693295,9.318276097409708
6.110418852238834,1.332720584844293,16.632387826667394,9.218239805596443
6.123746058087277,0.9534507874764424,16.724570224723358,9.139293033355187
6.133280565962042,0.572998380532502,16.81596315505691,9.084703203945397
6.139010549767367,0.19088534208295688,16.906810187096365,9.057899521248572
6.140919403188196,-0.1941344532603435,16.99738918230885,9.062611902899588
6.138978058655592,-0.5841233749008146,17.088015301337848,9.103056942010555
6.133136824906584,-0.9820327873468977,17.179045870757953,9.184177017026649
6.123316497033115,-1.3918086184323224,17.27088764092822,9.31193915067515
6.109398410848792,-1.8185305596418635,17.36400703243497,9.493695025416196
6.091213105252374,-2.2685650345585757,17.45894398268913,9.73858146010133
6.068527454906788,-2.7496569804504003,17.556329797290143,10.057873008521698
6.041030885102284,-3.270742917119347,17.65690852737536,10.465012619671327
6.008323455931091,-3.8409085228168447,17.761558653572074,10.974563801930909
5.969914370702923,-4.466048579436276,17.871304291591382,11.598143047997482
5.92525388490856,-5.139923661058045,17.987285722071356,12.332800920191207
5.873854648297979,-5.823527348970715,18.11061373127327,13.133368793274354
5.815619374808272,-6.408806880653146,18.241947419206014,13.862914866189264
5.751531306001741,-6.6953113793910575,18.380576567867905,14.259894839912858
5.68457819220783,-6.485592818890624,18.523175516267035,14.066804802600913
5.619722264018924,-5.813059739134052,18.663843564293042,13.337361046407779
5.561591666627584,-4.937630917338635,18.79721717475712,12.422679887365383
5.512215357454198,-4.0700562896990835,18.921443973630772,11.596126524670144
5.471514794557208,-3.2818972512489695,19.037405238877472,10.941031904114732
5.438695822044718,-2.574454909984064,19.146815557918618,10.449606603465604
5.412951272944877,-1.9304700442040141,19.251311623953274,10.092730760583814
5.393646572502837,-1.3319886497571805,19.352238931559114,9.84261267684561
5.380326686005265,-0.7644850194561279,19.45066505832757,9.677134623601438
5.372681835810704,-0.2170898435130062,19.547436404563584,9.579324244431266
5.370510937375574,0.3179906962303124,19.643229647007896,9.535986645554306
5.373690844337877,0.846060339478633,19.738589513463438,9.536478955803206
5.382151447732663,1.3703684013381978,19.83395430302147,9.571784398058675
5.395855131746045,1.892408883795841,19.92967214700206,9.633855144718721
5.414779220584004,2.4121310288224915,20.026010698449245,9.71517084617034
5.438900530872228,2.928110074461835,20.123162406910946,9.808472815619725
5.468181631616846,3.437719663217692,20.221247135067145,9.906648135751807
5.502558828249024,3.9373372823550037,20.320313616424663,10.002745136750555
5.541932201072574,4.4226013998756475,20.42034106779217,10.09010069907547
5.586158215071331,4.888723380939415,20.521242074782922,10.162552227265067
5.6350454488807245,5.3308400490950705,20.622867597055574,10.214696314729327
5.688353849371675,5.744376954802055,20.72501456020287,10.242146865930634
5.7457976189196955,6.125382209357378,20.827436028862174,10.241742815828172
5.807051441013269,6.470789784129869,20.929853457020457,10.211663024072813
5.8717593388545675,6.77858068394398,21.031970087261186,10.151423437222132
5.939545145694007,7.0478280993471,21.133484321633407,10.061755236428567
6.010023426687478,7.278633307640476,21.234101873997695,9.944385819687575
6.082809759763882,7.471976647443677,21.33354573219457,9.801760635142664
6.157529526238319,7.6295178692479375,21.431563338545995,9.636749420353592
6.233824704930798,7.753381227691896,21.527930832749533,9.452375596147238
6.311358517207718,7.845954522068962,21.622454588711005,9.251595845226062
6.389818062428407,7.90972128531986,21.714970547163265,9.037142888528049
6.468915275281606,7.94713489399864,21.805341976048545,8.811432048696656
6.5483866242215925,7.960534891027177,21.89345629653551,8.576523524986994
6.627991973131865,7.952100278577019,21.97922153178538,8.33412782368609
6.707512975917635,7.923831857632282,22.062562810022243,8.085640762737345
6.786751294493958,7.877555180424252,22.143419217649615,7.83219570825395
6.8655268462982,7.814936510073873,22.221741174732156,7.57472306282603
6.943676211398939,7.737505635082144,22.297488405360415,7.31400966688363
7.021051267749761,7.64668097064109,22.370628502029252,7.050753192104638
7.097518077456172,7.543793813341072,22.441136033950297,6.7856085749126756
7.172956015589583,7.430109780954553,22.508992119699425,6.519225016030849
7.247257113399129,7.306846346203665,22.574184369859733,6.252273114191353
7.3203255768611655,7.1751859972867384,22.636707101001647,5.985462401768459
7.3920774368340325,7.036284983008429,22.696561725019333,5.7195500030268365
7.462440286664116,6.891277881971874,22.7537572250496,5.455341422404459
7.531353065483835,6.741278419959211,22.808310639273646,5.193684649914269
7.598765849683428,6.587377081462051,22.86024748577279,4.935458881181688
7.664639620498049,6.430636141979284,22.909602074584605,4.681559210670408
7.728945981917842,6.272082798224195,22.95641766669131,4.432878674877895
7.791666809900083,6.112701097065915,23.000746453440087,4.190288996277809
7.852793820870742,5.953423359642201,23.042649343402864,3.9546213041698457
7.912328054467165,5.795121762037415,23.082195556444564,3.7266479823999292
7.970279272087539,5.638600666944658,23.119462036268562,3.5070666177441767
8.026665278756985,5.484590203657443,23.154532702446005,3.2964868043874604
8.081511180793559,5.3337414722267225,23.187497570489878,3.0954203132042997
8.134848595515827,5.18662361079162,23.218451773621922,2.90427487770889
8.186714831623743,5.043722824261089,23.247494522399013,2.723351601555913
8.237152059866354,4.9054433394429875,23.274728038414572,2.5528457740171566
8.286206493260783,4.7721101367844065,23.300256496154745,2.392850704623341
8.333927594628628,4.6439732197175845,23.324185003200977,2.243364065073523
8.380367326825803,4.521213123237353,23.346618643851713,2.1042961581161164
8.425579458058177,4.403947334141454,23.367661605432875,1.9754795160498921
8.46961893139959,4.292237293569002,23.387416400593374,1.8566792578947595
8.512541304335281,4.186095673064341,23.40598319317232,1.7476036935029742
8.554402261065924,4.085493652186448,23.42345923010735,1.6479147433526613
8.595257197587788,3.990367972302721,23.439938377540877,1.557237833525217
8.635160877310815,3.9006275918584694,23.45551075587613,1.4751710171383965
8.6741671532294,3.816159818381654,23.470262466047515,1.4012931592652182
8.712328751413215,3.7368358383367637,23.484275397640168,1.3351710974735516
8.749697109796584,3.6625156055330716,23.497627108614903,1.2763657521079592
8.786322265851915,3.5930520810919764,23.510390766135984,1.2244372086174078
8.822252786662835,3.528294842838281,23.522635138222157,1.1789488292246004
8.857535735091218,3.468093099874832,23.5344246265144,1.1394704744862676
8.892216666089967,3.412298159883903,23.545819331259263,1.10558092869823
8.926339647688806,3.3607654034101975,23.556875140546246,1.0768696286746824
