th1 (rad),w1 (rad/s),th2 (rad),w2 (rad/s),a1 (rad/s^2),a2 (rad/s^2)
2.9931384244509407,-1.5562939745316344,2.680091105631401,2.005933837183334,-0.6357473080558385,-3.0131293468832068
2.9775754847056244,-1.5626514476121929,2.7001504440032345,1.975802543714502,-0.8240190998071536,-2.7256959640050558
2.9619489702295025,-1.5708916386102645,2.7199084694403797,1.9485455840744514,-1.0328440457411576,-2.416911013214421
2.9462400538434,-1.581220079067676,2.7393939252811244,1.9243764739423073,-1.2601770632403932,-2.089334125095598
2.930427853052723,-1.59382184970008,2.7586376900205476,1.9034831326913513,-1.5034484725518844,-1.7463295883877639
2.9144896345557223,-1.6088563344255988,2.777672521347461,1.8860198368074736,-1.7595923122401205,-1.3920301873574954
2.8984010712114663,-1.626452257548,2.796532719715536,1.8720995349338987,-2.025095386314372,-1.0312717681394208
2.8821365486359865,-1.6467032114111437,2.815253715064875,1.8617868172525045,-2.2960675561943464,-0.6694976169914509
2.865669516521875,-1.669663886973087,2.8338715832374,1.85509184108259,-2.5683336010419042,-0.31263203694049846
2.848972877652144,-1.695347222983506,2.852422501648226,1.851965520713185,-2.837546548398276,0.03307685473019988
2.832019405422309,-1.7237226884674888,2.870942156855358,1.852296289260487,-3.0993214815339982,0.3612437783348393
2.814782178537634,-1.7547159032828288,2.8894651197479626,1.8559087270438355,-3.3493872735919394,0.6655588223543104
2.797235019504806,-1.788209776018748,2.908024207018401,1.8625643152673785,-3.583751438433186,0.940019047803536
2.7793529217446182,-1.82404729040308,2.9266498501710747,1.871964505745414,-3.7988705021005273,1.1791683850294779
2.7611124488405876,-1.8620359954240853,2.9453694952285288,1.8837561895957087,-3.9918154220103044,1.3783309368616858
2.7424920888863467,-1.9019541496441883,2.9642070571244856,1.8975394989643255,-4.160419269698017,1.533819495696453
2.7234725473899046,-1.9435583423411684,2.983182452114129,1.91287769392129,-4.303393399918676,1.6430996376064677
2.7040369639664927,-1.9865922763403552,3.002311229053342,1.9293086902973546,-4.420399300013662,1.7048910875114625
2.684171041203089,-2.0307962693404917,3.0216043159563153,1.9463576011724693,-4.51206655531513,1.719192591398389
2.663863078509684,-2.075916934893643,3.04106789196804,1.9635495270864531,-4.579952666174737,1.6872239875011221
2.6431039091607476,-2.12171646155539,3.0607033872389042,1.9804217669614643,-4.626447035280717,1.6112884480552045
2.6218867445451934,-2.1679809319081973,3.0805076049085187,1.9965346514420164,-4.654628116440049,1.4945672842520825
2.6002069352261117,-2.2145272130725977,3.100472951422939,2.011480324284537,-4.668088168774299,1.3408674226478479
2.5780616630953856,-2.261208094760341,3.1205877546657845,2.0248889985110154,-4.670743235095806,1.1543461771563728
2.5554495821477823,-2.307915527111299,3.1408366446508946,2.036432460282579,-4.666646347299461,0.9392385302326941
2.5323704268766694,-2.3545819905842937,3.1612009692537204,2.045824845584906,-4.659819701712265,0.6996090024863665
2.508824606970826,-2.4011801876014163,3.1816592177095693,2.0528209356097697,-4.654117352066885,0.4391443263496484
2.484812805094812,-2.447721361122085,3.202187427065667,2.0572123788732664,-4.653124853122001,0.16099597542045355
2.460335591483591,-2.494252609653305,3.2227595508544,2.058822338627471,-4.660097275153206,-0.13232542546678092
2.435393065387058,-2.540853582404837,3.2433477742406747,2.0574990843728034,-4.677932882132532,-0.43900756848684513
2.4099845295630096,-2.5876329112261622,3.2639227650844025,2.053109008687935,-4.709176949012553,-0.7579535084950315
2.384108200450748,-2.6347246807162876,3.284453855171282,2.0455294736029845,-4.756048756022678,-1.0887679772438428
2.357760953643585,-2.6822851682765143,3.3049091499073118,2.0346417938305463,-4.820484546210477,-1.4317229670414033
2.3309381019608195,-2.730490013738619,3.325255567845617,2.0203245641601324,-4.904189832241879,-1.7877116739799421
2.303633201823433,-2.779531912061038,3.3454588134872183,2.002447447420333,-5.0086955270127085,-2.15819825943815
2.275837882702823,-2.829618867331165,3.3654832879614216,1.9808654648259514,-5.135413635258151,-2.545168966924483
2.247541694029511,-2.8809730036837466,3.385291942609681,1.9554137751567064,-5.285689449844791,-2.9510882289147613
2.2187319639926737,-2.9338298981821946,3.404846080361248,1.9259028928675588,-5.460848205632221,-3.3788616965789116
2.1893936650108516,-2.988438380238517,3.4241051092899233,1.8921142759017697,-5.662234889166239,-3.831806697430669
2.1595092812084666,-3.0450607291301792,3.443026252048941,1.853796208927463,-5.891246370149334,-4.3136294675228415
2.129058673917165,-3.1039731928316727,3.4615642141382157,1.8106599142522346,-6.149355227889667,-4.828407563924522
2.098018941988848,-3.1654667451105696,3.479670813280738,1.7623758386129893,-6.438124624159899,-5.380575064879159
2.0663642745377424,-3.2298479913521687,3.4972945716668677,1.7085700879641976,-6.759213357507026,-5.97490742848278
2.0340657946242207,-3.297440124927239,3.51438027254651,1.6488210136793697,-7.114369854844314,-6.616502130550105
2.0010913933749483,-3.3685838234756824,3.5308684826833034,1.5826559923738688,-7.5054133423226075,-7.310750375852056
1.9674055551401914,-3.4436379568989084,3.546695042607042,1.5095484886153483,-7.934199816312589,-8.063294230027585
1.9329691755712024,-3.522979955062034,3.5617905274931956,1.4289155463150724,-8.402569739033568,-8.879962433657633
1.897739376020582,-3.60700565245237,3.576079682956346,1.3401159219784962,-8.912273657759142,-9.766676952280113
1.8616693194960583,-3.6961283890299614,3.589480842176131,1.242449152455695,-9.464871262665897,-10.72932105402888
1.8247080356057588,-3.7907771016566203,3.601905333700688,1.1351559419154063,-10.061598867006175,-11.77355852897464
1.7868002645891925,-3.891393090326682,3.613256893119842,1.0174203566256599,-10.70320008148002,-12.904592808383383
1.7478863336859256,-3.998425091141482,3.6234310966860983,0.888374428541826,-11.38971480289187,-14.12685457471315
1.7079020827745108,-4.112322239170401,3.6323148409715165,0.7471058827946946,-12.120222872166316,-15.443607499975451
1.6667788603828069,-4.233524467892064,3.639785899799463,0.59266980779494,-12.892541292750266,-16.856464712304184
1.6244436157038862,-4.362449880819566,3.6457125978774125,0.4241051606718982,-13.70287821540883,-18.36481432852185
1.5808191168956904,-4.4994786629736545,3.6499536494841314,0.24045701738667968,-14.545453465155811,-19.9651618447501
1.535824330265954,-4.644933197625212,3.652358219657998,0.04080539893917867,-15.412104553691082,-21.650411189092754
1.4893749982897018,-4.799054243162123,3.65276627364739,-0.17569871295174888,-16.29190888419156,-23.40912523387081
1.4413844558580806,-4.961973332004039,3.6510092865178723,-0.40978996529045697,-17.170866570549506,-25.22483006872279
1.3917647225380403,-5.133681997709534,3.646911386864968,-0.6620382659776849,-18.031702329451424,-27.07545338152298
1.340427902560945,-5.313999021004048,3.640291004205191,-0.9327927997929146,-18.85385635225916,-28.933011818891536
1.2872879123509045,-5.50253758452664,3.6309630762072618,-1.22212291798183,-19.61373868349905,-30.76367872544672
1.232262536505638,-5.698674971361631,3.6187418470274433,-1.5297597052362972,-20.28531428568339,-32.52836366398609
1.1752757867920218,-5.901528114218465,3.6034442499750803,-1.8550433418761583,-20.841061782843337,-34.183909511270684
1.1162605056498371,-6.109938732046898,3.5848938165563187,-2.196882436988865,-21.253305184222537,-35.684954916163676
1.055161118329368,-6.322471783889124,3.56292499218643,-2.5537319861505017,-21.49585662409684,-36.98641889894515
0.9919364004904768,-6.537430350130092,3.537387672324925,-2.923596175139953,-21.545837760574425,-38.046449688901184
0.9265620969891759,-6.752888727735836,3.508151710573525,-3.3040606720289647,-21.38548307862823,-38.82956236160359
0.8590332097118175,-6.966743558522118,3.4751111038532354,-3.6923562956450007,-21.00368897147754,-39.30959906158745
0.7893657741265964,-7.176780448236893,3.4381875408967852,-4.0854522862608755,-20.397075262473283,-39.47211218036916
0.7175979696442274,-7.380751200861626,3.3973330180341765,-4.480173408064567,-19.570378818341904,-39.315815203635495
0.6437904576356112,-7.576454989045045,3.352531283953531,-4.8733315601009215,-18.536095672047946,-38.85286813057319
0.5680259077451607,-7.761815945765524,3.3037979683525216,-5.261860241406653,-17.313407469761646,-38.107940512729336
0.49040774828750544,-7.93495002046314,3.251179365938455,-5.6429396465339465,-15.926540287260853,-37.11618333125829
0.41105824808287406,-8.094215423335749,3.194749969473116,-6.01410147984653,-14.402780819639387,-35.92039510775953
0.33011609384951657,-8.238243231532143,3.1346089546746505,-6.373305430924125,-12.770400134970894,-34.56775359718576
0.24773366153419513,-8.365947232881853,3.0708759003654094,-6.718982966895982,-11.056708617208827,-33.106490301839365
0.16407418920537659,-8.47651431905394,3.0036860706964497,-7.050047869914376,-9.28640199826252,-31.582822475260073
0.07930904601483718,-8.569378339036566,2.9331855919973058,-7.365876094666977,-7.480279592331232,-30.038353667501106
-0.006384737375528485,-8.64418113495988,2.859526831050636,-7.666259631341988,-5.654343304665779,-28.50804087970556
-0.09282654872512729,-8.700724568006537,2.7828642347372163,-7.951340040139043,-3.8192342763349316,-27.018729987472703
-0.17983379440519265,-8.738916910769886,2.7033508343358257,-8.22152734001377,-1.9799390344787862,-25.588196294440216
-0.26722296351289154,-8.758716301114674,2.621135560935688,-8.477409302958172,-0.13569735740107333,-24.224597958333668
-0.3548101265240383,-8.760073274688684,2.536361467906106,-8.719655282541508,1.7199358464823222,-22.92625289722642
-0.44241085927092516,-8.74287391622386,2.449164915080691,-8.948917811513772,3.5988892853415866,-21.681677261431872
-0.5298395984331637,-8.706885023370445,2.359675736965553,-9.16573458412809,5.518209372822287,-20.46986778168652
-0.6169084486668682,-8.651702929642221,2.268018391124272,-9.370433261944955,7.49946260643751,-19.26086439659023
-0.7034254779632905,-8.576708303577846,2.1743140585048226,-9.563041905910858,9.567800296101074,-18.016687349171775
-0.7891925609990689,-8.481030300616835,2.078683639445714,-9.743208779402575,11.750549762746504,-16.692797305784474
-0.8740028640052372,-8.36352480298937,1.9812515516516882,-9.91013675246042,14.075184419096209,-15.240267485036224
-0.9576381120351309,-8.222772958798407,1.882150184127084,-10.062539427310783,16.56654557389883,-13.608867028488183
-1.039865841623115,-8.057107503059418,1.781524789853976,-10.198628097595666,19.24325960277095,-11.75121196159762
-1.1204369166537091,-7.864674907031709,1.6795385088780195,-10.316140217211641,22.1134342048073,-9.628017105545592
-1.1990836657240262,-7.6435405649836365,1.5763771067059031,-10.412420388267098,25.169937530234577,-7.214256925769353
-1.2755190713738627,-7.391841189681291,1.472252902823232,-10.48456295752479,28.385851943820818,-4.505714403749982
-1.3494374832706755,-7.107982670243082,1.3674072732479843,-10.52962010156229,31.710997978250376,-1.5250065982582195
-1.4205173099731063,-6.790872690460579,1.2621110722323614,-10.544870167544873,35.07064103942058,1.6741731410472853
-1.488426036877712,-6.440166280066373,1.1566623705569126,-10.5281284361344,38.36748229776706,5.006002356289617
-1.5528276996783759,-6.056491457088702,1.0513810861955686,-10.478068412571504,41.48766388278069,8.355841018777538
-1.613392614249263,-5.641614818260895,0.9466004020698535,-10.39451000238373,44.310745954031304,11.588375048754793
-1.6698087624318718,-5.198507358720582,0.8426553020460162,-10.278626251896181,46.72256992502693,14.559953297406341
-1.7217938360190777,-4.731281659470313,0.7398690395270544,-10.133026718922117,48.62892659542055,17.133274103042474
-1.7691066526137809,-4.244992393516108,0.6385387723378332,-9.961693977891693,49.9674080303746,19.1917179764405
-1.8115565765489419,-3.7453183132123615,0.5389218325589162,-9.769776798127289,50.71503829370693,20.650500495463803
-1.8490097596810655,-3.238167930275292,0.44122406457764335,-9.563271793172651,50.89025670937657,21.46255090910711
-1.8813914389838184,-2.7292653631815265,0.34559134664591684,-9.34864628408158,50.54923705756661,21.618356922339007
-1.9086840926156337,-2.2237729926058605,0.25210488380510104,-9.13246271485819,49.777851469015125,21.140452240245697
-1.9309218225416922,-1.7259944779157093,0.16078025665651913,-8.921058192455734,48.68138694267352,20.074261564809355
-1.9481817673208492,-1.239180608488974,0.0715696747319618,-8.72031557680764,47.3742241649866,18.47739118531151
-1.960573573405739,-0.765438366839108,-0.015633481036114602,-8.535541664954524,45.97121756117344,16.40919891605624
-1.9682279570741301,-0.30572619122737366,-0.10098889768565984,-8.371449675793961,44.58176722182085,13.921842129672953
-1.9712852189864039,0.14009148099083485,-0.18470339444359946,-8.232231254497233,43.306842844867795,11.053283257729538
-1.9698843041764955,0.5731599094395128,-0.26702570698857175,-8.121698421919938,42.23868874391752,7.822149822759156
-1.9641527050821004,0.995546796878688,-0.3482426912077711,-8.043476923692346,41.46264767585706,4.224009268981206
-1.9541972371133136,1.4101732736372585,-0.42867746044469457,-8.001236831002533,41.06041743321139,0.22855961102023825
-1.940095504376941,1.8207774479693724,-0.5086898287547199,-7.99895123489233,41.11394508936546,-4.222507686517877
-1.9218877298972472,2.231916898863027,-0.5886793411036432,-8.041176311757509,41.708823825493894,-9.216485182665023
-1.899568560908617,2.649005137117966,-0.6690911042212182,-8.13334116358416,42.93504128944169,-14.867287892566083
-1.8730785095374374,3.078355550012383,-0.7504245158570598,-8.28201404250982,44.88030909461419,-21.303702811202978
-1.8422949540373135,3.527158640958525,-0.833244656282158,-8.49505107062185,47.60496382789866,-28.633353509962998
-1.8070233676277283,4.003208279237511,-0.9181951669883766,-8.78138460572148,51.07343108773295,-36.84782017321844
-1.7669912848353533,4.513942590114841,-1.0060090130455914,-9.149862807453664,54.98878035876558,-45.594275290566166
-1.721851858934205,5.063830393702497,-1.097507641120128,-9.605805560359325,58.43273718901561,-53.676124553658184
-1.6712135549971798,5.648157765592653,-1.1935656967237214,-10.142566805895907,59.210692427821336,-58.137741806374535
-1.6147319773412534,6.240264689870866,-1.2949913647826805,-10.723944223959652,53.14603835442263,-53.26273253997442
-1.5523293304425447,6.771725073415093,-1.402230807022277,-11.256571549359396,34.98953943505749,-31.792171250260505
-1.4846120797083937,7.121620467765667,-1.514796522515871,-11.574493261862001,4.1701628582192924,7.147020802297148
-1.413395875030737,7.16332209634786,-1.630541455134491,-11.50302305383903,-28.189438787099206,48.36503597270087
-1.3417626540672583,6.881427708476869,-1.7455716856728813,-11.019372694112022,-47.30446794396623,71.75705547735511
-1.2729483769824896,6.408383029037206,-1.8557654126140015,-10.30180213933847,-50.959895190272064,74.55456020049554
-1.2088645466921175,5.8987840771344855,-1.9587834340073862,-9.556256537333514,-46.36586078275277,66.71553880724969
-1.1498767059207726,5.435125469306958,-2.0543459993807214,-8.889101149261018,-39.52012395587481,56.32570831329046
-1.095525451227703,5.03992422974821,-2.1432370108733316,-8.325844066128113,-32.98031871209382,46.717468549473494
-1.045126208930221,4.7101210426272715,-2.2264954515346127,-7.858669380633378,-27.43854773189854,38.709129524444734
-0.9980249985039482,4.435735565308286,-2.3050821453409465,-7.471578085388931,-22.913965706775755,32.243527303467346
-0.9536676428508654,4.206595908240528,-2.379797926194836,-7.149142812354257,-19.245586557067128,27.04925393106828
-0.9116016837684601,4.014140042669857,-2.4512893543183782,-6.878650273043574,-16.255089858827223,22.851473034624906
-0.8714602833417615,3.851589144081585,-2.520075857048814,-6.650135542697325,-13.79057025049715,19.42399027177782
-0.8329443919009456,3.7136834415766136,-2.5865772124757873,-6.455895639979547,-11.732346968213678,16.592571095176552
-0.7958075574851795,3.596359971894477,-2.6511361688755826,-6.289969929027781,-9.988405761379937,14.226025451974627
-0.7598439577662347,3.4964759142806776,-2.7140358681658605,-6.147709674508035,-8.488178604110994,12.226151933301258
-0.724879198623428,3.411594128239568,-2.775512964910941,-6.025448155175022,-7.177096637116999,10.519370956235223
-0.6907632573410323,3.339823161868398,-2.835767446462691,-5.92025444561267,-6.012373285695698,9.05035057371499
-0.6573650257223483,3.279699429011441,-2.894969990918818,-5.82975093987552,-4.959921151316551,7.777252834397416
-0.6245680314322339,3.2301002174982756,-2.953267500317573,-5.751978411531546,-3.9922115301123413,6.668116281333736
-0.5922670292572512,3.190178102197152,-3.0107872844328885,-5.685297248718209,-3.0869246273699735,5.697927085134309
-0.5603652482352797,3.1593088559234523,-3.0676402569200705,-5.628317977866866,-2.2262980252744993,4.846000993982892
-0.5287721596760452,3.137045875670707,-3.123923436698739,-5.579857967927037,-1.3971081032124992,4.093395539906667
-0.4974017009193381,3.123074794638582,-3.179722016378009,-5.53892401252797,-0.5911705470912676,3.420241941636582
-0.4661709529729523,3.1171630891676694,-3.2351112565032887,-5.504721593111604,0.19391747570764598,2.8031873177072013
-0.4349993220812756,3.119102263924746,-3.290158472434405,-5.476689719934532,0.9543465360765117,2.2135743420108294
-0.4038082994420282,3.128645729285511,-3.34492536963375,-5.454553976514424,1.6807935494601969,1.6173943014570338
-0.37252184214917305,3.145453664780113,-3.3994709093988944,-5.438380033499853,2.3610278513626923,0.9780263771077747
-0.34106730550137193,3.16906394329374,-3.4538547097338927,-5.428599769728775,2.984525363551097,0.2618589549555701
-0.3093766660684345,3.198909196929251,-3.5081407074311803,-5.425981180179219,3.5479168221768,-0.5548676187890295
-0.277387574099142,3.2343883651510192,-3.5624005192329724,-5.43152985636711,4.059001879928576,-1.4811721599194319
-0.2450436904476318,3.274978383950305,-3.6167158177966434,-5.4463415779663045,4.5372671544050345,-2.511286888568072
-0.21229390660812875,3.3203510554943554,-3.6711792335763063,-5.471454446851985,5.010610313835767,-3.629898824431044
-0.1790903960531852,3.3704571586327132,-3.725893778044826,-5.507753435096296,5.510058674992561,-4.820237954063931
-0.14538582446685805,3.4255577453826387,-3.780971312395789,-5.555955814636936,6.065061059800516,-6.071497564285591
-0.11113024701303166,3.486208355980644,-3.836530870542158,-5.616670790279792,6.701068438463097,-7.383297708737035
-0.07626816345322522,3.553219040365275,-3.892697578444956,-5.690503767367162,7.4396235956146075,-8.767001968373368
-0.04073597304957247,3.627615276321421,-3.9496026161186277,-5.778173787050896,8.300182631166773,-10.245103256013588
-0.00445982028635826,3.7106171026330887,-4.007384353989137,-5.8806248196110324,9.302718777785568,-11.850163155108397
0.03264635073997263,3.8036442904109444,-4.066190602185247,-5.999126451162116,10.470492298518737,-13.624376708380012
0.07068279364408207,3.9083492133961317,-4.126181866696868,-6.135370218245916,11.832796536313815,-15.62032004525247
0.1097662857780434,4.02667717875927,-4.187535568879327,-6.291573418698441,13.427796827840181,-17.90311604873571
0.1500330575656361,4.160955147037671,-4.250451303066312,-6.470604579185798,15.305736283643617,-20.55415044298435
0.1916426090360128,4.314012509874107,-4.315157348858169,-6.676146083615642,17.532824660449254,-23.676489804099038
0.23478273413475387,4.4893407564786,-4.381918809694326,-6.912910981656632,20.196052765847526,-27.402144132405073
0.27967614169953986,4.691301284137076,-4.451047919510892,-7.186932422980682,23.408860439243895,-31.901022435329203
0.32658915454091064,4.925389888529515,-4.522917243740699,-7.505942647333974,27.31661260337538,-37.39024466340547
0.3758430534262058,5.198556014563269,-4.597976670214039,-7.8798450939680285,32.098036711472155,-44.13878850102054
0.42782861357183843,5.51953638167799,-4.676775121153719,-8.321232978978234,37.9509913543421,-52.4519117596493
