th1 (rad),w1 (rad/s),th2 (rad),w2 (rad/s)
5.482721408291831,1.2407797636792883,3.069874049106475,-1.018655542654634
5.495129205928624,1.3351112645318608,3.0596874936799283,-0.9450533630612056
5.508480318573943,1.4307183493727693,3.0502369600493164,-0.8687600301277304
5.52278750206767,1.527544741272544,3.041549359748039,-0.7896908716680577
5.538062949480396,1.6255161223322792,3.0336524510313585,-0.7077904784115688
5.5543181107037185,1.7245371401825607,3.0265745462472426,-0.6230375056429901
5.571563482105544,1.8244883844575441,3.0203441711908128,-0.5354496634793585
5.58980836595012,1.9252234177954828,3.0149896745560194,-0.4450887781742162
5.609060600128075,2.0265659642806484,3.010538786774277,-0.35206577371341163
5.629326259770881,2.128307375366499,3.007018129037143,-0.25654538998490206
5.650609333524546,2.230204507500656,3.004452675137294,-0.15875042356618807
5.672911378599553,2.3319781549562877,3.0028651709016323,-0.0589652528265594
5.696231160149115,2.4333121837209437,3.0022755183733665,0.04246160591224339
5.7205642819863245,2.5338535058041356,3.002700134432489,0.14511616644459768
5.745902817044366,2.6332130165317236,3.004151296096935,0.24851910625435542
5.772234947209683,2.730967589577316,3.006636487159479,0.3521275746144093
5.799544623105456,2.826663185954684,3.010157762905623,0.4553388329828909
5.827811254965003,2.9198190855178496,3.014711151235452,0.5574958163419532
5.857009445820182,3.00993319553788,3.0202861093988713,0.6578946203695241
5.887108777775561,3.0964883346430856,3.0268650556025665,0.7557938262614629
5.9180736611219915,3.178959336594925,3.034422993865181,0.8504254796244711
5.949863254487941,3.2568207720154727,3.042927248661426,0.9410074500835834
5.982431462208095,3.3295550518155306,3.0523373231622615,1.0267568220073975
6.01572701272625,3.396660657091523,3.0626048913823354,1.1069039108553917
6.049693619297166,3.45766023837715,3.073673930490889,1.1807064688077076
6.084270221680938,3.5121083420795087,3.0854809951789663,1.2474636394752787
6.119391305101733,3.5595985514541946,3.0979556315737193,1.306529243489385
6.154987290616274,3.599769869699316,3.111020924008613,1.3573240207071529
6.190984989313267,3.6323122187555503,3.1245941642156847,1.3993465145889432
6.227308111500823,3.6569709739751786,3.138587629361574,1.432182352818246
6.263877821240574,3.67355049721299,3.1529094528897565,1.4555117482391184
6.300613326212704,3.6819166654330866,3.1674645703721476,1.4691151094861459
6.337432492867035,3.681998416464969,3.182155721467009,1.4728767068729438
6.374252477031685,3.6737883475976907,3.1968844885357384,1.466786383995404
6.410990360507662,3.657342407369087,3.2115523523756924,1.4509393391528338
6.4475637845813525,3.632778718564079,3.2260617457672205,1.4255340250896253
6.483891571766994,3.600275564294836,3.2403170860181167,1.3908682340699665
6.519894327409942,3.560068562633238,3.2542257683588165,1.347333451906137
6.555495013036274,3.512447051946312,3.2676991028778777,1.295407583109936
6.590619483555737,3.4577497115317803,3.280653178708977,1.2356461728120953
6.6251969806710544,3.396359452017004,3.293009640437098,1.1686722810637924
6.659160575191224,3.3286976276553966,3.304696363247736,1.095165201409586
6.692447551467779,3.2552176471674117,3.315648015261832,1.0158482561898283
6.724999727939453,3.1763980889145103,3.3258064978237303,0.9314759422733857
6.756763708828598,3.092735456767807,3.335121257246464,0.8428207380968789
6.787691063396276,3.0047367412786876,3.343549464627433,0.7506599108245252
6.817738430809063,2.9129119728718433,3.3510560637356783,0.6557626763474451
6.846867550537782,2.8177669664580227,3.3576136904991527,0.5588780610784637
6.875045220202362,2.7197964577887133,3.3632024711099375,0.46072379122991
6.902243184780249,2.619477820067253,3.3678097090222368,0.36197649281481903
6.928437962980921,2.5172655252897504,3.3714294739503847,0.2632634265103919
6.953610618233819,2.4135864804119267,3.3740621082154885,0.16515591017530584
6.977746483037938,2.308836326729924,3.3757136673172417,0.06816450391575903
7.000834846305238,2.20337674549689,3.3763953123563994,-0.027264045635908313
7.022868613760207,2.097533767605427,3.3761226719000406,-0.12074817779736044
7.043843951436261,1.9915970436568857,3.374915190122067,-0.21197134510724414
7.06375992187283,1.8858199957108595,3.3727954766709947,-0.30068048144884374
7.082618121829938,1.7804207453151288,3.369788671856506,-0.38668332923899007
7.10042232928309,1.6755836948913931,3.3659218385641165,-0.4698448600350415
7.117178166232003,1.5714616310824974,3.361223389963766,-0.5500830243017274
7.132892782542828,1.4681782183734076,3.355722559720749,-0.6273640550177989
7.147574564726562,1.365830757774894,3.349448919170571,-0.701697529196929
7.161232872304311,1.2644930969238002,3.342431943878602,-0.7731313643506506
7.173877803273548,1.1642185928742328,3.3347006302350954,-0.841746896390885
7.18551998920229,1.0650430455224165,3.3262831612711867,-0.9076541540264955
7.1961704196575145,0.9669875366585948,3.317206619730922,-0.970987414397795
7.2058402950241005,0.8700611260079986,3.3074967455869437,-1.0319010969891085
7.2145409062841805,0.7742633705584845,3.2971777346170525,-1.0905660286899728
7.222283539989766,0.6795866465141464,3.286272074330153,-1.147166092693481
7.2290794064549075,0.5860182641468747,3.2748004134032183,-1.2018952578006503
7.234939589096376,0.49354237461809186,3.2627814608252117,-1.2549549724417648
7.239875012842557,0.4021416746241996,3.2502319111007942,-1.3065518989486187
7.243896429588799,0.31179891968249335,3.237166392111308,-1.3568959578359274
7.247014418785624,0.22249826026644132,3.223597432532949,-1.4061986485613256
7.249239401388288,0.13422641708188376,3.2095354460473358,-1.4546716119278182
7.250581665559107,0.04697371280255895,3.1949887299280575,-1.5025253995079277
7.251051402687133,-0.039265022214235404,3.1799634759329782,-1.5499684168010615
7.25065875246499,-0.12448965313201703,3.164463791764968,-1.597206008946304
7.24941385593367,-0.2086940365364225,3.148491731675505,-1.644439660429196
7.247326915568306,-0.29186539400827066,3.132047335071213,-1.6918662831317814
7.244408261628223,-0.37398374975853166,3.115128672239895,-1.7396775701236618
7.240668424130638,-0.4550214202711369,3.0977318965386584,-1.7880593956678592
7.236118209927926,-0.5349425455416336,3.07985130258198,-1.8371912449474161
7.2307687844725095,-0.6137026531921443,3.0614793901325057,-1.8872456599660081
7.224631757940588,-0.6912482484641794,3.042606933532846,-1.9383876909215016
7.217719275455947,-0.7675164248290819,3.023223056623631,-1.9907743450963025
7.210044111207656,-0.8424344917065842,3.003315313172668,-2.0445540279662406
7.20161976629059,-0.9159196175441567,2.9828697728930056,-2.099865973822823
7.1924605701151485,-0.9878784882835593,2.9618711131547775,-2.1568396657590174
7.182581785232313,-1.0582069830248237,2.9403027164971873,-2.2155942474150914
7.171999715402064,-1.1267898704866508,2.9181467740230365,-2.2762379314463175
7.160731816697198,-1.193500531645007,2.8953843947085733,-2.3388674122829545
7.148796811380748,-1.2582007156899775,2.8719957205857436,-2.403567293423699
7.136214804223848,-1.3207403381465996,2.847960047651507,-2.4704095422476233
7.123007400842382,-1.3809573316192132,2.8232559522290304,-2.539452988147515
7.10919782752619,-1.4386775610888822,2.7978614223475553,-2.610742882668465
7.094811051915301,-1.4937148169536938,2.771753993520871,-2.6843105432546728
7.0798739037457645,-1.5458708999714181,2.744910888088324,-2.7601731051244194
7.064415194746051,-1.5949358128469795,2.71730915703708,-2.8383334086509855
7.048465836617581,-1.6406880732923876,2.68892582295057,-2.9187800523518956
7.032058955884657,-1.682895162849584,2.6597380224270513,-3.001487644089448
7.0152300042561615,-1.721314124471432,2.6297231459861568,-3.086417285256551
6.998016863011447,-1.7556923196603542,2.5988589731335914,-3.1735173244467174
6.9804599398148435,-1.7857683527245165,2.5671237998891243,-3.262724418263724
6.962602256287599,-1.8112731652916283,2.534496555706487,-3.3539649373960887
6.944489524634682,-1.8319312985010037,2.500956906332526,-3.447156755760009
6.926170211649672,-1.8474623131850432,2.466485338774926,-3.542211459326667
6.9076955885178215,-1.8575823498035553,2.4310632241816594,-3.6390370091676476
6.889119765019786,-1.862005799916718,2.394672854089983,-3.7375408903142104
6.870499707020619,-1.8604470496539105,2.357297445186841,-3.83763377435939
6.851895236524079,-1.852622243118239,2.318921107443247,-3.9392337195732763
6.833369014092897,-1.8382510002151935,2.2795287702475147,-4.042270928016736
6.814986504090745,-1.817058009361589,2.239106060967347,-4.146693075233585
6.796815923997129,-1.7887744013699114,2.1976391302150113,-4.252471225224825
6.77892817998343,-1.753138797061653,2.1551144179627633,-4.359606342337291
6.761396792012813,-1.7098979084830308,2.1115183545393905,-4.468136413296446
6.744297812927983,-1.6588065627192037,2.066836990406426,-4.578144197752453
6.727709747300791,-1.599627009101247,2.0210555484289014,-4.689765635141034
6.711713477209779,-1.532127366161622,1.9741578920774911,-4.803198949798602
6.696392203548163,-1.456079065507287,1.9261259025795052,-4.918714514836623
6.68183141289309,-1.3712531581000198,1.876938757431139,-5.036665556729972
6.66811888131209,-1.277415367961559,1.8265721018638392,-5.157499803140638
6.655344727632474,-1.174319815419938,1.7749971038324328,-5.2817721885673174
6.643601529478274,-1.0617013978467744,1.7221793819467597,-5.410158721727868
6.632984515499806,-0.9392669300898002,1.668077794729481,-5.543471559389588
6.623591846198908,-0.8066853441437499,1.612643079135585,-5.682675177891589
6.61552499275747,-0.663577588845331,1.5558163273566692,-5.828903205109087
6.6088892168690165,-0.5095074618287393,1.4975272953055783,-5.983474830112785
6.603794142250729,-0.34397563264590025,1.4376925470044504,-6.147908496275273
6.60035438592427,-0.1664208978155626,1.3762134620416977,-6.323928371392816
6.598690176946114,0.02376420710070945,1.3129741783277695,-6.513455124143511
6.598927819017121,0.22719101004857312,1.2478396270863343,-6.718565546644021
6.601199729117607,0.44438409690640657,1.180653971619894,-6.941393473590133
6.605643570086672,0.6756062197495227,1.1112400368839928,-7.183924141905729
6.612399632284167,0.9205391402455894,1.0394007954649354,-7.44760174811407
6.621605023686623,1.1777280106244594,0.9649247779837946,-7.732623378508146
6.633382303792867,1.4436618546665836,0.8875985441987131,-8.03674055943702
6.647818922339534,1.7113599867540448,0.8072311386043429,-8.353378041777184
6.664932522207074,1.9684650748540353,0.7236973581865711,-8.66904533418701
6.6846171729556145,2.195318915834358,0.637006904844701,-8.960649931672643
6.7065703621139585,2.3645397593308455,0.5474004055279746,-9.19473520543171
6.730215759707267,2.444839766459277,0.45545305347365755,-9.332340488961481
6.7546641573718595,2.411057826210201,0.36212964858404273,-9.342170364638669
6.778774735633961,2.2568295285118407,0.26870794493765604,-9.217237317705495
6.80134303091908,1.9997154472013263,0.17653557176060108,-8.981273199731259
6.821340185391093,1.6727017953284662,0.0867228397632885,-8.676970802843634
6.8380672033443775,1.3095542729769036,-4.6868265147839705e-05,-8.346484290116278
6.851162746074147,0.93542355842632,-0.08351171116631062,-8.01945611197801
6.86051698165841,0.565367249494124,-0.16370627228609075,-7.7117136153809405
6.866170654153351,0.2069080435344824,-0.24082340843990016,-7.429124386134047
6.8682397345886965,-0.13693575934817565,-0.31511465230124064,-7.1718187207471376
6.866870376995215,-0.4654625964174635,-0.386832839508712,-6.937127076990156
6.862215751031041,-0.7789913969299889,-0.4562041102786136,-6.721264364169451
6.854425837061741,-1.0781744019722908,-0.5234167539203081,-6.520192144781545
6.843644093042018,-1.3636643865050102,-0.5886186753681235,-6.330021337182448
6.830007449176968,-1.6359727469400096,-0.651918888739948,-6.147180129458374
6.813647721707568,-1.8954259540853784,-0.7133906900345317,-5.96847008670496
6.794693462166714,-2.1421710153647116,-0.7730753909015813,-5.791073335034698
6.773271752013067,-2.3762043193452818,-0.8309861242519283,-5.612541292269801
6.749509708819614,-2.597410664882531,-0.8871115371746263,-5.4307787022843215
6.723535602170789,-2.805605602512505,-0.9414193241974695,-5.244028352472678
6.6954795461456635,-3.0005773690509625,-0.9938596077221963,-5.050857779679415
6.665473772455154,-3.1821262487773923,-1.0443681855189904,-4.850147399848087
6.63365250996738,-3.35009996883978,-1.0928696595174712,-4.6410787612832785
6.600151510278982,-3.5044241571549097,-1.139280447130304,-4.423121478252679
6.5651072687074326,-3.6451271719969123,-1.1835116619128307,-4.1960175712912235
6.528655996987464,-3.7723588551937617,-1.225471837625743,-3.9597622727854613
6.490932408435526,-3.8864030062851778,-1.2650694603535977,-3.7145807637569956
6.452068378372674,-3.9876836313727257,-1.3022152679911676,-3.460900733617381
6.412191542058947,-4.076765279086916,-1.3368242753273414,-3.1993210586868344
6.371423889268078,-4.154348020970715,-1.3688174859142097,-2.930577247304147
6.3298804090583705,-4.221257846707418,-1.3981232583872512,-2.6555045773798303
6.287667830591296,-4.2784334097751255,-1.4246783041610493,-2.375000042039378
6.244883496493545,-4.3269101637662555,-1.4484283045814432,-2.0899843144936785
6.201614394855882,-4.367802965884761,-1.46932814772638,-1.801364946999934
6.157936365197035,-4.402288188850483,-1.4873417971963794,-1.5100019422322757
6.11391348330853,-4.4315862763878195,-1.5024418166187021,-1.216676699093508
6.069597620544652,-4.456945503789675,-1.5146085836096372,-0.9220651683925408
6.025028165506756,-4.4796274665980835,-1.5238292352935627,-0.6267158951277227
5.980231890840775,-4.500894516061413,-1.53009639424484,-0.3310335209704554
5.935222945680161,-4.521998979345903,-1.5334067294545446,-0.03526833203702079
5.890002955886702,-4.544173519048585,-1.5337594127749148,0.2604873613770706
5.8445612206962165,-4.568621348811548,-1.531154539161144,0.5562947339959641
5.7988750072081015,-4.596504141509378,-1.5255915918211844,0.8523536412728411
5.752909965793008,-4.628924205014215,-1.517068055408456,1.1489737472193566
5.706620723742866,-4.666895657246219,-1.5055783179362623,1.446525376605517
5.659951767170403,-4.711296647290302,-1.491113064170207,1.7453601841375719
5.6128388006975,-4.762790878291011,-1.4736594623288313,2.0456864451041454
5.565210891914591,-4.821701716935291,-1.4532025978777898,2.347376829278227
5.516993874745237,-4.887816674388568,-1.4297288295850075,2.649678880970282
5.468115708001352,-4.96009663268023,-1.4032320407753047,2.9507938188655567
5.418514741674549,-5.036269915250433,-1.3737241025866491,3.247297629847161
5.368152042522045,-5.112321360152205,-1.3412511262881774,3.5334211165125953
5.317028828920523,-5.181966483640188,-1.3059169151230514,3.8003183194604904
5.265209164084121,-5.236355767835651,-1.2679137319284466,4.035670468797559
5.212845606405764,-5.264460542537348,-1.227557027240471,4.224261226365612
5.160201000980391,-5.254679174832764,-1.185314414976815,4.35027689193217
5.107654209232063,-5.197812348646356,-1.1418116460574932,4.401528226013909
5.055676085745599,-5.090481888574689,-1.097796363797354,4.374270510896442
5.004771266859852,-4.937006158638724,-1.0540536586883895,4.275805948978858
4.955401205273465,-4.748194885969814,-1.011295599198601,4.122703339308369
4.907919256413767,-4.537693658551392,-0.9700685658055174,3.9355455914504067
4.862542319828253,-4.318183725225627,-0.9307131098910133,3.7334847180385546
4.819360482575997,-4.099215349813772,-0.8933782627106277,3.5311303027541703
4.778368329077859,-3.8868326150996966,-0.858066959683086,3.3379966486326738
4.739500002926862,-3.6842118247579805,-0.8246869931967593,3.1594036952502194
4.702657884679282,-3.492559722127324,-0.7930929562442571,2.9977581308454724
4.6677322874580085,-3.3118857046343186,-0.7631153749358024,2.8536621970233766
4.634613430411665,-3.141546708374666,-0.7345787529655686,2.7267022191677044
4.6031979633279185,-2.980591180011606,-0.7073117307738915,2.6159517028205714
4.573392051527803,-2.8279601238496372,-0.6811522137456858,2.520269976243582
4.545112450289306,-2.6825968028058895,-0.65594951398325,2.4384691327325623
4.518286482261247,-2.543501696593333,-0.6315648226559243,2.3694012360147796
4.492851465295313,-2.4097561549040125,-0.6078708102957765,2.3119992675082175
4.468753903746273,-2.280528925155061,-0.5847508176206944,2.265292211451573
4.445948614494722,-2.1550738283358934,-0.5620978955061786,2.2284062807882634
4.424397876211363,-2.0327232775032065,-0.539813832698296,2.2005591697799898
4.404070643436331,-1.9128802295007625,-0.517808241000496,2.1810511898749922
4.384941841141323,-1.795009948891865,-0.4959977291017461,2.1692553853856844
4.366991741652405,-1.678632277439283,-0.4743051752478893,2.1646077181334817
4.350205418878012,-1.563314721820334,-0.45265909806655447,2.166597842365988
4.334572271659809,-1.4486664664321176,-0.4309931196428946,2.1747606776291315
4.320085606995487,-1.3343333113822178,-0.40924551286660327,2.188668819534488
4.306742273881666,-1.2199934843502827,-0.3873588246712584,2.2079257436049877
4.294542339038163,-1.1053542538468701,-0.3652795672352085,2.232159719284706
4.283488796499694,-0.9901492661592279,-0.34295797004236145,2.2610183388851497
4.273587303838101,-0.8741365308375221,-0.32034778665350994,2.294163567797743
4.264845938529726,-0.7570969853850884,-0.2974061509755325,2.3312672310036966
4.257274968675875,-0.6388335763625412,-0.27409347866549555,2.372006863024336
4.25088663291225,-0.5191708000559091,-0.2503734100352522,2.416061861957581
4.245694924911691,-0.3979546505170719,-0.2262127914156764,2.4631099020871563
4.24171537840652,-0.27505292586558205,-0.20158169239480483,2.5128235732063353
4.238964849147864,-0.15035584517256828,-0.17645345666274148,2.564867228013158
4.237461290696139,-0.023776928096773536,-0.1508047843826099,2.618894031570022
4.237223521415171,0.10474591212622344,-0.12461584406690969,2.674543218761305
4.238270980536433,0.23524911448502048,-0.09787041187929664,2.7314375767812833
4.240623471681284,0.3677421105312114,-0.07055603611148381,2.789181179733389
4.244300892786596,0.5022059190808112,-0.042664224314149915,2.847357411141178
4.249322951977404,0.638591759199854,-0.014190650202738134,2.905527317213588
4.2557088695694025,0.7768197490018707,0.014864622969397747,2.963228338675082
4.263477067059421,0.9167777603538854,0.04449690635614857,3.0199734714520114
4.27264484466296,1.058320500568827,0.07469664107066869,3.0752509061186797
4.283228049668648,1.2012688910471576,0.10544915013185549,3.1285241924608864
4.295240738579119,1.3454098092097926,0.13673439205646437,3.179232968682992
4.308694836671218,1.4904962536936635,0.1685267217432943,3.2267942847703686
4.3235997992081545,1.6362479836476589,0.20079466459099798,3.270604536720256
4.339962279044631,1.7823526713463018,0.23350070995820055,3.310042013503836
4.357785805758094,1.9284675938329252,0.26660113009323894,3.344470042795902
4.377070481696423,2.07422187484217,0.30004583052119793,3.3732407060795415
4.397812700444844,2.219219274045129,0.3337782375819933,3.3956990802717195
4.420004893185296,2.363041508105262,0.3677352283847105,3.4111879531209746
4.443635308266349,2.50525207855456,0.40184710791592027,3.419052954704518
4.468687829051895,2.6454005763492425,0.4360376374629654,3.418648048340248
4.495141834815387,2.7830274329880473,0.4702241179463679,3.409341331328356
4.522972109145267,2.917669093478073,0.5043175312596515,3.390521108350583
4.552148800080048,3.0488635965741615,0.5382227423431574,3.3616022161113457
4.58263743604579,3.1761565609880935,0.5718387645042708,3.322032593701819
4.614399001655671,3.299107590067349,0.605059090441289,3.2713001048859875
4.647390077556344,3.4172971183288903,0.6377720914901489,3.2089396209252863
4.681563048739633,3.5303337271948343,0.6698614876994018,3.134540360289748
4.716866386011581,3.637861950226391,0.7012068913022993,3.0477534497488485
4.753245005513845,3.73957056655524,0.7316844257997878,2.9482996164078914
4.790640711179398,3.8352013428378604,0.7611674219638667,2.8359768412064703
4.828992724607777,3.924558128778496,0.7895271903759313,2.710667703605782
