th1 (rad),w1 (rad/s),th2 (rad),w2 (rad/s),a1 (rad/s^2),a2 (rad/s^2)
0.4830168438086727,-1.0727527399158794,4.496294437703511,0.8366503431510973,-1.8363626548136036,9.271143335996955
0.47228931640951394,-1.0911163664640153,4.504660941135022,0.9293617765110669,-1.8548031938179885,9.348721773506162
0.46137815274487376,-1.1096643984021952,4.513954558900132,1.0228489942461285,-1.888007439182031,9.42330162698801
0.4502815087608518,-1.1285444727940155,4.524183048842594,1.1170820105160086,-1.936601416643869,9.495476373511059
0.4389960640329117,-1.1479104869604542,4.5353538689477535,1.212036774251119,-2.0011724536016176,9.566025925822752
0.4275169591633072,-1.1679222114964702,4.547474236690265,1.3076970335093465,-2.082273562323983,9.635926678588143
0.4158377370483425,-1.18874494711971,4.560551207025358,1.404056300295228,-2.1804310358576555,9.706360452673161
0.4039502875771454,-1.2105492574782866,4.57459177002831,1.5011199048219597,-2.2961554411188074,9.778722724022428
0.3918447950023625,-1.2335108118894746,4.58960296907653,1.598907132062184,-2.429956149850542,9.854630685028853
0.37950968688346776,-1.25781037338798,4.605592040397152,1.6974534389124725,-2.582359517990974,9.935931846763173
0.36693158314958796,-1.2836339685678897,4.622566574786276,1.7968127573801043,-2.753930812976524,10.024714047175463
0.3540952434639091,-1.311173276697655,4.640534702360077,1.897059897851859,-2.9453000011949877,10.123317882205749
0.34098351069693256,-1.3406262767096049,4.659505301338596,1.9982930766739164,-3.157191547546657,10.23435272418379
0.3275772479298365,-1.3721981921850714,4.679488232105335,2.1006366039157545,-3.3904584475443165,10.360717636927271
0.3138552660079858,-1.4061027766605145,4.700494598144493,2.204243780285027,-3.646120809035171,10.505628642163956
0.29979423824138063,-1.4425639847508662,4.722537035947343,2.3093000667066668,-3.9254094217940603,10.67265393901069
0.28536859839387196,-1.481818078968807,4.7456300366144095,2.4160266060967737,-4.2298148905500055,10.865758825400299
0.2705504176041839,-1.524116227874307,4.769790302675378,2.5246841943507765,-4.561143044533874,11.089362207701473
0.25530925532544085,-1.5697276583196458,4.7950371446188855,2.635577816427791,-4.921577445721376,11.34840668691061
0.23961197874224438,-1.6189434327768595,4.821392922783163,2.749061883296897,-5.31374984807136,11.648444222864732
0.2234225444144758,-1.672080931257573,4.848883541616132,2.8655463255255444,-5.740819322741706,11.995739197517924
0.20670173510190004,-1.7294891244849901,4.877539004871387,2.9855037175007237,-6.206560304884419,12.397390131021101
0.18940684385705014,-1.7915547275338344,4.907394042046395,3.109477618810935,-6.715458766160476,12.86147000058331
0.1714912965817118,-1.8587093151954392,4.938488818234505,3.238092318816768,-7.272813601936524,13.39718244832156
0.1529042034297574,-1.9314374512148045,4.970869741422672,3.372064143299984,-7.884836318763113,14.015026035420055
0.13358982891760937,-2.010285814402436,5.004590382855672,3.5122144036541845,-8.558734773311032,14.726949152958573
0.11348697077358501,-2.095873162135546,5.039712526892214,3.65948389518377,-9.302753521010702,15.54646078788055
0.09252823915222955,-2.188900697345653,5.076307365844052,3.8149485030625754,-10.126119854781162,16.488630991028213
0.07063923217877302,-2.2901618958934646,5.114456850874678,3.9798348129728573,-11.038803120674462,17.569858933952705
0.047737613219838375,-2.4005499271002093,5.154255199004407,4.155533402312384,-12.050921990184277,18.80718728511939
0.02373211394883628,-2.521059147002052,5.19581053302753,4.343605275163578,-13.17150721967956,20.21676744646162
-0.0014784775211842405,-2.6527742191988475,5.239246585779166,4.545772949628194,-14.406108457444315,21.810778255472
-0.028006219713172714,-2.7968353037732907,5.284704315275448,4.763880732182915,-15.752365272991355,23.591589674210176
-0.05597457275090562,-2.9543589565032042,5.332343122597277,4.999796628925017,-17.19207015669836,25.54113583791105
-0.08551816231593767,-3.126279658070188,5.382341088886527,5.255207987304128,-18.677383216826072,27.60224020447359
-0.11678095889663956,-3.3130534902384485,5.434893168759568,5.531230389348863,-20.107848794483267,29.647193087277135
-0.14991149379902405,-3.5141319781832814,5.490205472653057,5.8277023202216345,-21.294531916308138,31.428336380562964
-0.18505281358085687,-3.7270772973463626,5.548482495855273,6.141985684027264,-21.910675602139072,32.509546693208094
-0.2223235865543205,-3.9461840533677535,5.609902352695546,6.467081150959345,-21.441589354788416,32.195801254852285
-0.261785427087998,-4.160599946915638,5.674573164205139,6.7890391635078675,-19.18130258947608,29.526253709400233
-0.3033914265571544,-4.352412972810399,5.742463555840217,7.08430170060187,-14.381012781221722,23.476278128396437
-0.3469155562852584,-4.496223100622616,5.813306572846236,7.319064481885834,-6.670631996928524,13.537058547916084
-0.39187778729148454,-4.562929420591901,5.886497217665094,7.4544350673649955,3.331851918824389,0.5547225558241243
-0.4375070814974035,-4.529610901403657,5.961041568338744,7.459982292923237,13.791286281973434,-12.958634892351894
-0.4828031905114401,-4.3916980385839235,6.035641391267976,7.330395943999718,22.442286996943228,-23.918568635356642
-0.5267201708972793,-4.167275168614491,6.108945350707973,7.091210257646151,27.91767859807847,-30.4976253940758
-0.5683929225834242,-3.8880983826337068,6.179857453284435,6.786234003705393,30.27172773104939,-32.825652967137124
-0.6072739064097613,-3.5853811053232127,6.2477197933214885,6.4579774740340214,30.40661924097205,-32.178665867129205
-0.6431277174629935,-3.2813149129134924,6.312299568061829,6.136190815362729,29.306364075567007,-29.920460889078605
-0.6759408665921284,-2.9882512721578225,6.373661476215457,5.836986206471943,27.67794876850203,-27.017891301049108
-0.7058233793137066,-2.7114717844728022,6.432031338280176,5.566807293461452,25.930056777442324,-24.021631351225594
-0.7329380971584347,-2.452171216698379,6.48769941121479,5.326590979949196,24.264615374483434,-21.198064690069273
-0.7574598093254186,-2.209525062953545,6.540965321014283,5.114610333048503,22.764753880559805,-18.652640888613263
-0.779555059954954,-1.9818775241479467,6.592111424344767,4.928083924162371,21.452465681173752,-16.409643318956267
-0.7993738351964335,-1.767352867336209,6.641392263586391,4.763987490972808,20.321062430426327,-14.456528777025476
-0.8170473638697956,-1.5641422430319458,6.689032138496119,4.619422203202554,19.352009944221464,-12.766589315472867
-0.832688786300115,-1.3706221435897312,6.735226360528144,4.491756310047825,18.523165429579173,-11.309806149088562
-0.8463950077360123,-1.1853904892939395,6.780143923628622,4.37865824855694,17.812557560992083,-10.057651490042344
-0.8582489126289516,-1.0072649136840186,6.823930506114191,4.278081733656516,17.199945584588587,-8.984914926449315
-0.8683215617657918,-0.8352654578381327,6.866711323450756,4.188232584392023,16.66731340220773,-8.070127929914836
-0.8766742163441731,-0.6685923238160554,6.9085936492946765,4.107531305092874,16.198880912900908,-7.29536930642114
-0.8833601395823336,-0.5066035146870462,6.949668962345605,4.034577612028663,15.78091951427729,-6.645831287155574
-0.888426174729204,-0.3487943195442733,6.9900147384658915,3.9681192991571073,15.40150905771025,-6.10932422917189
-0.8919141179246468,-0.19477922896717081,7.0296959314574625,3.9070260568653885,15.050298648222444,-5.675798537968426
-0.8938619102143185,-0.044276242484946354,7.068766192026116,3.8502680714857043,14.718296668755688,-5.336914513183789
-0.8943046726391679,0.10290672420261052,7.107268872740973,3.796898926353866,14.397697499053674,-5.08566854025763
-0.8932756053971418,0.24688369919314726,7.145237862004512,3.7460422409512897,14.081744059269067,-4.916074393013273
-0.8908067684052103,0.3877011397858379,7.182698284414025,3.696881497021157,13.76462171856714,-4.822894832034816
-0.886929757007352,0.5253473569715094,7.219667099384236,3.648652548700809,13.441377844665265,-4.801417901195063
-0.8816762834376369,0.6597611354181621,7.256153624871244,3.600638369688858,13.107861122829673,-4.847272706631645
-0.8750786720834554,0.7908397466464587,7.292160008568133,3.552165642622542,12.760675150103351,-4.956280209819217
-0.8671702746169908,0.9184464981474922,7.327681664994358,3.5026028405243497,12.397141429512331,-5.1243353044828295
-0.8579858096355159,1.0424179124426156,7.362707693399602,3.4513594874795213,12.015267617921713,-5.347317019017675
-0.8475616305110897,1.1625705886218327,7.397221288274397,3.3978863172893443,11.613717657873876,-5.621024048032795
-0.8359359246248713,1.2787077652005714,7.431200151447291,3.3416760768090166,11.191781213831524,-5.941132984351078
-0.8231488469728656,1.3906255773388867,7.464616912215381,3.282264746965506,10.749340610129423,-6.30317664292469
-0.8092425911994767,1.498118983440181,7.497439559685036,3.219232980536259,10.286834204278154,-6.702539801541968
-0.794261401365075,1.6009873254829625,7.529631889490399,3.1522075825208393,9.80521579541508,-7.134469593846641
-0.7782515281102453,1.6990394834371134,7.561153965315607,3.080862886582373,9.30591023384407,-7.594097736568081
-0.7612611332758742,1.792098585775554,7.591962594181431,3.004921909216692,8.790765837697418,-8.07647180131587
-0.7433401474181186,1.8800062441525283,7.6220118132735974,2.9241571912035336,8.262004518796779,-8.576592881038566
-0.7245400849765933,1.962626289340496,7.651253385185632,2.8383912623931478,7.722170665375566,-9.089457261550962
-0.7049138220831883,2.0398479959942515,7.679637297809564,2.747496689777638,7.174079831620848,-9.610100078366482
-0.6845153421232458,2.11158879431046,7.707112264707341,2.6513956889939734,6.620768163777266,-10.133639389336041
-0.6633994541801412,2.1777964759482327,7.73362622159728,2.550059295100613,6.065443282245133,-10.655319581654405
-0.6416214894206589,2.238450908770684,7.759126814548286,2.4435060992840687,5.5114370790763685,-11.170553507706426
-0.619236980332952,2.2935652795614474,7.783561875541126,2.3318005642070045,4.962160624038558,-11.674963157813695
-0.5963013275373376,2.343186885801833,7.806879881183196,2.2150509326288677,4.42106114137395,-12.164418985791766
-0.5728694586793193,2.3873974972155727,7.829030390509485,2.09340674277095,3.891580857856297,-12.635078174678622
-0.5489954837071636,2.4263133057941357,7.849964457937194,1.9670559610241638,3.3771174539983773,-13.083422151406733
-0.5247323506492222,2.4600844803341193,7.869635017547435,1.8362217395100964,2.880985883897922,-13.506293536012004
-0.500131505845881,2.4888943391730987,7.887997234942536,1.7011588041499763,2.4063814603262905,-13.900932467372863
-0.47524256245415,2.5129581537763617,7.905008822984036,1.5621494794762476,1.9563443117535353,-14.265011923631926
-0.45011298091638635,2.532521596893897,7.920630317778799,1.4194993602399284,1.5337255775059617,-14.596671302801083
-0.4247877649474474,2.5478588526689565,7.934825311381198,1.2735326472119175,1.1411559794431139,-14.89454720401395
-0.39930917642075786,2.5592704124633876,7.947560637853317,1.124587175171778,0.7810176543146824,-15.157800106858302
-0.373716472296124,2.5670805890065345,7.958806509605035,0.973009174103195,0.45542031391512156,-15.386135530600303
-0.3480456664060586,2.5716347921456855,7.968536601346067,0.8191478187971919,0.16618289138050615,-15.579818297356947
-0.3223293184846018,2.5732966210594905,7.9767280795340385,0.6633496358236224,-0.08517818613333944,-15.739678734744786
-0.2965963522740069,2.572444839198157,7.983361575892275,0.5059528484761745,-0.29745308954314453,-15.867110024826406
-0.2708719038820253,2.5694703083027255,7.988421104377037,0.34728174822791047,-0.46973427034093346,-15.964056408225762
-0.24517720079899805,2.564772965599316,7.991893921859315,0.18764118414565284,-0.6014032738650537,-16.03299254014706
-0.2195294711430049,2.5587589328606657,7.9937703337007715,0.02731125874418225,-0.6921085863042481,-16.07689491380388
-0.19394188181439823,2.551837846997623,7.994043446288213,-0.13345769039385655,-0.741734791569993,-16.09920685868447
-0.168423503344422,2.544420499081923,7.992708869384274,-0.29444975898070125,-0.7503636606975663,-16.103799132682703
-0.14297929835360276,2.536916862474947,7.989764371794467,-0.4554877503075283,-0.7182280842056639,-16.094928515258186
-0.11761012972885329,2.5297345816328907,7.985209494291392,-0.6164370354601102,-0.6456599640821661,-16.077197044473326
-0.09231278391252438,2.523277981992069,7.979045123936791,-0.7772090059048434,-0.5330332964131413,-16.05551461021968
-0.06708000409260369,2.517947649027938,7.971273033877742,-0.9377641520070402,-0.38070370207644433,-16.03506751854079
-0.04190052760232431,2.5141406120071736,7.961895392357672,-1.0981148271924481,-0.1889456206359887,-16.021295384918776
-0.016759121482252573,2.5122511558008136,7.950914244085747,-1.2583277810416358,0.042111692931807075,-16.019878304566628
0.008363390075755563,2.5126722727301316,7.9383309662753305,-1.4185265640873022,0.31254828412664576,-16.036735680182762
0.03349011280305688,2.515797755571398,7.924145700634457,-1.5788939208891297,0.6227166010192832,-16.07803733014459
0.05864809035877086,2.5220249215815906,7.908356761425566,-1.7396742941905756,0.973302208255946,-16.15022647230578
0.08386833957458677,2.53175794366415,7.89096001848366,-1.9011765589136334,1.3653801249384927,-16.260052720955894
0.10918591901122827,2.545411744913535,7.871948252894524,-2.063777086123192,1.8004635765829753,-16.41461106159747
0.13464003646036363,2.5634163806793646,7.851310482033292,-2.227923196739167,2.280539743879483,-16.62137939390192
0.16027420026715727,2.5862217781181593,7.829031250065901,-2.394136990678186,2.808083297240341,-16.888241850608612
0.18613641804833886,2.614302611090563,7.8050898801591195,-2.5630194091842724,3.3860321614485427,-17.223476387122478
0.2122794441592445,2.6481629327050484,7.779459686067277,-2.7352541730554973,4.017699505403907,-17.635670944694326
0.23876107348629497,2.6883399277590874,7.752107144336722,-2.9116108825024405,4.706578906285329,-18.133509357882428
0.26564447276388586,2.7354057168219406,7.722991035511697,-3.092945976081265,5.455972047866338,-18.725330601857813
0.2929985299321053,2.7899654373006038,7.692061575750884,-3.280199282099843,6.268324074241674,-19.41830441542936
0.3208981843051113,2.8526486780430207,7.659259582929885,-3.474382326254137,7.144081809656425,-20.21697010442937
0.3494246710855415,2.924089496139585,7.624515759667344,-3.6765520272984307,8.079782289722566,-21.120736162980368
0.37866556604693735,3.0048873190368104,7.587750239394359,-3.8877593889282345,9.064920211775487,-22.119717184926174
0.40871443923730544,3.0955365211545653,7.548872645505077,-4.1089565607774965,10.076928303321962,-23.187983508947017
0.43966980444885106,3.196305804187785,7.507783079897302,-4.340836395866967,11.073367438196971,-24.272961953740356
0.4716328624907289,3.3070394785697546,7.464374715938632,-4.5835660154043705,11.980310707789021,-25.27955366222049
0.5047032572764264,3.4268425856476448,7.4185390557845885,-4.836361552026576,12.676347050052186,-26.048119932676823
0.5389716831329029,3.553606056148167,7.3701754402643225,-5.096842751353344,12.973634114180001,-26.32822841344571
0.5745077436943845,3.683342397289967,7.319207012750789,-5.360125035487801,12.602859096117934,-25.757545134186152
0.6113411676672842,3.809370988251146,7.265605762395912,-5.617700486829663,11.219881409039353,-23.870391995270143
0.6494348775497957,3.9215698023415397,7.209428757527615,-5.856404406782365,8.466319643851767,-20.18064249062148
0.6886505755732111,4.006232998780058,7.150864713459791,-6.058210831688579,4.118000790821682,-14.385992646862324
0.7287129055610116,4.0474130066882745,7.090282605142906,-6.202070758157203,-1.6939847574360658,-6.672330733807146
0.7691870356278944,4.030473159113914,7.028261897561333,-6.268794065495274,-8.324135338875445,2.0686698590684602
0.8094917672190335,3.9472318057251594,6.965573956906381,-6.2481073669045895,-14.72967299929249,10.405516542770817
0.8489640852762851,3.7999350757322343,6.903092883237335,-6.144052201476882,-19.905076461474124,16.970386218773573
0.8869634360336074,3.6008843111174933,6.841652361222566,-5.974348339289146,-23.32487468857667,21.067980352958507
0.9229722791447823,3.3676355642317266,6.781908877829675,-5.763668535759561,-25.042808734392626,22.803684736287266
0.9566486347870996,3.1172074768878004,6.724272192472079,-5.5356316883966885,-25.464489492668413,22.76137184208252
0.9878207095559776,2.8625625819611162,6.668915875588112,-5.308017969975864,-25.065777612605967,21.61189292550978
1.0164463353755888,2.6119048058350565,6.615835695888354,-5.091899040720766,-24.232999647491564,19.894520640763254
1.0425653834339395,2.3695748093601408,6.564916705481146,-4.892953834313134,-23.22497890684908,17.967970499094708
1.0662611315275408,2.13732502029165,6.5159871671380145,-4.713274129322187,-22.194102926482994,16.04224330683858
1.0876343817304572,1.91538399102682,6.468854425844793,-4.552851696253801,-21.22035960471109,14.227237365809783
1.1067882216407254,1.703180394979709,6.423325908882255,-4.410579322595703,-20.33968458173191,12.57264551029071
1.1238200255905226,1.49978354916239,6.379220115656298,-4.284852867492797,-19.563137814792007,11.094693884370061
1.1388178610821464,1.30415217101447,6.33637158698137,-4.173905928649096,-18.888622882457632,9.792342774299206
1.1518593827922912,1.1152659421898936,6.294632527694879,-4.075982500906104,-18.30763160210331,8.656517882244222
1.16301204221419,0.9321896261688605,6.253872702685818,-3.9894173220836615,-17.80896045301404,7.675126796772964
1.1723339384758786,0.75410002163872,6.213978529464982,-3.912666054115932,-17.380674718767597,6.835650107919575
1.1798749386922658,0.5802932744510441,6.174851868923823,-3.8443095530367364,-17.01109190363395,6.126381339590524
1.1856778714367762,0.41018235541470455,6.136408773393455,-3.7830457396408312,-16.689231717306804,5.536934028486516
1.1897796949909232,0.2432900382416365,6.098578315997047,-3.7276763993559663,-16.404985611191847,5.058363063566902
1.1922125953733396,0.07924018212971803,6.061301552003488,-3.6770927687202972,-16.149146478737624,4.683091688612304
1.1930049971946368,-0.08225128265765821,6.024530624316284,-3.6302618518341743,-15.913375366795169,4.404747980293982
1.1921824843680602,-0.2413850363256099,5.988228005797943,-3.5862143720312343,-15.690146239580697,4.217966022947556
1.1897686340048041,-0.39828649872141686,5.952365862077631,-3.5440347118017588,-15.472689860153908,4.1181803884731725
1.18578576901759,-0.553013397322956,5.916925514959614,-3.502852907917027,-15.254946762724085,4.101428190748841
1.1802556350443603,-0.7055628649501968,5.881896985880443,-3.4618386260095386,-15.031533161892606,4.164165449758861
1.1732000063948582,-0.8558781965691229,5.847278599620348,-3.42019697151195,-14.797720285378528,4.303100703777635
1.164641224429167,-1.0038553994229082,5.813076629905229,-3.3771659644741736,-14.549425801210058,4.515047029376676
1.154602670434938,-1.1493496574350088,5.779304970260487,-3.332015494180407,-14.283215061821728,4.796792904956641
1.1431091738605879,-1.2921818080532261,5.745984815318683,-3.2840475651308405,-13.996309434933012,5.144992144178129
1.1301873557800557,-1.4321449024025563,5.713144339667374,-3.232597643689059,-13.686598833438119,5.556073131074436
1.1158659067560301,-1.5690108907369376,5.680818363230483,-3.177036912378315,-13.352655585667737,6.026167646072347
1.1001757978486608,-1.702537446593615,5.6490479941067,-3.1167752359175913,-12.993746944300495,6.5510595988555025
1.0831504233827247,-1.8324749160366198,5.617880241747525,-3.051264639929036,-12.609843782417778,7.126153944440159
1.0648256742223585,-1.9585733538607977,5.587367595348234,-2.980003100484635,-12.201623345341597,7.74646594522663
1.0452399406837505,-2.0805895873142135,5.557567564343388,-2.9025384410323687,-11.770464298174655,8.406630761727625
1.0244340448106084,-2.1982942302959603,5.528542179933064,-2.8184721334150926,-11.318432714782888,9.100933122528975
1.0024511025076488,-2.311478557443789,5.500357458598913,-2.727462802189803,-10.848258080012911,9.823356554804418
