th1 (rad),w1 (rad/s),th2 (rad),w2 (rad/s),a1 (rad/s^2),a2 (rad/s^2)
0.5633304377134348,-2.2046649714910567,1.9760683356357842,2.3062895878568352,-1.5394350481960322,-13.563803699077354
0.5412837879985243,-2.220059321973017,1.9991312315143526,2.1706515508660615,-1.9424419641036137,-13.592982220162328
0.519083194778794,-2.239483741614053,2.020837747023013,2.0347217286644383,-2.3250845381197713,-13.66714339943243
0.49668835736265354,-2.262734586995251,2.0411849643096573,1.898050294670114,-2.6879631940589555,-13.783156386079915
0.474061011492701,-2.289614218935841,2.0601654672563585,1.760218730809315,-3.0314053414788145,-13.93789227606657
0.4511648693033426,-2.319928272350629,2.0777676545644517,1.6208398080486492,-3.355440286882538,-14.128193080067009
0.4279655865798363,-2.3534826752194546,2.0939760526449382,1.4795578772479792,-3.6597842689811984,-14.350831150668881
0.40443075982764176,-2.390080517909267,2.108771631417418,1.3360495657412903,-3.943832690013305,-14.602464496709999
0.3805299546485491,-2.4295188448094,2.122132127074831,1.1900249207741904,-4.206658054727598,-14.87959195763491
0.35623476620045513,-2.4715854253566762,2.1340323762825726,1.0412290011978413,-4.447013095998059,-15.178511353318049
0.3315189119468884,-2.516055556316657,2.144444666294551,0.8894438876646609,-4.663339204830426,-15.495283234986818
0.3063583563837218,-2.5626889483649613,2.153339105171198,0.7344910553147928,-4.8537806803134105,-15.825702579234036
0.28073146690007217,-2.6112267551680954,2.1606840157243457,0.5762340295224524,-5.016205522645886,-16.16528057216053
0.2546191993483912,-2.661388810394554,2.1664463560195704,0.41458122380084705,-5.148233537445658,-16.509238436118356
0.22800531124444567,-2.712871145769011,2.1705921682575786,0.2494888394396635,-5.24727241699931,-16.852514990287847
0.20087659978675557,-2.765343869939004,2.1730870566519753,0.08096368953678501,-5.310562224077468,-17.189789259718815
0.17322316108736552,-2.818449492179779,2.173896693547343,-0.09093420306040315,-5.335228338421764,-17.515518925625237
0.14503866616556774,-2.8718017755639966,2.1729873515167393,-0.2660893923166555,-5.318342454264176,-17.823994734083556
0.11632064840992777,-2.9249852001066383,2.1703264575935726,-0.4443293396574911,-5.2569906696809,-18.10941016667525
0.0870707964088614,-2.977555106803447,2.165883164196998,-0.6254234413242437,-5.148347128761284,-18.36594476740013
0.057295245340826924,-3.02903857809106,2.1596289297837554,-0.809082888998245,-4.989751121627632,-18.58785858401282
0.027004859559916324,-3.0789360893073363,2.151538100893773,-0.9949614748383732,-4.778785080490987,-18.76959430974506
-0.0037845013331570393,-3.126723940112246,2.1415884861453893,-1.1826574179358238,-4.513350599866252,-18.905883007963894
-0.035051740734279496,-3.1718574461109084,2.129761911966031,-1.3717162480154628,-4.191739516760556,-18.991848873437117
-0.06677031519538858,-3.213774841278514,2.1160447494858765,-1.561634736749834,-3.812697255613646,-19.02310842006853
-0.09890806360817372,-3.2519018138346505,2.100428402118378,-1.7518658209505193,-3.375476088648323,-18.99585984425615
-0.13142708174652024,-3.2856565747211337,2.082909743908873,-1.941824419393081,-2.879876664781663,-18.906959105574206
-0.1642836474937316,-3.31445534136895,2.0634914997149423,-2.1308940104488228,-2.3262770595143674,-18.753980444427636
-0.19742820090742108,-3.3377181119640937,2.042182559610454,-2.318433814893099,-1.7156495972821844,-18.53526051169544
-0.23080538202706202,-3.3548746079369156,2.0189982214615227,-2.5037864200100532,-1.0495666714461098,-18.24992685760255
-0.26435412810643116,-3.3653702746513767,1.9939603572614222,-2.6862856885860786,-0.33019759683167804,-17.89791302003477
-0.2980078308529449,-3.3686722506196936,1.9670975003755613,-2.8652648187864265,0.4397009577224675,-17.479963659183415
-0.33169455335914183,-3.364275241042469,1.9384448521876971,-3.0400644553782605,1.2567983017534734,-16.997633916430907
-0.3653373057695665,-3.351707258024934,1.9080442076339146,-3.2100407945425697,2.1172045266616504,-16.453287287666587
-0.39885437834981585,-3.3305352127583174,1.875943799688489,-3.3745736674192357,3.0164853221857544,-15.850095722191087
-0.43215973047739903,-3.3003703595364597,1.8421980630142964,-3.5330746246411464,3.9496765975513903,-15.192044402779219
-0.4651634340727636,-3.260873593560946,1.806867316767885,-3.684995068668939,4.9113002356009545,-14.483941839498122
-0.4977721700083731,-3.2117605912049365,1.7700173660811958,-3.82983448706392,5.895383944902804,-13.73143371955314
-0.5298897759204224,-3.1528067517559086,1.7317190212105567,-3.9671488242594513,6.895489680624394,-12.941016674127273
-0.5614178434379815,-3.0838518549496645,1.692047532967962,-4.096558991000724,7.9047562278923005,-12.120046078324881
-0.5922563619874781,-3.0048042926707415,1.6510819430579549,-4.217759451783973,8.915962039069855,-11.276730535051374
-0.6223044049141855,-2.915644672280043,1.608904348540115,-4.3305267571344865,9.921614092280395,-10.42010512287808
-0.651460851636986,-2.8164285313572393,1.5655990809687703,-4.4347278083632675,10.914067280382367,-9.559976049295964
-0.6796251369505584,-2.7072878585534155,1.5212518028851376,-4.530327568856227,11.88567665489255,-8.706831156219119
-0.7066980155360926,-2.58843109200449,1.4759485271965753,-4.617395880418418,12.828981889364458,-7.871713721354501
-0.7325823264561375,-2.4601412731108456,1.429774568392391,-4.696113017631963,13.736919891293006,-7.0660609500253475
-0.757183739187246,-2.3227720741979154,1.3828134382160715,-4.766773627132216,14.603058007097717,-6.301513045615818
-0.7804114599292252,-2.1767414941269383,1.3351457019447492,-4.829788757588374,15.42183723286297,-5.589703241471196
-0.8021788748704947,-2.0225231217983084,1.2868478143688655,-4.885685790003086,16.188812765522297,-4.942043079110767
-0.8224041060884777,-1.8606349941430853,1.2379909564688347,-4.935106220794193,16.90087851765498,-4.369519980883267
-0.8410104560299085,-1.6916262089665355,1.188639894260893,-4.978801420603026,17.556463115992628,-3.8825253939915356
-0.8579267181195739,-1.516061577806609,1.1388518800548626,-5.017626674542941,18.155687424821558,-3.490731314108035
-0.8730873338976399,-1.3345047035583935,1.088675613309433,-5.052533987684022,18.70047755654993,-3.2030309410633575
-0.8864323809332239,-1.1474999279928941,1.038150273432593,-5.084564297094656,19.194632222937656,-3.027555947158892
-0.8979073802131528,-0.9555536057635176,0.9873046304616464,-5.1148398565662445,19.643848581152486,-2.9717789151120404
-0.9074629162707879,-0.7591151199519927,0.936156231895984,-5.144557645717365,20.055715843646972,-3.0427055784164154
-0.9150540674703078,-0.558557961515523,0.8847106554388103,-5.174984701501529,20.43969031102646,-3.2471581810573413
-0.9206396470854631,-0.35416105840525836,0.832960808423795,-5.207456283312102,20.8070687272647,-3.5921490023736595
-0.9241812576695156,-0.14609037113261136,0.780886245590674,-5.243377773335839,21.170978631388895,-4.085342001805377
-0.9256421613808418,0.06561941518127759,0.7284524678573157,-5.284231193353892,21.546404393321446,-4.73560031726532
-0.924985967229029,0.28108345911449206,0.6756101559237767,-5.331587196526545,21.950265385566887,-5.553617024812345
-0.9221751326378841,0.500586112970161,0.6222942839585113,-5.387123366774668,22.401557174232096,-6.552624078427431
-0.9171692715081825,0.7246016847124819,0.5684230502907646,-5.452649607558943,22.92155530121873,-7.749165704150675
-0.9099232546610577,0.9538172377246692,0.5138965542151751,-5.5301412646004495,23.534059067056695,-9.16390005325069
-0.900385082283811,1.1891578283952362,0.4585951415691706,-5.621780265132957,24.265609295773306,-10.8223417675725
-0.8884935039998586,1.4318139213529693,0.402377338917841,-5.7300036828086816,25.145528582215125,-12.75534924000732
-0.874175364786329,1.6832692071751205,0.3450773020897542,-5.857557175208755,26.205464003451393,-14.99893680886868
-0.8573426727145778,1.9453238472096346,0.2865017303376666,-6.007546543297442,27.477780817586513,-17.592542664494598
-0.8378894342424814,2.2201016553854998,0.2264262649046922,-6.183471969942389,28.99150851861878,-20.573994202644876
-0.8156884176886264,2.5100167405716878,0.1645915452052683,-6.389211911968838,30.763297748311345,-23.96768983690856
-0.7905882502829096,2.8176497180548012,0.10069942608557993,-6.628888810337924,32.77854237767583,-27.7592988126009
-0.7624117531023615,3.1454351418315594,0.03441053798220069,-6.906481798463933,34.95386835988536,-31.84471798550578
-0.7309574016840459,3.494973825430413,-0.03465428000243864,-7.2249289783189905,37.06661099219208,-35.93307333738487
-0.6960076634297417,3.8656399353523336,-0.10690356978562855,-7.584259711692839,38.63354068985295,-39.37843462799337
-0.6573512640762184,4.251975342250863,-0.18274616690255696,-7.978044057972773,38.737733309413585,-40.937223575431055
-0.6148315106537097,4.639352675344999,-0.2625266074822847,-8.387416293727084,35.89066186354701,-38.56991831243312
-0.5684379839002597,4.998259293980469,-0.3464007704195555,-8.773115476851414,28.251489232573068,-29.732295519481056
-0.518455390960455,5.2807741863062,-0.43413192518806965,-9.070438432046224,14.770009929837464,-12.944131871301392
-0.465647649097393,5.428474285604574,-0.5248363095085319,-9.199879750759237,-2.838330372279635,9.48703225562195
-0.41136290624134725,5.400090981881778,-0.6168351070161242,-9.105009428203017,-19.633903165106013,30.839471262216865
-0.35736199642252947,5.203751950230718,-0.7078852012981544,-8.796614715580848,-30.801449746729745,44.59940026270193
-0.3053244769202223,4.89573745276342,-0.7958513484539629,-8.350620712953829,-35.26775253267153,49.40206842426557
-0.2563671023925881,4.543059927436705,-0.8793575555835011,-7.856600028711173,-35.03069023717996,48.04134994925945
-0.21093650311822104,4.192753025064905,-0.9579235558706128,-7.376186529218579,-32.50379699723946,43.8095429522646
-0.169008972867572,3.8677150550925106,-1.0316854211627986,-6.938091099695933,-29.25090939793997,38.797826891058136
-0.1303318223166469,3.575205961113111,-1.101066332159758,-6.550112830785352,-26.026088855445547,33.98440452994776
-0.09457976270551578,3.3149450725586553,-1.1665674604676115,-6.210268785485875,-23.11698714634741,29.7187775364878
-0.06143031197992923,3.083775201095181,-1.2286701483224702,-5.9130810101209965,-20.594008461259033,26.064880342630108
-0.030592559968977417,2.877835116482591,-1.2878009584236803,-5.652432206694695,-18.440000709122444,22.976490718872352
-0.001814208804151507,2.693435109391366,-1.3443252804906272,-5.422667299505972,-16.608926491738746,20.374860557851477
0.025120142289762157,2.5273458444739787,-1.398551953485687,-5.218918693927457,-15.050101563052852,18.17971189188299
0.05039360073450194,2.37684482884345,-1.4507411404249615,-5.037121575008627,-13.71715263390553,16.319935196647837
0.07416204902293644,2.2396733025043947,-1.5011123561750477,-4.873922223042149,-12.57056747237744,14.73601034214116
0.09655878204798038,2.11396762778062,-1.5498515784054692,-4.726562119620737,-11.577732672933694,13.379335351812053
0.11769845832578658,1.9981903010512831,-1.5971171996016766,-4.592768766102616,-10.712111361369228,12.210609975759523
0.1376803613362994,1.891069187437591,-1.6430448872627028,-4.470662666345021,-9.952233322577156,11.198115193662384
0.15659105321067532,1.7915468542118194,-1.687751513926153,-4.3586815144083975,-9.28075041876263,10.316182292247394
0.17450652175279352,1.698739350024193,-1.7313383290702369,-4.255519691485923,-8.683634867196572,9.5439236683829
0.19149391525303544,1.6119030013522273,-1.773893525985096,-4.160080454802094,-8.149528157435434,8.864214170045276
0.2076129452665577,1.530407719777873,-1.815494330533117,-4.071438313101642,-7.669223505316196,8.262885718185858
0.22291702246433645,1.453715484724711,-1.8562087136641334,-3.9888094559197835,-7.235258390516709,7.728094551050726
0.23745417731158355,1.3813629008195438,-1.8960968082233312,-3.9115285104092763,-6.841594511409991,7.249825091161615
0.25126780631977896,1.3129469557054438,-1.935212093327424,-3.83903025949766,-6.483365588319088,6.819501168496054
0.2643972758768334,1.248113299822253,-1.9736023959224005,-3.7708352478126996,-6.156676902787913,6.429681844471776
0.27687840887505594,1.1865465307943739,-2.0113107484005277,-3.7065384293679817,-5.858443572629983,6.07382461631211
0.2887438741829997,1.127962095068074,-2.0483761326942074,-3.6458001832048605,-5.586257155571505,5.746103199208381
0.30002349513368043,1.072099523512359,-2.0848341345262558,-3.588339151212777,-5.338272285739282,5.441270458698967
0.310744490368804,1.018716800654966,-2.1207175260383835,-3.533926446625787,-5.113106788422766,5.154559524870511
0.3209316583753537,0.9675857327707384,-2.1560567905046413,-3.482380851377082,-4.909750214348084,4.881617784473545
0.3306075157030611,0.9184882306272576,-2.190880599018412,-3.433564673532347,-4.7274770960305466,4.618469419752757
0.33979239800933364,0.8712134596669521,-2.2252162457537357,-3.387379979334819,-4.565762537911285,4.361502536667301
0.34850453260600317,0.8255558342878392,-2.259090045547084,-3.343764953968146,-4.424199052904402,4.107476799555627
0.35676009094888156,0.7813138437587952,-2.2925276950867652,-3.30269018597259,-4.302414849493058,3.8535469871138237
0.3645732293864695,0.7382896952638647,-2.3255545969464912,-3.2641547161014515,-4.199995006470293,3.5972971646228356
0.3719561263391082,0.6962897451991618,-2.358196144107506,-3.228181744455223,-4.11640805361147,3.3367794265763
0.3789190237910998,0.655125664663047,-2.390477961552058,-3.19481395018946,-4.050941281820945,3.0705506252981007
0.3854702804377303,0.6146162518448376,-2.422426101053953,-3.164108443936479,-4.002648503710656,2.797700386720086
0.39161644295617865,0.574589766807731,-2.454067185493318,-3.136131440069278,-3.9703138667266917,2.517864205223311
0.39736234062425596,0.5348866281404641,-2.4854284998940104,-3.110952798017045,-3.9524346344291974,2.2312166012929797
0.4027112069056606,0.4953622817961721,-2.516538027874181,-3.088640632004115,-3.947224630157532,1.9384411932459589
0.40766482972362234,0.4558900354945968,-2.5474244341942223,-3.0692562200716553,-3.952638409781831,1.6406769151167786
0.41222373007856833,0.41636365139677844,-2.5781169963949386,-3.0528494509204878,-3.966414410684903,1.3394422226479912
0.4163873665925361,0.3766995072899294,-2.6086454909041437,-3.039455028694008,-3.9861335786060508,1.0365416088853938
0.4201543616654354,0.3368381715038689,-2.639040041191084,-3.029089612605154,-4.009288570360025,0.7339607359607324
0.4235227433804741,0.29674528580026865,-2.6693309373171354,-3.0217500052455466,-4.033357783910035,0.4337576876010173
0.4264901962384768,0.2564117079611683,-2.699548437369591,-3.0174124283695365,-4.055878296318614,0.1379580985171362
0.42905431331808846,0.21585292499798214,-2.7297225616532863,-3.016032847384365,-4.074512294897103,-0.15153877311238667
0.4312128425680683,0.1751078020490111,-2.75988289012713,-3.017548235115489,-4.087102655273382,-0.4330374347288757
0.4329639205885584,0.13423677549627727,-2.790058372478285,-3.0218786094627776,-4.091714758118866,-0.7051033927932938
0.4343062883435212,0.0933196279150886,-2.8202771585729125,-3.0289296433907107,-4.086663213218843,-0.9665987748520688
0.4352394846226721,0.05245299578290017,-2.8505664550068195,-3.0385956311392315,-4.070523654920848,-1.2166969219891741
0.43576401458050107,0.011747759233691688,-2.8809524113182117,-3.050762600359123,-4.042131013749276,-1.4548782067881318
0.435881492172838,-0.028673550903801075,-2.911460037321803,-3.065311382427004,-4.000566550541097,-1.6809104986939922
0.4355947566638,-0.06867921640921204,-2.942113151146073,-3.082120487413944,-3.945136428930011,-1.8948183172055442
0.43490796449970787,-0.10813058069851214,-2.9729343560202124,-3.1010686705859993,-3.875344727204551,-2.0968448271334235
0.43382665869272274,-0.14688402797055766,-3.0039450427260723,-3.1220371188573335,-3.7908636207831927,-2.287410540191315
0.4323578184130172,-0.18479266417838958,-3.035165413914646,-3.1449112242592467,-3.6915030911981734,-2.467072021475867
0.4305098917712333,-0.2217076950903713,-3.066614526157238,-3.169581944474005,-3.5771820274259465,-2.636483186644088
0.42829281482032955,-0.25747951536463076,-3.0983103456019783,-3.195946776340446,-3.447902059694148,-2.796361026612652
0.42571801966668327,-0.29195853596157223,-3.130269813365383,-3.2239103866065726,-3.303724964556456,-2.9474568943854624
0.42279843430706754,-0.32499578560713677,-3.1625089172314484,-3.2533849555504273,-3.14475404213302,-3.0905338860154647
0.4195484764509962,-0.35644332602846696,-3.1950427667869525,-3.284290294410582,-2.9711195119306826,-3.226350370377052
0.4159840431907115,-0.38615452114777377,-3.2278856697310583,-3.3165537981143527,-2.7829677073778165,-3.355649374683702
0.4121224979792338,-0.4139841982215519,-3.261051207712202,-3.35011029186119,-2.5804536653975916,-3.4791533042874496
0.4079826559970183,-0.43978873487552783,-3.294552310630814,-3.3849018249040643,-2.363736594092582,-3.597563347719704
0.403584768648263,-0.46342610081645363,-3.3284013288798544,-3.4208774583812613,-2.132977644391873,-3.7115628694401286
0.39895050764009843,-0.4847558772603724,-3.362610103463667,-3.4579930870756628,-1.8883393957056023,-3.821824101983243
0.3941029488674947,-0.5036392712174285,-3.397190034334424,-3.4962113280954954,-1.6299864781270443,-3.9290174973261145
0.38906655615532043,-0.5199391359986989,-3.432152147615379,-3.5355015030687564,-1.3580867837021826,-4.033823169177748
0.38386716479533345,-0.5335200038357207,-3.4675071626460663,-3.575839734760534,-1.072812758448266,-4.136943942240565
0.37853196475697626,-0.5442481314202035,-3.5032655599936717,-3.6172091741829395,-0.7743423092030154,-4.23911961369127
0.3730894834427742,-0.5519915545122336,-3.539437651735501,-3.6596003703198523,-0.46285890107854094,-4.341142121668484
0.3675695678976519,-0.556620143523019,-3.5760336554386996,-3.7030117915365373,-0.13855045987376297,-4.443871403424466
0.3620033664624217,-0.5580056481217567,-3.613063773354065,-3.747450505570782,0.19839327205344717,-4.548251811863092
0.35642330998120414,-0.5560217154012222,-3.650538278409773,-3.7929330236894128,0.5477852488994639,-4.655329044642449
0.3508630928271919,-0.5505438629122276,-3.688467608646667,-3.8394863141358373,0.9094478023564844,-4.76626762695646
0.34535765419806963,-0.5414493848886627,-3.726862471788025,-3.887148990405402,1.2832217714233602,-4.882369080169712
0.339943160349183,-0.5286171671744291,-3.7657339616920793,-3.935972681207099,1.6689783506743028,-5.00509100663109
0.3346569886774387,-0.5119273836676861,-3.8050936885041504,-3.98602359127341,2.0666339223706074,-5.136067429373928
0.32953771484076183,-0.49126104444398,-3.8449539244168847,-4.037384265567149,2.4761681421610016,-5.277130847249895
0.32462510439632203,-0.46649936302237,-3.8853277670725563,-4.090155574039648,2.897645562759809,-5.4303366046023696
0.3199601107660983,-0.4375229073947719,-3.926229322812953,-4.144458940085672,3.331241106925287,-5.597990333103896
0.3155848816921506,-0.40421049632551903,-3.96767391221381,-4.200438843416711,3.7772697423183783,-5.782679404954252
0.3115427767288954,-0.36643779890233524,-4.009678300647977,-4.258265637466254,4.236220767990324,-5.9873095439042645
0.30787839873987205,-0.324075591222432,-4.052260957022639,-4.318138732905297,4.708797195638651,-6.215147975070067
0.3046376428276477,-0.2769876192660455,-4.095442344351692,-4.380290212655997,5.195960796014222,-6.46987475533319
0.30186776663498727,-0.22502801130590327,-4.139245246478252,-4.444988960209329,5.698983474511555,-6.75564420741879
0.2996174865219282,-0.16803817656078773,-4.183695136080345,-4.512545402283517,6.219505723419855,-7.0771586670005275
0.29793710475632035,-0.10584311932658919,-4.22882059010318,-4.583316988953523,6.759602938756703,-7.439757009782121
0.2968786735630545,-0.038247089939022164,-4.274653759992716,-4.657714559051343,7.321860325951338,-7.849520587577005
0.2964962026636643,0.03497151332049121,-4.321230905583229,-4.736209764927113,7.90945684045897,-8.313399141839955
0.2968459177968692,0.11406608172508091,-4.3685930032325,-4.819343756345513,8.526257920242974,-8.839358744644935
