th1 (rad),w1 (rad/s),th2 (rad),w2 (rad/s)
1.017050301441089,2.7353186565593006,4.360687457984972,1.256512187863538
1.044403488006682,2.6727968545446954,4.373252579863608,1.3022776619203111
1.0711314565521288,2.6063454884792385,4.386275356482811,1.3427053636456132
1.0971949114369213,2.536278315420942,4.399702410119267,1.3782559295617618
1.1225576945911306,2.462908460849476,4.413484969414885,1.409388535422786
1.1471867791996253,2.3865427546368374,4.427578854769113,1.4365523024213
1.1710522067459936,2.3074770941623766,4.441944377793326,1.460179184900686
1.1941269776876173,2.2259927803316706,4.4565461696423325,1.4806783036163331
1.216386905490934,2.142353747607478,4.471352952678496,1.4984316399386364
1.2378104429670087,2.0568045951826175,4.486337269077882,1.5137909748232823
1.258378488918835,1.9695693209119143,4.501475178826115,1.527075939036035
1.2780741821279542,1.880850660456524,4.516745938216475,1.5385730350244342
1.2968826887325196,1.7908299394022493,4.53213166856672,1.54853549315772
1.314790988126542,1.6996673543223038,4.547617023498297,1.5571838333187533
1.331787661669765,1.6075026086050284,4.563188861831485,1.5647070149343578
1.3478626877558153,1.514455839384321,4.578835931980828,1.5712640727790015
1.3630072461496585,1.4206287823621355,4.594548572708618,1.5769861509498087
1.3772135339732798,1.3261061311576146,4.610318434218116,1.581978862265334
1.390474595284856,1.2309570566609522,4.626138222840769,1.5863249142111353
1.4027841658514655,1.135236859422092,4.642001471982881,1.590086954857606
1.4141365344456864,1.0389887341490214,4.657902341531457,1.59331060246775
1.4245264217871767,0.942245629764021,4.673835447556135,1.596027630457553
1.4339488780848169,0.845032191044884,4.68979572386071,1.5982592847126633
1.4423991999952657,0.7473667685747852,4.705778316707836,1.6000197128150473
1.4498728676810135,0.649263482495107,4.721778513835987,1.6013194843769822
1.4563655025059645,0.5507343224131802,4.737791708679756,1.6021691783898486
1.4618728457300962,0.45179126085293575,4.753813400463655,1.6025830073595237
1.4663907583386255,0.3524483510462465,4.769839230537251,1.6025824392580654
1.469915241849088,0.2527237719727313,4.785865054929832,1.6021997674042712
1.4724424795688154,0.15264177484734048,4.801887052603874,1.6014815659558141
1.4739688973172889,0.05223447637888855,4.817901868263432,1.6004919556737174
1.4744912420810778,-0.048456564102600116,4.833906787820169,1.5993155921919981
1.474006676440052,-0.149379053164529,4.849899943742089,1.598060278617597
1.4725128859084067,-0.2504690308994517,4.865880546528265,1.5968590974978731
1.4700081955994122,-0.3516503713519852,4.881849137503244,1.5958719556839147
1.4664916918858923,-0.45283478499274166,4.897807857060084,1.5952864409447038
1.461963344035965,-0.5539223826719375,4.91376072146953,1.5953179026060649
1.4564241202092456,-0.654802844979727,4.9297139004955906,1.5962086907384088
1.4498760917594484,-0.7553572199395956,4.945675987402975,1.5982265195157053
1.4423225195600524,-0.8554603462610907,4.961658252598132,1.6016619594535695
1.4337679160974415,-0.9549838703994145,4.977674872192667,1.6068251084962986
1.4242180773934474,-1.0537997954012062,4.99374312327763,1.6140415406471091
1.4136800794394353,-1.1517844703726463,5.009883538684101,1.6236476795838932
1.4021622347357088,-1.248822904005509,5.02612001547994,1.6359857896177499
1.3896740056956536,-1.3448132664836188,5.042479873376117,1.651398813565009
1.3762258730308174,-1.4396714334448633,5.058993861511768,1.670225313191158
1.361829158696369,-1.533335425039067,5.075696114643679,1.692794780307646
1.3464958044459783,-1.6257696032188451,5.092624062446756,1.7194235840645509
1.3302381084137898,-1.7169685110286466,5.109818298287402,1.7504118026528515
1.3130684233035033,-1.8069602677247378,5.12732241631393,1.7860411571908565
1.294998820626256,-1.8958094712283844,5.145182827885839,1.8265742250804398
1.276040725913972,-1.9836196023457315,5.1634485701366435,1.8722550637285031
1.256204529890515,-2.070534970843627,5.182171120773929,1.9233113280730598
1.2354991801820787,-2.1567422894444963,5.201404234054659,1.9799579219062584
1.2139317572876338,-2.2424720061298844,5.221203813273722,2.04240218843615
1.191507037226335,-2.327999566556726,5.241627835158083,2.110850624232545
1.1682270415607678,-2.4136468165173732,5.262736341400409,2.185517096275045
1.1440905733955942,-2.4997837898377773,5.284591512363159,2.266632557080532
1.1190927354972164,-2.5868311615658697,5.307257837933964,2.3544562899561936
1.0932244238815578,-2.6752636824174947,5.330802400833526,2.4492887769726805
1.0664717870573828,-2.7656149518068993,5.355295288603252,2.551486367828035
1.0388156375393138,-2.858483937762859,5.380810152281533,2.661478040142594
1.0102307981616852,-2.9545437175325953,5.407424932682958,2.7797846830898143
0.9806853609863592,-3.0545529976922134,5.435222779513857,2.9070415091253774
0.950139831009437,-3.1593710811930116,5.46429319460511,3.0440244047746616
0.9185461201975069,-3.269977082008135,5.494733438652857,3.191681269524711
0.8858463493774256,-3.3874943392612447,5.526650251348104,3.3511696508888176
0.8519714059848131,-3.5132211277077943,5.560161947856992,3.5239022296190505
0.8168391947077351,-3.6486688374283083,5.595400970153182,3.7116018556209354
0.7803525063334521,-3.7956086568934078,5.6325169887093915,3.9163676824292426
0.742396419764518,-3.9561271178984194,5.6716806655336836,4.140753052222239
0.7028351485855338,-4.1326889513359735,5.713088196055906,4.387853180601388
0.661508259072174,-4.32820106911791,5.756966727861919,4.6613943131426225
0.6182262483809949,-4.546060965936407,5.8035806709933455,4.965801472230618
0.5727656387216309,-4.790149773127129,5.8532386857156515,5.306189905739854
0.5248641409903596,-5.064680903105169,5.90630058477305,5.6881567486188755
0.47421733195930793,-5.373712886925686,5.963182152259239,6.117106650691467
0.4204802030900511,-5.7199333437794895,6.024353218766153,6.5965631648677645
0.3632808696522562,-6.101967394150336,6.090318850414831,7.124422037747646
0.30226119571075283,-6.509021864302625,6.161563070792307,7.685480485897026
0.23717097706772658,-6.911838889324791,6.238417875651278,8.238795604467118
0.16805258817447866,-7.252266478099968,6.320805831695949,8.703082699966325
0.09552992339347897,-7.4444836699237245,6.4078366586956115,8.958388094311601
0.021085086694241723,-7.411530446507397,6.4974205396387275,8.897127708285067
-0.05303021777083225,-7.149445755711723,6.586391816721578,8.51364139816202
-0.12452467532794947,-6.74140973805455,6.671528230703198,7.923700590065405
-0.19193877270849496,-6.290836065413107,6.750765236603852,7.270992593840696
-0.25484713336262604,-5.863432762837017,6.823475162542259,6.6465617900840845
-0.3134814609909962,-5.484573514874071,6.8899407804431,6.085421622155793
-0.3683271961397369,-5.157650768346517,6.950794996664658,5.592182279919554
-0.4199037038232021,-4.877679087807207,7.006716819463853,5.159940011458197
-0.46868049470127415,-4.6376417636014695,7.058316219578435,4.779052227070616
-0.5150569123372889,-4.430837084639316,7.106106741849141,4.440366106623447
-0.5593652831836821,-4.251542086663674,7.150510402915375,4.13612539777451
-0.6018807040503188,-4.095063254498204,7.19187165689312,3.8600363905403796
-0.6428313365953009,-3.9575988193037683,7.2304720207985245,3.6070783653253926
-0.6824073247883385,-3.836067063621513,7.266542804451778,3.3732700181286552
-0.7207679954245537,-3.7279507254393915,7.300275504633065,3.1554596628246174
-0.7580475026789476,-3.631169464398412,7.331830101261311,2.951154743639438
-0.7943591973229317,-3.5439795059197965,7.361341648697706,2.758388696399972
-0.8297989923821296,-3.4648960638786654,7.388925535661706,2.575618471244722
-0.8644479530209163,-3.39263387538138,7.414681720374153,2.4016457178847928
-0.89837429177473,-3.3260618879523918,7.438698177553001,2.2355556367369385
-0.931634910654254,-3.2641690038864266,7.46105373392037,2.0766687182788184
-0.9642766006931183,-3.2060385438557444,7.4818204211031585,1.9245016852120533
-0.9963369861316758,-3.150829679587154,7.501065437955279,1.778734847128029
-1.0278452829275473,-3.097764510304202,7.518852786426559,1.639183794753169
-1.0588229280305894,-3.046119746445187,7.535244624374091,1.5057739408059527
-1.0892841254950414,-2.9952221468126536,7.5503023637821505,1.3785168936980587
-1.1192363469631679,-2.9444469599733885,7.564087532719131,1.2574880543057612
-1.1486808165629017,-2.8932186730943483,7.576662413262189,1.1428051683800982
-1.1776130032938452,-2.8410133947094653,7.5880904649459895,1.034607851286339
-1.2060231372409398,-2.787362212725231,7.5984365434588526,0.9330383241485387
-1.2338967593681922,-2.731854892396096,7.607766926700338,0.8382237544788663
-1.2612153082921531,-2.674143323572645,7.616149164245126,0.7502606741387512
-1.2879567415278796,-2.613944199170191,7.6236517709865135,0.6692019513554508
-1.3140961835195815,-2.5510405082927563,7.630343790500068,0.5950467263472906
-1.339606588602509,-2.485281552682372,7.636294257763541,0.5277335939686539
-1.3644594041293328,-2.4165813343938636,7.641571593703227,0.4671371500165284
-1.3886252174732714,-2.3449153033628134,7.646242965203392,0.4130678326644784
-1.4120743705068994,-2.270315582981473,7.6503736435300365,0.36527480977903337
-1.4347775263367142,-2.192864898845464,7.654026391627827,0.3234515068679008
-1.4567061753251689,-2.1126895128076217,7.657260906696506,0.28724325409988005
-1.4778330704532452,-2.029951507912921,7.660133339237505,0.256256462494963
-1.4981325855323744,-1.944840780403703,7.6626959038624545,0.2300687203911184
-1.5175809933364115,-1.8575670769345884,7.664996591066366,0.20823922709616283
-1.5361566641057574,-1.7683523748758272,7.667078983337327,0.19031904243131478
-1.5538401878545156,-1.677423848603624,7.66898217376164,0.17586071760481053
-1.570614426340552,-1.585007602380144,7.670740780937688,0.16442697304527
-1.5864645023643533,-1.4913232872962305,7.672385050668141,0.15559819204607114
-1.6013777352373155,-1.3965796608549674,7.673941032588602,0.14897859687544665
-1.615343531845865,-1.3009710965957666,7.6754308185573565,0.1442010603492963
-1.6283532428118228,-1.2046750096624061,7.67687282916085,0.14093057711292953
-1.640399992908447,-1.1078501330811341,7.678282134931979,0.13886647353177073
-1.6514784942392584,-1.010635558424699,7.679670799667297,0.13774347333834383
-1.6615848498235053,-0.9131504425054975,7.68104823440068,0.13733175941626866
-1.6707163542485604,-0.8154942773792182,7.6824215519948424,0.13743618245730785
-1.6788712970223525,-0.7177476226938979,7.683795913819416,0.13789476719367016
-1.6860487732492915,-0.6199732057340256,7.685174861491352,0.13857665902673216
-1.6922485053066316,-0.5222173039472678,7.68656062808162,0.13937964053031132
-1.6974706783461042,-0.42451133604838653,7.6879544244869225,0.14022733060125708
-1.7017157917065882,-0.32687359993115583,7.689356697792935,0.14106616071348343
-1.7049845277058997,-0.22931110776233643,7.69076735940007,0.14186220419271944
-1.7072776387835231,-0.1318214801622905,7.692185981441997,0.14259791671616237
-1.708595853585146,-0.03439487185117297,7.693611960609159,0.14326883010287075
-1.7089398023036577,0.06298408974095575,7.695044648910188,0.143880227400007
-1.7083099614062482,0.1603343638241856,7.696483451184188,0.14444381559949748
-1.7067066177680064,0.25767655855340915,7.697927889340184,0.14497440321468008
-1.7041298521824724,0.3550309970527355,7.699377633372331,0.14548658349201157
-1.700579542211945,0.45241578541719263,7.700832499207251,0.14599142026162754
-1.696055384357773,0.5498448801697848,7.702292413409867,0.1464931323513159
-1.6905569355560752,0.6473261536031106,7.70375734473338,0.14698577410408
-1.6840836740200442,0.7448594581190663,7.705227202474421,0.14744991385378614
-1.6766350794388536,0.8424346950983658,7.706701701612959,0.14784931922757835
-1.6682107324878699,0.9400298999741598,7.708180194805235,0.14812766784156325
-1.6588104334881282,1.0376093630164145,7.70966147148365,0.1482053142785333
-1.648434339857964,1.1351218147755808,7.7111435246264355,0.1479761590449315
-1.6370831217102082,1.232498716032687,7.712623286216885,0.14730468223551338
-1.6247581345498814,1.3296527042016726,7.714096333039239,0.14602322344557034
-1.6114616075078647,1.426476261033116,7.715556565273695,0.14392960938043198
-1.5971968448975336,1.5228406796064524,7.716995861367499,0.1407852506388269
-1.581968438101469,1.6185954211923486,7.7184037138738875,0.13631384795449372
-1.5657824838895453,1.7135679636065841,7.719766852353432,0.13020086403886283
-1.5486468042534796,1.8075642509051069,7.721068860993821,0.12209392794005058
-1.5305711617444284,1.9003698581970647,7.722289800273222,0.1116043420079241
-1.5115674631624578,1.9917519832998332,7.7234058436933015,0.09830985433622526
-1.4916499433294594,2.0814623671486516,7.724388942236664,0.08175883903298381
-1.4708353196579729,2.169241225569193,7.725206530626994,0.061475990097126496
-1.449142907402281,2.254822244743325,7.725821290527965,0.03696957982894135
-1.4265946849548479,2.337938650495333,7.726190986326254,0.007740258359397876
-1.4032152984498945,2.4183303073123157,7.7262683889098485,-0.026708722599558674
-1.3790319953767713,2.4957517379384337,7.726001301683853,-0.06686008879743356
-1.354074477997387,2.569980881189867,7.725332700795879,-0.11317027385686948
-1.3283746691854883,2.6408283289257533,7.72420099805731,-0.16605677444885023
-1.3019663858962307,2.7081467094156384,7.722540430312822,-0.22588572053120554
-1.2748849188020743,2.7718398219138645,7.72028157310751,-0.29296034636136264
-1.2471665205829356,2.8318710854237477,7.717351969643897,-0.36751110713213214
-1.218847809728698,2.88827085277152,7.713676858572575,-0.44968819487433764
-1.1899651012009829,2.9411421671392692,7.709179976623832,-0.5395571548208912
-1.16055367952959,2.9906646069496134,7.7037844050756235,-0.6370981846678023
-1.130647033460094,3.037095976603944,7.697413423228945,-0.7422095172044559
-1.1002760736940544,3.0807717494802747,7.689991328056901,-0.8547150542485292
-1.0694683561992517,3.1221023443720815,7.6814441775144155,-0.9743761586399826
-1.0382473327555308,3.1615685009726344,7.671700415928016,-1.1009072503244977
-1.0066316477458044,3.1997151952989373,7.660691343424771,-1.2339946246566833
-0.974634495792815,3.2371446838632068,7.648351397178204,-1.3733177465832151
-0.942263048954183,3.274509371564802,7.6346182197123715,-1.518572197097073
-0.909517955238535,3.312505254991858,7.619432497741401,-1.6694934713266205
-0.8763929026886164,3.3518667006716636,7.602737563028135,-1.8258809514281351
-0.8428742356818997,3.393363285704421,7.584478753513853,-1.987621591139179
-0.8089406028248555,3.4377993719401014,7.564602537602461,-2.1547131332259313
-0.7745626091054545,3.4860170245367805,7.543055406270201,-2.3272870134731343
-0.7397024388600867,3.53890284287184,7.5197825361354695,-2.50563146429921
-0.7043134104313683,3.59739926642636,7.494726221492478,-2.6902157022151556
-0.6683394177671047,3.6625209666252045,7.467824064470326,-2.881716458532303
-0.6317142081008527,3.7353770476145143,7.439006899885003,-3.0810484907484823
-0.5943604376247075,3.8171999544956714,7.408196414977518,-3.2894010921760195
-0.5561884380797507,3.9093822083675382,7.375302404055758,-3.5082829854118507
-0.5170946159960753,4.013522298484995,7.340219574201639,-3.7395782839552387
-0.47695939301122536,4.131481128197618,7.302823791362087,-3.985616272994831
-0.4356445817292492,4.265450024129091,7.262967628632139,-4.249257193276267
-0.3929900814879583,4.418029785918825,7.220475056699376,-4.53399407964777
-0.34880978362877,4.592316046800314,7.175135115902899,-4.844064912743606
-0.30288662316076687,4.791975968616024,7.126694466775463,-5.184555240526489
-0.2549668634746066,5.021277659597166,7.0748489143701985,-5.561438813742509
-0.20475408687863494,5.284980866490418,7.019234526232774,-5.98143062331859
-0.15190427821373076,5.5878826700687565,6.959420219999588,-6.451367203262312
-0.0960254515130432,5.933573255151451,6.894906547966965,-6.976496417674813
-0.03668971896152869,6.32150648496556,6.8251415837902165,-7.556429223070562
0.026525345888126904,6.740838375102146,6.749577291559511,-8.17659067369138
0.09393372963914837,7.159379146674125,6.667811384822597,-8.792844614652141
0.1655275211058896,7.509779046823831,6.579882938676076,-9.312224275262087
0.24062531157412792,7.689368525941878,6.486760695923455,-9.592686411440775
0.3175189968335467,7.606600967681025,6.390833831809047,-9.507887257156543
0.39358500651035694,7.264330824565115,6.295754959237482,-9.063114042390604
0.4662283147560081,6.770926739160144,6.2051238188135756,-8.410090891023076
0.5339375821476096,6.247337808851695,6.121022909903345,-7.717128169751362
0.5964109602361265,5.761351891079785,6.043851628205831,-7.078118001588167
0.6540244791469243,5.33404883335904,5.97307044818995,-6.522100571950629
0.7073649674805147,4.96446735872479,5.907849442470444,-6.047736307033375
0.7570096410677626,4.64463228244644,5.8473720794001105,-5.644146330546552
0.803455963892227,4.365666268865801,5.790930616094645,-5.299327928068737
0.8471126265808849,4.119719289149984,5.737937336813958,-5.0027807328481035
0.8883098194723847,3.900339841082083,5.687909529485476,-4.745991110486326
0.9273132178832055,3.702352896413864,5.640449618380613,-4.522245805960776
0.9643367468473442,3.5216251027730805,5.595227160321005,-4.326296621123161
0.999552997875075,3.3548392566473266,5.5519641941097735,-4.154041404597805
1.0331013904415483,3.1993091425896147,5.510423780063795,-4.002262122223927
1.0650944818674444,3.05283620512204,5.470401158841556,-3.868420636605092
1.0956228439186648,2.913601412974649,5.4317169524755045,-3.750502113017019
1.1247588580484114,2.7800847094128076,5.3942119313453345,-3.646894929043859
1.1525597051425394,2.651005537082486,5.357742982054896,-3.556297670783149
1.1790697605133642,2.525279360266383,5.3221800053470645,-3.477645934394091
1.204322554116028,2.4019863579951717,5.287403546003124,-3.4100535352780446
1.2283424176959798,2.2803494168501017,5.2533030106503436,-3.3527642311475643
1.2511459118644808,2.1597192316705036,5.219775368338868,-3.3051112325778504
1.2727431041811859,2.0395647772168988,5.18672425601309,-3.266482683567035
1.2931387519533548,1.9194676970649671,5.154059429177419,-3.2362920145480376
1.3123334289240045,1.799119315094692,5.121696509031938,-3.2139526494979807
1.3303246220749514,1.6783190528463845,5.089556982536958,-3.1988570130027187
1.3471078126034153,1.5569730737358023,5.057568412406932,-3.1903601376833706
1.3626775433407734,1.435092013308325,5.025664811030098,-3.187768406330587
1.3770284634738565,1.3127867331032128,4.993787126966792,-3.1903340553405077
1.3901563308048888,1.190261189769031,4.961883786413387,-3.197255993981952
1.4020589427025791,1.0678017660631716,4.929911226473568,-3.2076872443189504
1.412736960363211,0.9457627737808264,4.897834354030378,-3.220748886884642
1.4221945881010192,0.8245482933861296,4.8656268651615315,-3.23554984562414
1.4304400710348806,0.7045910162549612,4.83327136670529,-3.2512112346258197
1.43748598119743,0.5863292337071915,4.800759254359032,-3.266893419652317
1.443349273534502,0.470183490335618,4.768090320162509,-3.2818235321369227
1.448051108437858,0.35653461115348595,4.73527208484114,-3.295321011275185
1.4516164545493928,0.24570477298069,4.7023188747283875,-3.306818899481419
1.4540735022791997,0.13794301357020505,4.669250685733573,-3.3158790753483305
1.4554529324149017,0.03341609936359598,4.63609189498009,-3.3222003085060816
1.4557870934085377,-0.06779491283718261,4.602869891895029,-3.3256188434113296
1.4551091442801658,-0.1656926805037734,4.569613703460916,-3.326102023232377
1.453452217475128,-0.26035691402837435,4.536352683228592,-3.323736122682691
1.4508486483348444,-0.3519341661067585,4.503115322001765,-3.3187099836255527
1.447329306673777,-0.4406253485828303,4.4699282221655094,-3.311296209199623
1.4429230531879487,-0.5266722339052771,4.436815260073513,-3.301831594127881
1.4376563308488959,-0.6103440385724648,4.403796944132234,-3.290698211566248
1.4315528904631711,-0.6919249402267938,4.370889962016572,-3.278306217613239
1.4246336410609033,-0.7717031028935974,4.33810689984044,-3.265079047586494
