th1 (rad),w1 (rad/s),th2 (rad),w2 (rad/s),a1 (rad/s^2),a2 (rad/s^2)
3.3946272298654243,1.2261789591420942,0.1369073368125256,1.0099851155346855,3.47671110759513,1.9415834522699853
3.406889019456845,1.2609460702180455,0.14700718796787246,1.0294009500573853,3.6021305687442178,1.9538321607852267
3.4194984801590254,1.2969673759054876,0.1573011974684463,1.0489392716652375,3.730527308866683,1.9658461763240391
3.43246815391808,1.3342726489941545,0.16779059018509868,1.068597733428478,3.861907656638075,1.9774747611788204
3.445810880408022,1.3728917255605353,0.17847656751938346,1.0883724810402662,3.9962570557923525,1.9885291407746746
3.459539797663627,1.412854296118459,0.18936029232978613,1.108257772448013,4.133537153653188,1.9987777775340139
3.4736683406248114,1.4541896676549908,0.20044287005426625,1.128245550223353,4.273682591061965,2.007941203077013
3.4882102373013613,1.4969264935656104,0.21172532555649978,1.1483249622541232,4.416597476592505,2.015686389227643
3.5031795022370176,1.5410924683315355,0.22320857517904102,1.1684818261463996,4.562151530182533,2.0216206433210786
3.518590426920333,1.5867139836333608,0.23489339344050503,1.1886980325796104,4.710175884747187,2.0252850204438047
3.5344575667566667,1.6338157424808326,0.24678037376630113,1.2089508827840485,4.860458539292917,2.02614725499953
3.550795724181475,1.6824203278737617,0.2588698825941416,1.2292123553340437,5.012739463904685,2.0235942269879814
3.5676199274602127,1.7325477225128085,0.27116200614748204,1.2494482976039236,5.166705366194436,2.0169239953165463
3.5849454046853406,1.7842147761747529,0.28365648912352126,1.269617537557089,5.321984140910708,2.0053374521447638
3.6027875524470883,1.83743461758386,0.29635266449909214,1.2896709120785368,5.478139040042165,1.9879296796015713
3.621161898622927,1.8922160079842818,0.30924937361987753,1.3095502088745525,5.634662620612482,1.963681124220579
3.6400840587027696,1.9485626341904065,0.3223448757086231,1.3291870201167584,5.790970552256944,1.9314487461895167
3.6595696850446737,2.006472339712976,0.33563674590979065,1.3485015075786535,5.946395397461388,1.8899573511206662
3.6796344084418036,2.06593629368759,0.3491217609855772,1.3674010810898602,6.100180514948215,1.8377913726051387
3.7002937713786794,2.1269380988370723,0.36279577179647576,1.3857789948159116,6.251474282033446,1.773387445275804
3.7215631523670503,2.1894528416574066,0.3766535617446349,1.4035128692686696,6.399324885707156,1.695028191162487
3.7434576807836244,2.253446090514478,0.3906886904373216,1.4204631511802945,6.5426759953911064,1.6008377370017035
3.7659921416887694,2.318872850468389,0.40489332194912453,1.4364715285503116,6.6803637031632075,1.4887795863407933
3.7891808701934533,2.385676487500021,0.4192580372346276,1.4513593244137195,6.811115199538826,1.3566575861278911
3.8130376350684534,2.4537876394954092,0.4337716304787648,1.4649259002749984,6.933549743684886,1.2021208498120683
3.8375755114634074,2.523123136932258,0.4484208894815148,1.476947108773119,7.046182584064248,1.0226736224585733
3.86280674283273,2.5935849627729004,0.463190360569246,1.4871738449977048,7.147432585202215,0.8156911898667301
3.888742592460459,2.6650592886249225,0.47806209901922303,1.495330756896372,7.235634412627987,0.5784430314418828
3.915393185346708,2.7374156327512025,0.49301540658818677,1.5011151872107908,7.309056212443847,0.3081244795549873
3.94276734167422,2.810506194875641,0.5080265584602947,1.5041964320063408,7.3659237824717,0.0018981552160846121
3.9708724036229763,2.884165432700358,0.5230685227803581,1.5042154135585017,7.404452252765973,-0.3430536254922451
3.99971405794998,2.9582099552280177,0.5381106769159432,1.5007848773035792,7.4228862546320125,-0.729464469623211
4.02929615750226,3.032438817774338,0.553118525688979,1.4934902326073471,7.419549435425278,-1.1599068864138666
4.059620545680003,3.1066343121285906,0.5680534280150524,1.4818911637432084,7.3929039446388165,-1.6367024938706078
4.090686888801289,3.1805633515749787,0.5828723396524845,1.4655241388045024,7.341620147466276,-2.1618200768334668
4.122492522317039,3.2539795530496414,0.5975275810405295,1.4439059380361676,7.2646562900174105,-2.73676313353422
4.155032317847535,3.3266261159498156,0.6119666404208912,1.4165383067008255,7.161347128260072,-3.3624498289284364
4.188298579007033,3.3982395872324163,0.6261320234878994,1.382913808411541,7.031499638016448,-4.039089806944737
4.222280974879357,3.4685545836125806,0.6399611615720149,1.3425229103420937,6.875492866965829,-4.766064043823212
4.256966520715483,3.537309512282239,0.6533863906754358,1.2948622699038617,6.694377825631544,-5.5418157408569435
4.292339615838306,3.6042532905385545,0.6663350133744744,1.2394441124952922,6.489972138256943,-6.363761983828263
4.3283821487436915,3.6691530119211238,0.6787294544994273,1.1758064926570095,6.264943128100189,-7.228237299627243
4.3650736788629025,3.7318024432021257,0.6904875194259974,1.103524119660737,6.022872280863751,-8.130481024596248
4.402391703294924,3.792031166010763,0.7015227606226048,1.0222193094147745,5.768293831737885,-9.064680244281385
4.4403120149550315,3.8497141043281418,0.7117449537167525,0.9315725069719606,5.506700777703509,-10.024078673301101
4.478809155998313,3.904781112105177,0.7210606787864721,0.8313317202389496,5.244513113832056,-11.00115901067103
4.517856967119365,3.9572262432434977,0.7293739959888615,0.7213201301322394,4.989005631452993,-11.987901994150633
4.5574292295518,4.007116299558028,0.736587197290184,0.6014411101907331,4.748196161824519,-12.976119795753236
4.59750039254738,4.054598261176273,0.7426016083920913,0.4716799122332007,4.530699491211232,-13.957855049823667
4.638046375159142,4.099905256088386,0.7473184075144234,0.3321013617349641,4.345556918272861,-14.925830471831897
4.679045427720026,4.143360825271114,0.750639421131773,0.1828430570166451,4.20205602925703,-15.873928708451439
4.720479035972737,4.1853813855636846,0.7524678517019394,0.024103769932130703,4.109559120869972,-16.797678820327
4.762332849828374,4.226476976772385,0.7527088894012607,-0.1438730182711393,4.077361250897866,-17.694725567981262
4.804597619596097,4.267250589281363,0.7512701592185493,-0.3208202739509519,4.114599782567401,-18.56526104170403
4.847270125488911,4.308396587107037,0.7480619564790398,-0.5064728843679922,4.230236462493056,-19.412405252507543
4.890354091359981,4.350698951731967,0.7429972276353599,-0.7005969368930677,4.433130861271058,-20.242532652117667
4.933861080877301,4.395030260344678,0.7359912582664292,-0.9030222634142444,4.732221095968684,-21.065554293658884
4.977811383480748,4.442352471304364,0.7269610356322868,-1.1136778063508332,5.136825088662747,-21.89517935143785
5.022234908193791,4.493720722190991,0.7158242575687784,-1.3326295998652118,5.6570742310696644,-22.749193871106034
5.067172115415701,4.550291464501687,0.7024979615701263,-1.5601215385762721,6.304492145625155,-23.649808037994234
5.112675030060718,4.613336385957939,0.6868967461843636,-1.7966196189562145,7.092734831073604,-24.624135340367996
5.158808393920297,4.684263734268675,0.6689305499948014,-2.0428609723598945,8.038514755339882,-25.704877191212674
5.205651031262984,4.764648881822073,0.6485019402712024,-2.2999097442720213,9.16273904561921,-26.93129341499347
5.253297520081205,4.856276272278265,0.6255028428284822,-2.569222678421956,10.49189688769564,-28.350538119991445
5.301860282803987,4.961195241155221,0.5998106160442627,-2.8527280596218705,12.059724021701319,-30.019419926483337
5.351472235215539,5.081792481372235,0.571283335448044,-3.152922258886704,13.909130508191588,-32.00657552854866
5.402290160029261,5.22088378645415,0.539754112859177,-3.4729880141721905,16.094250188621473,-34.39485516158959
5.454498997893802,5.381826288340365,0.505024232717455,-3.8169365657880863,18.682137474980827,-37.28324194871715
5.508317260777206,5.568647663090173,0.46685486705957413,-4.189768985275258,21.752824652196374,-40.78648024822197
5.5640037374081075,5.786175909612137,0.4249571772068216,-4.597633787757477,25.39452991780306,-45.027887701367945
5.6218654965042285,6.0401212087901675,0.3789808393292468,-5.0479126647711565,29.6863490036991,-50.11457676562647
5.68226670859213,6.336984698827158,0.3285017126815353,-5.5490584324274215,34.65071631256237,-56.070231638800365
5.745636555580401,6.683491861952782,0.27301112835726105,-6.109760748815425,40.1366070521895,-62.67071210864622
5.8124714741999295,7.084857932474677,0.2119135208691068,-6.736467869901888,45.5559168706349,-69.07373535297037
5.883320053524677,7.540417101181027,0.14454884217008793,-7.427205223431591,49.35842488436405,-73.08203856006295
5.958724224536486,8.034001350024667,0.07027678993577201,-8.15802560903222,48.25446743874942,-70.05361511184803
6.039064238036733,8.516546024412161,-0.011303466154550204,-8.858561760150701,37.0461163001018,-52.67032928662187
6.124229698280855,8.887007187413179,-0.09988908375605722,-9.38526505301692,11.939149387888468,-15.603339411390126
6.213099770154987,9.006398681292064,-0.19374173428622643,-9.54129844713082,-21.332331379719108,33.06111414669372
6.3031637569679075,8.793075367494872,-0.2891547187575346,-9.210687305663884,-46.927803601527074,71.0204490852323
6.391094510642856,8.323797331479602,-0.38126159181417346,-8.50048281481156,-55.71933104105233,85.38811831716039
6.474332483957652,7.766604021069078,-0.46626641996228907,-7.646601631639957,-52.510363754314334,82.83146403674755
6.551998524168343,7.241500383525935,-0.5427324362786886,-6.8182869912724815,-44.946508166257864,74.03864707033543
6.624413528003602,6.792035301863356,-0.6109153061914134,-6.077900520569127,-37.09173475891066,64.71407274490116
6.692333881022236,6.42111795427425,-0.6716943113971047,-5.4307597931201155,-30.255404041961114,56.716556199534054
6.756545060564979,6.118563913854638,-0.7260019093283059,-4.863594231124775,-24.62140896334304,50.32639573554014
6.817730699703525,5.8723498242212075,-0.7746378516395537,-4.360330273769374,-20.03988957380469,45.34890435815881
6.876454197945738,5.67195092848316,-0.8182411543772474,-3.9068412301877853,-16.305529871147286,41.50350296824653
6.933173707230569,5.508895629771687,-0.8573095666791253,-3.49180620050532,-13.237482084077051,38.53639113920356
6.988262663528286,5.376520808930916,-0.8922276286841785,-3.1064422891132843,-10.694293284562239,36.24238660628413
7.042027871617595,5.269577876085294,-0.9232920515753114,-2.744018423050443,-8.570275938994502,34.460685827201026
7.094723650378448,5.183875116695349,-0.9507322358058158,-2.399411564778433,-6.788114180032746,33.06528051490688
7.146562401545402,5.115993974895021,-0.9747263514536001,-2.068758759629364,-5.291934193711325,31.956051411874608
7.197722341294352,5.063074632957908,-0.9954139390498937,-1.749198245510618,-4.041722110020043,31.0518799310522
7.248353087623931,5.022657411857708,-1.0129059215049998,-1.438679446200096,-3.0090067974530266,30.285742519069565
7.298579661742508,4.992567343883177,-1.0272927159670007,-1.1358220210094003,-2.173518674535246,29.601427313494654
7.34850533518134,4.970832157137825,-1.0386509361770946,-0.8398077478744538,-1.5205557560567313,28.951494234774835
7.398213656752718,4.955626599577258,-1.047049013655839,-0.5502928055267055,-1.0388625733446695,28.296149637160845
7.447769922748491,4.945237973843811,-1.052551941711106,-0.267331309155097,-0.7189030809366748,27.60275575792401
7.49722230248693,4.938048943034444,-1.055225254802657,0.008696248424143127,-0.5514697037420047,26.845730596838152
7.546602791917274,4.932534245997023,-1.0551382923184156,0.27715355439252465,-0.5266129799619175,26.00662070022233
7.595928134377244,4.927268116197404,-1.0523667567744903,0.537219761394748,-0.6328987540412397,25.074156996854896
7.645200815539218,4.920939128656992,-1.0469945591605427,0.7879613313632969,-0.8570032449179037,24.044140162384277
7.694410206825788,4.912369096207813,-1.0391149458469098,1.0284027329871397,-1.1836433376081357,22.919050397127112
7.7435338977878665,4.900532662831732,-1.0288309185170383,1.2575932369584109,-1.5958153538044324,21.707334902902165
7.792539224416184,4.884574509293688,-1.0162549861474541,1.4746665859874324,-2.0752875508821416,20.422387745036023
7.841384969509121,4.863821633784866,-1.0015083202875799,1.6788904634377926,-2.6032674272753744,19.081291482036548
7.890023185846969,4.837788959512112,-0.984719415653202,1.869703378258158,-3.161150969515031,17.703428649630496
7.938401075442091,4.806177449816962,-0.9660223818706204,2.046737664754463,-3.731260666447524,16.309087981325177
7.98646284994026,4.768864843152487,-0.9455550052230758,2.2098285445677144,-4.297492150040441,14.918184296505846
8.034151498371784,4.725889921652083,-0.9234567197773986,2.359010387532773,-4.845812193493482,13.549186447805992
8.081410397588305,4.677431799717148,-0.8998666159020708,2.494502252010833,-5.3645781743229355,12.21831209692168
8.128184715585476,4.623786017973918,-0.8749215933819625,2.61668537298005,-5.844675538437632,10.939009823664227
8.174422575765215,4.565339262589542,-0.848754739652162,2.726075471216692,-6.279491095826538,9.72171532819633
8.22007596839111,4.502544351631276,-0.821493984939995,2.8232926244986554,-6.664753928745828,8.573843788889977
8.265101411907423,4.4358968123438185,-0.7932610586950085,2.9090310623875553,-6.998282047729281,7.4999663824271625
8.309460380030862,4.365913991866526,-0.7641707480711329,2.984030726211827,-7.279672881440405,6.50211474897871
8.353119519949527,4.293117263052122,-0.7343304408090147,3.049051873701614,-7.509971165087637,5.580160518562972
8.396050692580047,4.218017551401245,-0.7038399220719985,3.104853478887244,-7.691340836951999,4.732225115009252
8.43823086809406,4.1411041430317255,-0.672791387283126,3.1521757300373365,-7.826759883880331,3.9550853293196915
8.479641909524377,4.062836544192922,-0.6412696299827527,3.1917265833305333,-7.919749904456739,3.2445506052259834
8.520270274966306,3.9836390451483545,-0.6093523641494474,3.224172089382793,-7.974146171566111,2.5957973152562865
8.56010666541779,3.9038975834326934,-0.5771106432556194,3.250130062535356,-7.993909435988223,2.0036528736172143
8.599145641252116,3.8239584890728113,-0.5446093426302658,3.2701665912715283,-7.98297758782981,1.4628281621114647
8.637385226142845,3.744128713194513,-0.5119076767175506,3.284794872892643,-7.9451533849178855,0.9681005744442408
8.67482651327479,3.6646771793453343,-0.4790597279886241,3.294475878637085,-7.884023500981348,0.5144523091720496
8.711473285068243,3.585836944335521,-0.44611496920225324,3.2996204017288058,-7.802903873378151,0.09716971046089441
8.747331654511598,3.5078079056017395,-0.41311876518496515,3.3005920988334148,-7.704806505753081,-0.2880901982587389
8.782409733567615,3.4307598405442086,-0.380112844196631,3.2977111968508273,-7.592423319105013,-0.6452600363509289
8.816717331973058,3.3548356073531584,-0.3471357322281227,3.291258596487318,-7.468123208589949,-0.9778438037909246
8.850265688046589,3.280154375267259,-0.31422314626324954,3.2814801584494084,-7.3339590598808195,-1.2889152619730333
8.883067231799261,3.2068147846684507,-0.2814083446787555,3.2685910058296783,-7.191682049832637,-1.5811288972218331
8.915135379645946,3.1348979641701242,-0.24872243462045868,3.25277971685746,-7.042761069310499,-1.8567400948459134
8.946484359287647,3.0644703534770192,-0.21619463745188408,3.2342123159090006,-6.888405547190013,-2.117631776018345
8.977129062822417,2.995586298005119,-0.1838525142927941,3.213035998148817,-6.729590321428511,-2.365345292442899
9.007084925802468,2.928290394790834,-0.15172215431130592,3.189382545224388,-6.567081500544899,-2.6011138305999872
9.036367829750377,2.862619579785385,-0.11982832885906204,3.163371406918388,-6.4014624954193495,-2.8258969528598623
9.06499402554823,2.7986049548311915,-0.08819461478987817,3.1351124373897896,-6.2331595871280285,-3.0404152060818666
9.092980075096543,2.7362733589599113,-0.05684349041598027,3.104708285328971,-6.062466541708684,-3.2451839706715537
9.120342808686143,2.6756486935428243,-0.025796407562690554,3.0722564456222554,-5.889567896642608,-3.4405459158854437
9.14709929562157,2.6167530145763984,0.004926156893531999,3.037850986463401,-5.714560634474908,-3.6267015810939562
9.173266825767335,2.559607408231649,0.03530466675816601,3.001583970652461,-5.537474032929584,-3.803737726966636
9.198862899849653,2.5042326679023534,0.06532050646469062,2.963546593382795,-5.358287543146713,-3.9716532027001032
9.223905226528677,2.450649792470886,0.09495597239851856,2.923830061355794,-5.17694660190056,-4.13038216132553
9.248411724453385,2.3988803264518803,0.1241942730120765,2.8825262397425386,-4.993376332232426,-4.279814529069881
9.272400527717904,2.348946563129556,0.1530195354095019,2.8397280944518397,-4.807493131196672,-4.419813699562116
9.2958899933492,2.3008716318175892,0.1814168163540203,2.7955299574562185,-4.619214183920987,-4.550231481077108
9.318898709667375,2.2546794899783795,0.2093721159285825,2.7500276426454473,-4.428464979897617,-4.6709203758235605
9.341445504567158,2.2103948401794034,0.23687239235503696,2.703318438887212,-4.235184939978758,-4.781743314722438
9.363549452968952,2.168042990779616,0.2639055767439091,2.6555010057399873,-4.0393312904108445,-4.882581009037448
9.385229882876748,2.1276496778755076,0.29046058680130893,2.6066751956496126,-3.8408813428800785,-4.973337111310747
9.406506379655504,2.089240864446707,0.31652733875780503,2.556941824536505,-3.6398333565455916,-5.053941402041928
9.427398788299971,2.052842530881251,0.3420967570031701,2.5064024105160856,-3.436206169202659,-5.124351235288956
9.447927213608784,2.0184804691892246,0.36716078110833095,2.455158898163196,-3.230037790088192,-5.18455148594869
9.468112018300676,1.9861800912883427,0.3917123700899629,2.4033133833037095,-3.021383146708267,-5.23455324422544
9.48797381921356,1.9559662598212602,0.415745503923,2.350967850861455,-2.810311172960928,-5.274391499306315
9.507533481811771,1.9278631480916508,0.4392551824316146,2.298223935868392,-2.596901416464531,-5.304122045335479
9.526812113292689,1.9018941339270055,0.46223742179029853,2.2451827154150372,-2.381240330238322,-5.323817829390353
9.54583105463196,1.8780817306246222,0.4846892489444489,2.1919445371211337,-2.1634173986506458,-5.3335649443937685
9.564611871938205,1.8564475566381158,0.5066086943156602,2.138608887677196,-1.9435212308021503,-5.333458450872849
9.583176347504585,1.8370123443300943,0.5279947831924322,2.0852743031684673,-1.7216357371683677,-5.323598191315072
9.601546470947886,1.8197959869584106,0.5488475262241169,2.0320383212553166,-1.4978364882317219,-5.304084740622664
9.61974443081747,1.8048176220760934,0.5691679094366701,1.9789974738490899,-1.2721873377291348,-5.275015616780821
9.63779260703823,1.792095748698802,0.5889578841751609,1.9262473176812815,-1.0447373786457774,-5.236481858154229
9.655713564525218,1.7816483749123442,0.6082203573519738,1.8738824990997394,-0.815518287685372,-5.188565058495381
9.673530048274342,1.7734931920354904,0.6269591823429712,1.8219968485147855,-0.5845421040000316,-5.131334938324539
9.691264980194697,1.76764777099549,0.645179150828119,1.77068349913154,-0.3517994807074175,-5.064847522229685
9.708941457904652,1.7641297761884158,0.6628859858194345,1.7200350239092432,-0.11725844328959342,-4.9891439861101885
9.726582755666536,1.7629571917555198,0.6800863360585269,1.6701435840481413,0.11913631260209365,-4.904250236615405
9.74421232758409,1.7641485548815408,0.6967877718990083,1.6211010816819873,0.35746355015639636,-4.810177287073977
9.761853813132905,1.7677231903831048,0.7129987827158282,1.5729993088112475,0.5978250094624563,-4.706922500052035
9.779531045036736,1.7737014404777294,0.7287287758039407,1.525930083810727,0.8403442702996878,-4.594471776217404
9.797268059441514,1.7821048831807262,0.7439880766420479,1.479985366048553,1.085164906404527,-4.472802782242939
9.815089108273321,1.7929565322447716,0.7587879303025334,1.4352573382261236,1.3324478669107833,-4.341889326785446
9.833018673595769,1.8062810109138794,0.7731405036847947,1.391838444958269,1.5823680078073263,-4.201707012747513
9.851081483704908,1.8221046909919527,0.7870588881343774,1.349821374830794,1.835109681995932,-4.05224031554907
