th1 (rad),w1 (rad/s),th2 (rad),w2 (rad/s)
2.2460709282307856,2.8041028162761457,4.183109031664695,2.8138492939596946
2.274111956393547,2.764003379529495,4.211247524604292,2.81066489622892
2.301751990188842,2.7263392335341323,4.239354173566581,2.8117951995410544
2.329015382524183,2.6912188374145507,4.267472125561992,2.8170536731643274
2.3559275708983285,2.6587456018484086,4.295642662293635,2.826254687999927
2.3825150269168125,2.629018686422553,4.323905209173634,2.8392140599005273
2.408805213781038,2.602133660749477,4.352297349772639,2.855749431102556
2.4348265503885327,2.5781830365193135,4.3808548440836645,2.8756804994209877
2.460608380753726,2.5572566772949266,4.409611649077874,2.898829103592359
2.4861809475266754,2.5394420922815555,4.438599940113797,2.9250191718765466
2.511575368449491,2.524824619576616,4.467850131832563,2.9540765398008375
2.5368236146452574,2.5134875035824193,4.497390897230571,2.985828641800282
2.5619584896810816,2.505511870392355,4.527249183648574,3.020104080516877
2.5870136083850053,2.500976604083538,4.557450224453743,3.0567320767007624
2.6120233744258408,2.499958126007479,4.58801754522075,3.09554180203867
2.6370229556859157,2.5025300784049556,4.618972963241137,3.1363615968444614
2.6620482564699652,2.508762913021116,4.650336579209582,3.179018074407886
2.6871358856001764,2.5187233849010022,4.682126759953661,3.223335113933812
2.7123231194491866,2.53247395124322,4.714360111092999,3.269132744437491
2.7376478589616187,2.550072075119542,4.747051438537373,3.3162259227137105
2.763148579712814,2.5715694340694752,4.780213697764511,3.364423209589368
2.7888642740535086,2.5970110340886134,4.813857929860404,3.4135253501184892
2.814834384394395,2.6264342303826043,4.847993183361589,3.463323765200431
2.841098726698221,2.6598676574851807,4.882626421013593,3.513598964304916
2.8676974032730724,2.6973300729626626,4.917762410656642,3.564118891572364
2.894670704002699,2.7388291209634748,4.953403599572366,3.6146372205149047
2.9220589952123337,2.7843600243226474,4.989549971777515,3.6648916158494034
2.94990259545556,2.833904216786997,5.026198887936009,3.7146019846102143
2.97824163762343,2.887427930159325,5.0633449077821115,3.7634687425604523
3.0071159169250232,2.944880754724596,5.100979595207716,3.811171125973004
3.036564724472269,3.006194195155125,5.139091306467446,3.857365582996377
3.0666266664238204,3.0712802481170445,5.17766496229741,3.901684282952607
3.0973394689049907,3.1400300319271106,5.216681805126936,3.943733785923642
3.128739769224262,3.2123125027429635,5.256119142986172,3.9830939187577434
3.1608628942516916,3.287973295822095,5.29595008217375,4.019316907066717
3.1937426272099128,3.3668337342826513,5.336143251244417,4.0519268158063975
3.2274109645527393,3.4486900515001437,5.3766625194024815,4.080419353583693
3.261897865067741,3.5333128767772353,5.417466712938318,4.104262097894202
3.2972309938355133,3.6204470372779296,5.45850933391726,4.12289520007574
3.333435464208293,3.709811732521971,5.499738285918018,4.135732629889725
3.3705335815335125,3.8011011411281186,5.541095612216915,4.142164020319151
3.4085445929447937,3.8939855231247917,5.582517252420106,4.141557173327667
3.447484448176042,3.9881128851239023,5.623932824153383,4.133261286732345
3.4873655770272807,4.083111279980464,5.6652654370207065,4.116610960517317
3.528196689827085,4.178591817039492,5.70643154662588,4.090931036994385
3.56998260799748,4.274152463203737,5.747340856995824,4.055542321842418
3.612724132629517,4.36938271793993,5.787896280214248,4.0097682202840135
3.6564179598089166,4.463869245600893,5.8279939624170884,3.9529423019178958
3.7010566522649255,4.5572025442088036,5.867523385436267,3.8844167759013697
3.7466286777070135,4.648984718845361,5.906367553195281,3.8035718118259436
3.793118524895467,4.738838407563921,5.944403271313541,3.7098255774046995
3.840506908971106,4.826416876017396,5.9815015270875875,3.602644779385316
3.88877107773128,4.911415252306824,6.017527974881441,3.481555387899061
3.937885230254348,4.99358281594429,6.0523435287604315,3.3461530982992587
3.987821058413791,5.072736186686229,6.085805059743424,3.1961129434873574
4.038548420280653,5.148773185849497,6.1177661891782975,3.0311973229961158
4.090036152139148,5.221687073738786,6.148078162408258,2.851261576148881
4.1422530228765355,5.29158081482871,6.176590778169747,2.6562561122237094
4.195168831024823,5.358681003186581,6.203153339291984,2.4462240387210468
4.248755641056689,5.423351111603724,6.2276155796791945,2.221293215388178
4.302989152172726,5.486103825560158,6.249828511833076,1.9816617158406538
4.357850190428327,5.547612400579164,6.269645128991483,1.7275757983895537
4.413326314434119,5.608721245935971,6.286920886975379,1.4592996557026783
4.469413526893479,5.670456288859464,6.301513883532405,1.1770763946059277
4.526118089782074,5.7340361037705865,6.313284647478465,0.8810798420040533
4.583458450819779,5.80088528771282,6.322095445898506,0.5713568190006455
4.641467303696907,5.872652110250587,6.327809014088512,0.2477594100074329
4.700193824799413,5.951233046779691,6.330286608188587,-0.09013357206218081
4.75970615526721,6.038807395168533,6.329385272467965,-0.4431072708743342
4.8200942292188955,6.137885725853066,6.324954199759222,-0.8124156682137422
4.881473086477426,6.251376286823197,6.3168300430770845,-1.1999033208013021
4.943986849345658,6.382673308770989,6.304831009869072,-1.6081465260052816
5.007813582433368,6.535769498715843,6.288749544609019,-2.040614260862719
5.073171277420526,6.715389601862337,6.268343402000392,-2.5018415042989344
5.140325173439149,6.927127357025826,6.243324986957402,-2.997586530893157
5.209596447009408,7.177531854740662,6.213349121648471,-3.5348915014944122
5.281371765556814,7.474002256836625,6.178000206633527,-4.121841241311436
5.3561117881251805,7.824148034596848,6.136781794220413,-4.7665284731563355
5.434353268471149,8.233827227278754,6.08911650948885,-5.474105615946398
5.5166915407439365,8.702200440816824,6.034375453329386,-6.239573730090812
5.603713545152105,9.210911734208363,5.971979716028478,-7.032250573687365
5.695822662494188,9.705018968212817,5.901657210291605,-7.768646979673706
5.792872852176316,10.0742818428029,5.823970740494867,-8.286129874606093
5.893615670604345,10.175952942003759,5.741109441748806,-8.375870405172334
5.995375200024383,9.943718781278704,5.657350737697083,-7.938463192324014
6.09481238783717,9.47807279737519,5.577966105773843,-7.113859851352779
6.189593115810921,8.952008031651323,5.506827507260315,-6.149079214129045
6.279113196127434,8.475783224414439,5.445336715119025,-5.205315800981148
6.3638710283715785,8.084192565154417,5.393283557109213,-4.337350856521999
6.444712954023123,7.775644856088912,5.349910048543993,-3.547617408873128
6.5224694025840115,7.537817087916095,5.314433874455262,-2.822492120864959
6.597847573463173,7.357409082014908,5.2862089532466126,-2.1464939012239683
6.671421664283322,7.2228005885543975,5.264744014234373,-1.5064564631293127
6.743649670168866,7.124333149435824,5.24967944960308,-0.8922636118686781
6.814893001663224,7.053958026922555,5.240756813484393,-0.29660653152028693
6.88543258193245,7.004803547726716,5.23779074816919,0.2854456044046003
6.955480617409717,6.970813821141556,5.240645204213236,0.8568428937246908
7.025188755621133,6.946486178731307,5.249213633150483,1.418882604671969
7.094653617408446,6.9266999817000325,5.263402459197203,1.9714816272752396
7.163920617225447,6.906621976474346,5.283117275469955,2.5134163512095347
7.23298683699019,6.8816730068678895,5.30825143898205,3.0425487274863996
7.30180356705887,6.847541646639068,5.338676926256914,3.556049710072223
7.37027898352526,6.800230922015489,5.374237423357637,4.050623681709037
7.438281292745415,6.736124926209996,5.414743660174727,4.52273131858198
7.505642542007515,6.65206323130099,5.459970973360547,4.968804393212998
7.572163174320525,6.545412817836429,5.509659017292677,5.385444502061749
7.63761730249889,6.414129657520443,5.563513462313294,5.769598364120421
7.701758599074094,6.25680469295654,5.621209445954498,6.118704446373198
7.76432664600366,6.072691249845054,5.682396490418229,6.430808275041687
7.825053558502111,5.861712504393139,5.746704573168646,6.704646010332797
7.883670683546042,5.6244484144224085,5.813751033271974,6.93969717429616
7.939915167690266,5.362101733165932,5.883148005014936,7.136207787231577
7.9935361850219255,5.076442806428501,5.954510082887252,7.295184970162208
8.044300613086211,4.769733279678912,6.027461932588873,7.41836389970922
8.091997945883,4.444629909929189,6.101645571585966,7.508148385895149
8.136444244982291,4.1040713810875475,6.176727055444917,7.567527528954559
8.177484958793167,3.7511530391737273,6.252402330734462,7.5999727680601845
8.214996489184905,3.388996271215769,6.3284020584150635,7.609321715454017
8.248886451897063,3.0206203110841328,6.404495275569603,7.599656885543867
8.279092655007904,2.648824206020433,6.480491844425042,7.575188269119776
8.305580897068108,2.2760854539502207,6.5562437271162395,7.540148406797841
8.32834175160761,1.9044796624736668,6.6316452111842175,7.498707238293804
8.347386548232347,1.535622935100391,6.7066322835671555,7.454911865920034
8.362742777583351,1.1706360739105754,6.7811814022263555,7.41265392551068
8.374449138322458,0.8101275468187827,6.855307941481462,7.375664936259188
8.382550413790646,0.45419080475754653,6.929064590844054,7.347538079827584
8.387092321838221,0.10241111351884924,7.00253997164233,7.331773377840481
8.38811643297341,-0.24612230457725076,7.075857705420734,7.331841939924
8.385655209927638,-0.5928011335210539,7.1491761248199746,7.351263209660411
8.379727198592427,-0.9394784425957935,7.222688756916579,7.393685743447727
8.37033241416647,-1.2884365950785766,7.296625614351056,7.462954822070263
8.357448048215684,-1.6423218416827385,7.371255162571758,7.5631350737144265
8.341024829798856,-2.0040014225691314,7.446886513308903,7.6984258896944615
8.320984815573166,-2.3762557022479314,7.523870772205847,7.872848895114549
8.297222258550686,-2.761141259348698,7.602599261156993,8.089480774417789
8.2696108459572,-3.1587394815878023,7.683494068901171,8.348833993068952
8.238023451141322,-3.5648641989529875,7.76698240883186,8.645784508762956
8.202374809151792,-3.9673206026973054,7.85344025391949,8.964454447952718
8.162701603124818,-4.341084195564822,7.943084798399017,9.271507428472363
8.11929076116917,-4.645445335199334,8.035799872683741,9.51200181352875
8.072836307817177,-4.830637934731418,8.130919890819028,9.618161246642648
8.024529928469862,-4.860529297261764,8.227101503285454,9.540190068163362
7.975924635497244,-4.739521529363458,8.322503403967087,9.282869155879029
7.92852942020361,-4.513436839353001,8.415332095525876,8.906485193404366
7.88339505181008,-4.240077997062714,8.50439694745992,8.486624430150474
7.8409942718394525,-3.962422322538849,8.589263191761425,8.078210064971643
7.801370048614064,-3.702964122397586,8.670045292411142,7.708556965271248
7.764340407390089,-3.4699011441553704,8.747130862063855,7.386209580504896
7.729641395948535,-3.2640442076488654,8.820992957868905,7.110397470402272
7.697000953872046,-3.083115710111929,8.892096932572928,6.876769264988726
7.666169796770927,-2.9238803920409353,8.960864625222815,6.680147252271495
7.636930992850517,-2.7830652804812557,9.027666097745529,6.515657015104474
7.609100340045704,-2.6577008812052294,9.092822667896574,6.379101089771028
7.582523331233652,-2.545209606058344,9.156613678794283,6.267014821477716
7.557071235173069,-2.4433935337650654,9.219283827009061,6.176603383082688
7.532637299835418,-2.350388783310873,9.281049860839888,6.105644270963181
7.509133412002309,-2.264615046969265,9.342106303549519,6.052388024866434
7.486487261532616,-2.184731875303834,9.402630183798184,6.015467500765374
7.464639942779578,-2.109606290939724,9.462784858805838,5.993816485416313
7.443543879870181,-2.0382937778805434,9.522723023660001,5.986594387107724
7.423160942091376,-1.9700341779258768,9.582588967531079,5.993111904939582
7.403460600312117,-1.9042643747039292,9.642520086580474,6.012751601914235
7.384417956565078,-1.840650227864504,9.702647602599615,6.04487675591903
7.366011454286433,-1.7791405017910926,9.763096370158806,6.088721900714183
7.348220049268522,-1.7200448075368395,9.823983589165948,6.143259812184112
7.331019601193153,-1.664134764492944,9.88541618728779,6.207043701373516
7.314378253548224,-1.6127611754238114,9.947486624301526,6.278032061495363
7.298250641793985,-1.5679683613440365,10.010266944916479,6.353419217393712
7.282570958180545,-1.5325693251031036,10.073801137090417,6.429518058885807
7.267245264929515,-1.510125027430604,10.138096317679274,6.501768986547651
7.252144014655209,-1.5047576750491656,10.20311400754475,6.5649677490226255
7.237096437904717,-1.5207400345165305,10.268763685034976,6.613790079622535
7.221889037559552,-1.5618608679463228,10.3349015858312,6.643615523443895
7.206270428880089,-1.6306728257841419,10.401337741065639,6.651513377995018
7.189963700622247,-1.727842428872057,10.467852874845589,6.637104401346642
7.172685276333526,-1.8518602795420638,10.534223918859055,6.602960915523035
7.154166673538105,-1.9992688471724787,10.600253528014285,6.554339977038365
7.13417398506638,-2.1653555872483166,10.665796927784669,6.498318662841282
7.112520429193897,-2.3450682860401253,10.730780114413081,6.442649500897587
7.089069746333496,-2.5338572400351826,10.795206609422056,6.394721481624967
7.063731173933144,-2.728244303529849,10.859153824238305,6.360887614407737
7.036448730897845,-2.926072080002276,10.922762700382382,6.34622187305351
7.007188010097822,-3.1265025712914962,10.986224919112917,6.354620031656261
6.9759229843849075,-3.3298779207788236,11.04977111942948,6.389105674982192
6.942624205177119,-3.5375441606993383,11.113662176179302,6.452221233716863
6.907248763570125,-3.751705538416076,11.17818438851647,6.546431116687905
6.869731708185965,-3.975345830761863,11.24364869968335,6.6745096743353844
6.829978249878346,-4.212233338332069,11.310393796426704,6.8399194202447235
6.787855916495025,-4.467017946149627,11.378792990629151,7.047204921190607
6.743185737033529,-4.745427913385688,11.449265039841057,7.302438848173752
6.695731457899672,-5.054575460652569,11.522289428322795,7.6137605090148845
6.645185703293147,-5.4033745469799435,11.598427033412944,7.992037526617946
6.591151957823348,-5.803039303196449,11.678347408679125,8.45163146192702
6.533121564791383,-6.267505661668738,11.762863723298395,9.011074807929425
6.470446508174695,-6.813225838173012,11.852974471377689,9.692926696177619
6.402314249792965,-7.456638536170758,11.949903738339465,10.520489107204288
6.327747864431257,-8.204516189290995,12.055108629411508,11.504750054771971
6.245702702538347,-9.025506260782493,12.170156129959228,12.605280867609073
6.1554476399305225,-9.785534458768952,12.296208938635319,13.640743562950085
6.0575922953428325,-10.177221261754369,12.43261637426482,14.190539327987736
5.955820082725289,-9.869713290120982,12.574521767544697,13.80240701595034
5.857122949824079,-8.973039244852396,12.7125458377042,12.634199207940334
5.767392557375556,-7.94930641834261,12.838887829783603,11.323278854757714
5.68789949319213,-7.0573805475875355,12.95212061833118,10.21992340659111
5.617325687716254,-6.330659316908624,13.054319852397091,9.364945945180725
5.554019094547168,-5.736986666515619,13.147969311848898,8.71212836158174
5.496649227882012,-5.2407339428718105,13.235090595464715,8.212633613448842
5.444241888453294,-4.814308630357633,13.317216931599203,7.829893899532831
5.396098802149718,-4.437689429900788,13.395515870594531,7.538451621215569
5.35172190785071,-4.096345713337325,13.470900386806687,7.320807700639622
5.310758450717336,-3.7795340024988233,13.544108463813084,7.164868283257413
5.272963110692348,-3.4791539887892164,13.615757146645658,7.062152073414833
5.238171570804456,-3.1890449581392817,13.686378667379806,7.006533588994522
5.206281121223062,-2.9046025830618936,13.75644400326975,6.993306452197873
5.177235095392444,-2.6226357398724076,13.82637706779173,7.018412127451136
5.1510087379937195,-2.3414115446478645,13.896561189066242,7.07773513136973
5.127594622547241,-2.0608443688914746,13.96733854037994,7.166417372793083
5.1069861788583255,-1.7827678388216568,14.03900271410787,7.278204206103496
5.089158500470109,-1.5111869941912102,14.111784756168905,7.404911744475257
5.074046630528197,-1.2523499255225858,14.185833873613658,7.536192272944849
5.061523131272971,-1.0144351218274446,14.261195796343108,7.659835358054208
5.051378780054697,-0.8066799363282933,14.33779414992365,7.7628048196385215
5.043311980691414,-0.6379363285746811,14.415422198120034,7.833003976820105
5.036932617405667,-0.5149255975310842,14.493752237888234,7.861399356885262
5.031783361430357,-0.4407357268653811,14.572366231457087,7.843800850888933
5.027376004161703,-0.4141403047092319,14.650804239965977,7.781577553816042
5.023234601114611,-0.430008429208423,14.728620015504138,7.681005584500675
5.018934516822527,-0.48058951692924706,14.805430071349145,7.551562062180408
5.014128621653234,-0.557124832718697,14.880945691970949,7.403876556522547
5.008557373326047,-0.6512435335118508,14.954984457536174,7.248012514897025
5.002044937990928,-0.755851098996584,15.027464582685145,7.09241743056474
4.994486427000963,-0.8654930882755489,15.098388756990792,6.943534915617732
4.985831496118207,-0.9763363370335503,15.16782410614697,6.805883454723096
4.976068132747872,-1.0859425705394938,15.2358829406942,6.682377625677505
4.965208707042477,-1.1929713784265705,15.302706716950976,6.574722864660742
4.953278993258211,-1.2968942451583871,15.368453945597583,6.483786892673955
4.940310050806627,-1.3977565364592734,15.433291814524322,6.409906932253183
4.926332485442034,-1.4959966258437114,15.497390883846855,6.353125355519776
4.911372519183597,-1.5923176002860984,15.560922137402052,6.313362339808793
4.8954493431807355,-1.6876019857027453,15.62405576080014,6.290539389258982
4.8785733233237085,-1.7828594516917464,15.68696115469273,6.2846675305129445
4.860744728806791,-1.879198832113403,15.74980782999786,6.295911807995436
4.841952740485658,-1.9778175984534028,15.812766948077813,6.324640986363601
4.822174564501124,-2.080003443444139,15.87601335794145,6.371468718526245
4.801374530066682,-2.1871435108043036,15.939728045126712,6.437289881012456
4.779503094958639,-2.3007367435861297,16.004100943936837,6.5233129470772395
4.756495727522778,-2.4224033561063676,16.06933407340761,6.631085392387416
4.732271693961715,-2.553881685267155,16.135644927331484,6.762502826559912
4.706732877109043,-2.696994988800668,16.203269955597083,6.9197813652122
4.679762927221036,-2.8535561449736027,16.272467769249204,7.105352415224632
4.6512273657713,-3.025151691267473,16.34352129340145,7.321602438560767
4.620975848858625,-3.2127011590491317,16.41673731778706,7.57031721320251
4.5888488372681335,-3.415617509977387,16.492440489919087,7.851591868377783
4.554692662168359,-3.6303117682633483,16.570956408602864,8.161849596772758
4.518389544485726,-3.8477729063662736,16.652574904570592,8.49058582921474
4.479911815422063,-4.050289944908577,16.737480762862738,8.815901497408305
4.439408915972977,-4.208656654636501,16.82563977783682,9.100625321099516
4.397322349426612,-4.2837973729788335,16.916646031047815,9.2943960494217
4.354484375696824,-4.238336878261178,17.009589991542033,9.349260934866031
4.3121010069142125,-4.056964012205031,17.103082600890694,9.247153876369145
4.271531366792162,-3.7591102496602304,17.195554139654387,9.01661501904431
4.23394026429556,-3.3878792005513185,17.28572028984483,8.717067025636474
4.200061472290047,-2.986123089139856,17.372890960101195,8.406166114452951
4.170200241398648,-2.5821677080708234,17.456952621245726,8.12099058278912
4.14437856431794,-2.1895184998516966,17.538162527073617,7.878357548751668
4.122483379319423,-1.8121168368409026,17.616946102561133,7.682367477395562
4.104362210951014,-1.449084243687846,17.69376977733509,7.530942669941611
4.089871368514135,-1.097580411033737,17.769079204034504,7.419642759683334
4.078895564403798,-0.7542381136481021,17.84327563163134,7.343493192857183
4.071353183267316,-0.41580471369837974,17.91671056355991,7.29772862703114
4.067195136130333,-0.0793978099182745,17.989687849830222,7.278018446829843
