th1 (rad),w1 (rad/s),th2 (rad),w2 (rad/s),a1 (rad/s^2),a2 (rad/s^2)
2.895958046372854,0.21817777672389013,4.322800564280871,2.773127836554406,0.7834373248028457,8.90614266320632
2.8981398241400926,0.2260121499719186,4.350531842646415,2.862189263186469,1.1748961367939397,8.975849904516307
2.900399945639812,0.237761111339858,4.37915373527828,2.951947762231632,1.5813875095548589,9.059252006395267
2.9027775567532106,0.2535749864354066,4.408673212900596,3.042540282295585,2.003625441632527,9.157361491044334
2.9053133066175647,0.2736112408517319,4.439098615723552,3.1341138972060283,2.4423915940294525,9.271116158805407
2.908049419026082,0.2980351567920264,4.470439754695612,3.2268250587940823,2.8985276725073916,9.401366851706486
2.911029770594002,0.3270204335171003,4.502708005283552,3.320838727311147,3.3729244001240657,9.548863144279363
2.914299974929173,0.36074967751834097,4.535916392556664,3.4163273587539407,3.8665065717111267,9.714236335840182
2.9179074717043565,0.39941474323545223,4.570079666144204,3.5134697221123425,4.380213606974275,9.897979051743649
2.921901619136711,0.443216879305195,4.605214363365327,3.612449512629779,4.914974938822262,10.10042070790701
2.926333787929763,0.49236662869341763,4.6413388584916255,3.713453719708849,5.4716794947948335,10.321698059490092
2.931257454216697,0.547083423641366,4.678473395688714,3.81667070030375,6.051138461419807,10.561720050079318
2.9367282884531107,0.607594808255564,4.716640102691752,3.9222879008045433,6.654040477084208,10.8201262147033
2.9428042365356664,0.6741352130264061,4.7558629816997975,4.030489162951576,7.280898396268712,11.096237985602619
2.9495455886659303,0.7469441969890932,4.796167873329313,4.141451542807602,7.931986830022701,11.389002426201232
2.957015030635821,0.8262640652893202,4.837582388757389,4.255341567069615,8.607269823961433,11.696928204216597
2.9652776712887143,0.9123367635289346,4.880135804428085,4.372310849111781,9.306318322287433,12.018014042996462
2.974401038924004,1.0053999467518089,4.9238589129192025,4.4924909895417455,10.02821752737545,12.349670499316769
2.984455038391522,1.1056821220255633,4.96878382281462,4.615987694534914,10.771464947309072,12.68863674641415
2.995511859611778,1.213396771498654,5.01494369975997,4.742874061999055,11.53386087779062,13.03089513054768
3.0076458273267646,1.3287353802765602,5.06237244037996,4.873183013304532,12.312394334206422,13.371587644630067
3.0209331811295304,1.4518593236186246,5.111104270513005,5.006898889750833,13.103129062618521,13.704940127256382
3.0354517743657166,1.5828906142448098,5.161173259410513,5.1439482910233965,13.901096212001017,14.024201913961678
3.0512806805081647,1.72190157636482,5.212612742320747,5.284190310163013,14.700202488900487,14.32161074304362
3.0684996962718127,1.868903601253825,5.265454645422377,5.427406417593449,15.49316500713918,14.588394768946845
3.087188732284351,2.0238352513252167,5.319728709598311,5.573290365282918,16.2714863519536,14.81482527160004
3.1074270847976035,2.186550114844753,5.37546161325114,5.721438617998918,17.025485235394207,14.990334655563451
3.129292585946051,2.356804967198695,5.4326759994311296,5.871341964554552,17.744399026608995,15.10371407234455
3.152860635618038,2.5342489574647846,5.491389419076675,6.022379105277998,18.416573776890047,15.143402850790682
3.178203125192686,2.718414695233685,5.551613210129456,6.173813133785905,19.02975444754873,15.097877259175913
3.205387272145023,2.908712239709172,5.613351341467315,6.324791906377664,19.571482271430824,14.956138462119112
3.2344743945421146,3.1044270624234804,5.676599260531091,6.474353290998855,20.02959715811729,14.708288726260518
3.2655186651663493,3.3047230340046534,5.7413427934410795,6.62143617826146,20.392830875673425,14.346171388708832
3.2985658955063957,3.5086513427613877,5.807557155223694,6.764897892148548,20.65146218963607,13.864035025124165
3.3336524089340096,3.715165964657748,5.87520613414518,6.90353824239979,20.797989845270443,13.259167707250741
3.370804068580587,3.9231458631104528,5.9442415165691775,7.036129919472297,20.827765711718627,12.5324360508396
3.410035527211692,4.131423520227639,6.014602815763901,7.161454279980693,20.73952159771752,11.688659107431851
3.451349762413968,4.338818736204813,6.086217358563708,7.278340871055011,20.535722215621025,10.736751879868502
3.4947379497760163,4.5441759583610235,6.159000767274258,7.385708389853696,20.22268570915176,9.689588931080701
3.5401797093596263,4.746402815452541,6.2328578511727954,7.482604279164503,19.810432598450017,8.563564725031124
3.587643737514152,4.944507141437041,6.30768389396444,7.568239926414814,19.312252204520167,7.377860993312375
3.6370888089285223,5.137629663482243,6.383366293228589,7.642018536347938,18.744008571769722,6.153467299363004
3.6884651055633446,5.32506974919994,6.459786478592068,7.7035532093415675,18.123239970569195,4.912032563414673
3.741715803055344,5.5063021489056325,6.5368220106854835,7.752673534975714,17.468131259956667,3.6746464394193774
3.7967788245444005,5.680983461505199,6.61434874603524,7.789419999369908,16.79645196015864,2.4606559302830946
3.8535886591594526,5.848947981106785,6.69224294602894,7.814026558672739,16.124552542873882,1.2866134967513798
3.9120781389705206,6.010193506535524,6.770383211615667,7.826892693640253,15.466497950163287,0.1654305821816325
3.972180074035876,6.164858486037157,6.84865213855207,7.828546999462069,14.833394153174916,-0.8942199897878532
4.0338286588962475,6.313192427568906,6.92693760854669,7.81960479956419,14.232935730452798,-1.8882416413585505
4.096960583171937,6.455521784873435,7.005133656542332,7.800722383150604,13.66917527352193,-2.8172090397776817
4.161515801020671,6.592213537608654,7.083140880373838,7.772550292752827,13.142493191985276,-3.6862582835704547
4.227437936396758,6.723638469528506,7.160866383301366,7.735687709917123,12.64973172451664,-4.504820740210742
4.294674321092042,6.850135786773673,7.238223260400537,7.690639502515015,12.184450330965028,-5.286250125489733
4.363175678959779,6.971980290083323,7.315129655425688,7.637777001260118,11.737260304732995,-6.047385794211292
4.432895481860612,7.089352893130653,7.391507425438289,7.577303143318005,11.296202672568485,-6.80808331343841
4.503789010791919,7.202314919856338,7.467280456871469,7.509222310183621,10.847143242623876,-7.590728671696762
4.575812159990482,7.310786352282577,7.5423726799733055,7.433315023466654,10.374170228215526,-8.419736937390008
4.648920023513308,7.414528054564732,7.616705830207972,7.349117654092754,9.859991881792046,-9.32102118633237
4.723065304058956,7.513127973382653,7.6901970067489,7.2559074422294305,9.286343196676153,-10.321403886267628
4.798196583792782,7.605991405349414,7.762756081171194,7.152693403366754,8.634421543593021,-11.447931155684088
4.874256497846276,7.692335620785344,7.8342830152048615,7.038214091809913,7.885380848123291,-12.727040933032715
4.951179854054129,7.771189429266577,7.90466515612296,6.910943682479586,7.020922205528425,-14.183530056460285
5.028891748346795,7.841398651321861,7.973774592947756,6.769108381914983,6.024024824619518,-15.839264374667117
5.107305734860014,7.901638899568057,8.041465676766906,6.610715738168312,4.879863203133669,-17.711583360775062
5.186322123855694,7.950437531599393,8.10757283414859,6.433599904560562,3.5769515808717824,-19.811370899461213
5.2658264991716885,7.986207047408111,8.171908833194195,6.235486195565949,2.1085407245454912,-22.140803044889157
5.34568856964577,8.007292454653566,8.234263695149854,6.014078165117057,0.47425953658714215,-24.690848323474423
5.425761494192305,8.012035050019437,8.294404476801025,5.767169681882313,-1.3180606989980488,-27.438691805548775
5.5058818446924995,7.998854443029456,8.35207617361985,5.492782763826826,-3.250521701260572,-30.345380416118793
5.585870389122794,7.966349226016851,8.407004001258118,5.189328959665638,-5.29349792800958,-33.35413201172343
5.665533881382963,7.913414246736755,8.458897290854773,4.855787639548404,-7.4045355151100996,-36.38988443625837
5.7446680238503305,7.839368891585654,8.507455167250258,4.491888795185821,-9.528251938005432,-39.36073012029575
5.8230617127661874,7.744086372205599,8.552374055202117,4.098281493982864,-11.597693272120575,-42.161815275590726
5.900502576488243,7.628109439484393,8.593356870141946,3.6766633412269565,-13.537495194344881,-44.68201023540074
5.976783670883087,7.492734487540944,8.630123503554216,3.229843238872949,-15.268918877462559,-46.81314891965614
6.051711015758497,7.340045298766318,8.662421935942946,2.7617117496763877,-16.71640587271087,-48.460948367459935
6.12511146874616,7.172881240039209,8.69003905343971,2.2771022660017883,-17.814807213449726,-49.55602817794468
6.196840281146552,6.994733167904712,8.712810076099728,1.7815419842223414,-18.5160554746688,-50.06301907311405
6.266787612825599,6.809572613158023,8.730625495941952,1.2809117934912009,-18.793947496957223,-49.98583277501897
6.334883338957179,6.621633138188451,8.743434613876865,0.7810534657410111,-18.645998217886344,-49.36785951465639
6.401099670339064,6.435173156009587,8.751245148534275,0.2873748705944472,-18.091965027680924,-48.2870065501514
6.465451401899159,6.254253505732778,8.75411889724022,-0.19549519490706685,-17.16941865580428,-46.846708941798504
6.527993936956487,6.082559319174735,8.75216394529115,-0.6639622843250519,-15.927372494696408,-45.164899316363126
6.588819530148235,5.923285594227771,8.7455243224479,-1.115611277488683,-14.41926732100782,-43.36314692526798
6.648052386090512,5.779092921017693,8.734368209673013,-1.549242746741363,-12.696496047107814,-41.55777993427803
6.705843315300689,5.652127960546615,8.718875782205599,-1.9648205460841432,-10.803257404397062,-39.85403602432486
6.762364594906155,5.5440953865026446,8.699227576744757,-2.363360906327392,-8.77303863229747,-38.34347002925737
6.817805548771181,5.4563650001796695,8.675593967681483,-2.7467956066199655,-6.626613096694149,-37.10422999877207
6.872369198772978,5.390098869212728,8.648126011615282,-3.117837906607686,-4.371188473142787,-36.20349013239867
6.9262701874651045,5.3463869844813,8.616947632549206,-3.4798728079316725,-2.000266207375977,-35.70126063352281
6.979734057309917,5.32638432240754,8.58214890446989,-3.8368854142669004,0.5061555236435646,-35.65486289237259
7.032997900533993,5.331445877643976,8.54378005032722,-4.193434043190626,3.181207396703081,-36.12341380455376
7.0863123593104325,5.363257951611007,8.501845709895314,-4.554668181236163,6.070424123720858,-37.17152543012106
7.139944938826543,5.423962192848215,8.456299028082952,-4.926383435537374,9.229841534802151,-38.87082243283024
7.1941845607550245,5.516260608196236,8.407035193727578,-5.315091659865676,12.720781799301639,-41.29628499976543
7.249347166836987,5.643468426189253,8.353884277128921,-5.72805450986333,16.596438934321565,-44.510742407418554
7.30578185109888,5.809432815532468,8.296603732030288,-6.173161933937516,20.869569821625188,-48.5228452660394
7.363876179254205,6.01812851374872,8.234872112690914,-6.65839038659791,25.43893326153429,-53.18761187338722
7.424057464391692,6.272517846364063,8.168288208824935,-7.190266505331782,29.931824006299728,-57.99022571039682
7.486782642855332,6.57183608642706,8.096385543771618,-7.77016876243575,33.39911621003242,-61.62413030566846
7.552501003719603,6.905827248527385,8.01868385614726,-8.386410065492434,33.843532650123436,-61.335377111572335
7.621559276204876,7.244262575028619,7.934819755492336,-8.999763836608157,27.913770196569004,-52.49545429556392
7.694001901955162,7.52340027699431,7.844822117126255,-9.524718379563796,12.103814657733983,-30.27033464634209
7.769235904725106,7.64443842357165,7.749574933330617,-9.827421726027216,-12.827291248560432,4.2270401192223535
7.845680288960822,7.5161655110860455,7.651300716070345,-9.785151324834994,-37.965439012303875,38.563079903547376
7.920841944071682,7.136511120963006,7.553449202821995,-9.39952052579952,-52.813143288276045,58.221144361029026
7.9922070552813125,6.608379688080246,7.459453997564,-8.81730908218923,-55.81502185520217,61.21322071056517
8.058290852162115,6.050229469528224,7.371280906742108,-8.205176875083577,-52.1520777668073,54.856967032953804
8.118793146857398,5.528708691860151,7.2892291379912715,-7.656607204754039,-46.495442974173,45.66240837941473
8.174080233776,5.0637542621184215,7.212663065943731,-7.1999831209598915,-41.0504997944654,36.66899512316559
8.224717776397183,4.653249264173768,7.140663234734133,-6.833293169728235,-36.505924533414564,28.802901009844003
8.271250269038921,4.2881900188396225,7.07233030303685,-6.545264159629795,-32.93857379201092,22.144798617551388
8.314132169227317,3.958804280919513,7.0068776614405515,-6.323816173454281,-30.237193617214665,16.518736547397673
8.353720212036512,3.6564323447473663,6.943639499706008,-6.158628807980304,-28.258214833922196,11.707154846610923
8.390284535483985,3.3738501964081444,6.882053211626205,-6.041557259514195,-26.87359693271314,7.516507988151743
8.424023037448066,3.105114227081013,6.821637639031064,-5.9663921796326775,-25.980584044977952,3.790840427844151
8.455074179718876,2.8453083866312334,6.761973717234737,-5.928483775354236,-25.49944920090138,0.40948603911171966
8.483527263585188,2.5903138946222195,6.702688879481195,-5.924388914963119,-25.368210945866025,-2.718647269051669
8.509430402531411,2.336631785163559,6.643444990331563,-5.9515753876536355,-25.537122404954584,-5.660254132722312
8.532796720383047,2.0812605611140134,6.583929236455027,-6.008177928980858,-25.96359298419578,-8.461227493418646
8.553609325994186,1.8216246312720554,6.523847457165218,-6.092790203915045,-26.607514656560156,-11.148566550470537
8.571825572306906,1.555549484706454,6.462919555126067,-6.20427586941975,-27.42679620659777,-13.730762337269956
8.58738106715397,1.2812815226404761,6.40087679643187,-6.34158349279245,-28.372939385622423,-16.19691531386983
8.600193882380374,0.9975521287842519,6.337460961503946,-6.503552645931149,-29.386624678021768,-18.51492935698596
8.610169403668216,0.7036858820040343,6.272425435044634,-6.6887019395010086,-30.393497887691982,-20.629298754229968
8.617206262488256,0.3997509031271144,6.205538415649624,-6.894994927043308,-31.30067253963936,-22.459296949059542
8.621203771519527,0.0867441777307208,6.136588466379191,-7.119587896533904,-31.994883910394723,-23.898784078141652
8.622071213296834,-0.23320466137322643,6.065392587413852,-7.358575737315321,-32.34368957633949,-24.819298002186763
8.619739166683102,-0.5566415571366214,5.991806830040699,-7.6067687173371885,-32.20144440690147,-25.07838081111802
8.614172751111736,-0.8786560012056361,5.915739142867327,-7.8575525254483685,-31.42167895374499,-24.534863185572263
8.60538619109968,-1.192872790743086,5.837163617612844,-8.10290115730409,-29.87656886324904,-23.07162476241511
8.593457463192248,-1.4916384793755766,5.756134606039803,-8.333617404928242,-27.482081873882123,-20.623853754076066
8.578541078398493,-1.7664592981143978,5.67279843199052,-8.539855942469003,-24.224296443243606,-17.207327062448968
8.56087648541735,-2.008702262546834,5.58739987256583,-8.711929213093493,-20.179372411621188,-12.938053203336285
8.540789462791881,-2.210495986663046,5.500280580434895,-8.841309745126855,-15.518656395977427,-8.034009167067902
8.51868450292525,-2.36568255062282,5.411867482983626,-8.921649836797535,-10.493240499620434,-2.7935703569046786
8.495027677419023,-2.4706149556190242,5.322650984615651,-8.94958554036658,-5.398959685263104,2.446803476782172
8.470321527862833,-2.524604552471655,5.233155129211985,-8.92511750559876,-0.5305096691698338,7.364581606976896
8.445075482338115,-2.5299096491633537,5.143903954155998,-8.85147168952899,3.8621957454083757,11.697742733012102
8.419776385846482,-2.49128769170927,5.055389237260708,-8.734494262198869,7.603782327684775,15.273628485978529
8.39486350892939,-2.415249868432422,4.9680442946387195,-8.581757977339084,10.603907275989386,18.015584655784526
8.370711010245065,-2.3092107956725285,4.882226714865329,-8.401602130781239,12.850302854655238,19.93095374677629
8.34761890228834,-2.180707767125976,4.798210693557516,-8.202292593313476,14.390781037987836,21.088466359228185
8.32581182461708,-2.0367999567460977,4.7161877676243815,-7.991407929721195,15.31147669713385,21.593242532757856
8.30544382504962,-1.8836851897747593,4.63627368832717,-7.775475504393616,15.716835194714792,21.56508290773519
8.286606973151873,-1.7265168378276115,4.558518933283233,-7.559824675316264,15.714218237931009,21.12261561015744
8.269341804773596,-1.5693746554483012,4.48292068653007,-7.34859851921469,15.403788814788806,20.373493525491398
8.253648058219113,-1.4153367673004131,4.409434701337923,-7.144863583959776,14.873010545197184,19.409564007843368
8.23949469054611,-1.2666066618484413,4.337986065498325,-6.950767943881342,14.194572265875797,18.305541351360446
8.226828623927625,-1.1246609391896834,4.2684783860595115,-6.767712530367738,13.426535427933937,17.11982796548798
8.215582014535729,-0.990395584910344,4.200801260755834,-6.596514250712858,12.61372727702096,15.896447626718826
8.205678058686624,-0.8642583121401344,4.134836118248706,-6.437549774445669,11.78968753441975,14.66739228387735
8.197035475565222,-0.7463614367959369,4.0704606205042495,-6.290875851606896,10.978730223289832,13.454962640898321
8.189571861197264,-0.6365741345630386,4.007551861988181,-6.156326225197913,10.197874367973627,12.273882479034858
8.183206119851633,-0.5345953908833023,3.9459885997362014,-6.033587400407564,9.45852743077781,11.13309585053978
8.1778601659428,-0.44001011657552425,3.885652725732126,-5.922256441902166,8.767885643924293,10.03723223421894
8.173460064777045,-0.3523312601362813,3.826430161313104,-5.821884119559977,8.13006018922514,8.987764593202332
8.169936752175682,-0.2710306582440299,3.768211320117504,-5.732006473627954,7.546959817377463,7.983902573661983
8.167226445593242,-0.19556106007025525,3.7108912553812243,-5.652167447891334,7.018968160675765,7.0232673957586504
8.165270834992539,-0.1253713784634976,3.654369580902311,-5.581934773933748,6.54545389899472,6.102392545873627
8.164017121207904,-0.05991683947355041,3.5985502331629737,-5.520910848475012,6.125148011515367,5.217088981846905
8.163417952813168,0.0013346406416032616,3.5433411246782236,-5.468739958656543,5.756416892247874,4.3627073832715215
8.163431299219583,0.058898809564082,3.488653725091658,-5.425112884823828,5.437454371667984,3.5343241722308445
8.164020287315225,0.11327335328076185,3.43440259624342,-5.38976964310152,5.166410254697615,2.726873156846781
8.165153020848033,0.164937455827738,3.3805048998124048,-5.362500911533052,4.941468046668087,1.935240953901927
8.166802395406311,0.21435213629441888,3.3268798906970742,-5.343148501994033,4.760880053228765,1.154341929464983
8.168945916769255,0.2619609368267065,3.273448405677134,-5.331605082699383,4.622963830931531,0.37918732871296
8.171565526137522,0.3081905751360218,3.22013235485014,-5.327813209412254,4.52605976861752,-0.3950363418927969
8.174647431888882,0.353451172822197,3.1668542227560175,-5.331763572831182,4.468445065540128,-1.1728625701256494
8.178181943617105,0.3981356234775983,3.113536587027706,-5.343492198532439,4.448194152806656,-1.9583926128583253
8.182163299851881,0.44261756500566485,3.0601016650423816,-5.363076124661022,4.462969250559609,-2.7550682834816174
8.186589475501938,0.48724725751126097,3.0064709037957713,-5.390626807495838,4.509716842857326,-3.5653330012024944
8.19146194807705,0.5323444259398342,2.952564635720813,-5.426280137507863,4.584236110244459,-4.390131894520683
8.196785392336448,0.5781867870422788,2.8983018343457343,-5.47018145645307,4.680573983395044,-5.228186267784668
8.202567260206871,0.6249925268762292,2.8436000197812037,-5.5224633191309165,4.790189833352678,-6.0749608868298175
8.208817185475633,0.672894425209756,2.7883753865898946,-5.583212927999215,4.9008247912556335,-6.921229289340546
8.21554612972773,0.7219026731223123,2.7325432573099024,-5.652425220892621,4.995015200732218,-7.75114434923495
8.222765156458953,0.7718528251296345,2.6760190051009762,-5.7299366643849705,5.04822469945776,-8.539762563773502
8.230483684710249,0.8223350721242121,2.6187196384571267,-5.815334290022705,5.0266673175429455,-9.250094818946934
