th1 (rad),w1 (rad/s),th2 (rad),w2 (rad/s),a1 (rad/s^2),a2 (rad/s^2)
0.9985514399235274,-1.807906960282815,2.939103086675155,2.0988016531730396,-7.58737390823793,-7.760472121896548
0.9804723703206992,-1.8837806993651944,2.960091103206885,2.021196931954074,-7.889363694942845,-8.1614022698228
0.9616345633270473,-1.9626743363146228,2.980303072526426,1.939582909255846,-8.20356734957814,-8.598497789415735
0.9420078199639011,-2.0447100098104043,2.9996989016189843,1.8535979313616888,-8.529650434176986,-9.071765966532288
0.9215607198657971,-2.130006514152174,3.018234880932601,1.7628802716963659,-8.866848979174279,-9.580670675071396
0.9002606547242754,-2.218675003943917,3.035863683649565,1.6670735649456518,-9.213877639833573,-10.123978651407969
0.8780739046848363,-2.3108137803422526,3.0525344192990214,1.5658337784315721,-9.56882856633805,-10.69958545022191
0.8549657668814137,-2.406502066005633,3.068192757083337,1.458837923929353,-9.929063573501322,-11.30432381355445
0.8309007462213573,-2.5057927017406465,3.0827811363226307,1.3457946857938086,-10.29110392621651,-11.93375985902034
0.8058428192039508,-2.6087037410028118,3.096239083180569,1.2264570872036051,-10.650524177997323,-12.581985912965033
0.7797557817939227,-2.715208982782785,3.1085036540526048,1.1006372280739547,-11.001858931336319,-13.241422914517763
0.7526036919660948,-2.825227572096148,3.1195100263333444,0.9682229989287771,-11.338533943496516,-13.902649871910796
0.7243514162451333,-2.9386129115311133,3.129192256322632,0.8291965002096691,-11.65283535710537,-14.55428242052028
0.6949652871298222,-3.0551412651021668,3.137484221324729,0.6836536760044662,-11.935932516654633,-15.182926410161716
0.6644138744788005,-3.174500590268713,3.1443207580847736,0.531824411902849,-12.177970227048368,-15.773234672914366
0.6326688685761134,-3.2962802925391967,3.149639002203802,0.37409206517370536,-12.368244731964172,-16.308094537101667
0.5997060656507214,-3.4199627398588386,3.1533799228555393,0.2110111198026887,-12.495473504998666,-16.768969084646294
0.565506438252133,-3.544917474908825,3.155490034053566,0.04332142895622576,-12.548161768369143,-17.136405691259153
0.5300572635030447,-3.6703990925925165,3.1559232483431283,-0.12804262795636578,-12.515058572625938,-17.39071077373872
0.49335327257711953,-3.7955496783187757,3.1546428220635647,-0.301949735693753,-12.385683064545677,-17.512770645234948
0.45539777579393176,-3.9194065089642325,3.151623324706627,-0.4770774421461025,-12.150888805250043,-17.48497696619667
0.4162037107042894,-4.040915397016733,3.1468525502851663,-0.6519272118080692,-11.803422924063014,-17.292194730123196
0.3757945567341221,-4.158949626257363,3.1403332781670854,-0.8248491591093012,-11.33843006139608,-16.92269508704011
0.33420506047154847,-4.272333926871324,3.132084786575992,-0.9940761099797024,-10.753850717536647,-16.368968567678063
0.2914817212028352,-4.379872434046691,3.122144025476195,-1.157765795656483,-10.050671021291725,-15.62833924216379
0.2476829968623683,-4.480379144259608,3.1105663675196302,-1.3140491880781209,-9.23299571700133,-14.703317654621173
0.20287920541977222,-4.572709101429621,3.097425875638849,-1.4610823646243327,-8.307936230232558,-13.601657921475596
0.15715211440547602,-4.655788463731946,3.0828150519926054,-1.5970989438390886,-7.285327491296276,-12.336117582970335
0.11059422976815655,-4.728641738644909,3.0668440625542144,-1.7204601196687919,-6.177306679221511,-10.923951620302947
0.06330781238170746,-4.790414805437124,3.0496394613575264,-1.8296996358718214,-4.9978005973638036,-9.386198544233615
0.015403664327336218,-4.840392811410762,3.0313424649988083,-1.9235616213141575,-3.761973826119202,-7.746832277901146
-0.03300026378677141,-4.878012549671954,3.012106848785667,-2.001029944093169,-2.4856868351901,-6.0318569480404145
-0.08178038928349095,-4.9028694180238555,2.992096549344735,-2.061348513573573,-1.1850033864631841,-4.268413693363655
-0.1308090834637295,-4.914719451888487,2.9714830642089995,-2.1040326505072096,0.1242274663254197,-2.4839524006894793
-0.17995627798261438,-4.913477177225233,2.9504427377039275,-2.1288721745141044,1.4267045643573717,-0.7055011894271814
-0.22909104975486672,-4.899210131581659,2.9291540159587863,-2.135927186408376,2.707926202508232,1.0409532667179513
-0.2780831510706833,-4.872130869556577,2.9077947440947027,-2.1255176537411966,3.9543730588350807,2.7309775469651125
-0.3268044597662491,-4.8325871389682264,2.886539567557291,-2.0982078782715456,5.153640834996425,4.342108828884544
-0.37513033115593136,-4.781050730618262,2.8655574887745754,-2.0547867899827,6.294541861029166,5.854195499739345
-0.422940838462114,-4.718105312007971,2.845009620874748,-1.9962448349853066,7.367192128528025,7.249677617744965
-0.4701218915821937,-4.644433390722691,2.825047172524895,-1.923748058807857,8.363094852711402,8.513818659988265
-0.5165662254894205,-4.560802442195577,2.8058096919368163,-1.8386098722079744,9.275225013032987,9.634892704699283
-0.5621742499113763,-4.468050192065247,2.7874235932147364,-1.7422609451609816,10.098112645387168,10.604323686191254
-0.6068547518320287,-4.367069065611376,2.7700009837631265,-1.636217708299069,10.82791706025214,11.41676733507139
-0.6505254424881425,-4.258789895008855,2.753638806680136,-1.522050034948355,11.46248048604688,12.070123146369347
-0.693113341438231,-4.144165090148386,2.7384183063306526,-1.4013488034846615,12.001348393507053,12.565463891520753
-0.7345549923397149,-4.024151606213315,2.724404818295806,-1.275694164569454,12.445745059926221,12.906873830622056
-0.774796508401848,-3.8996941556140525,2.7116478766501113,-1.1466254262632334,12.7984964897815,13.101193264893931
-0.8137934499579885,-3.7717091907162374,2.700181622387479,-1.015613493614294,13.06389796820484,13.157675247814524
-0.8515105418651508,-3.6410702110341893,2.690025487451336,-0.8840367411361487,13.247529386226331,13.087568699875685
-0.8879212439754928,-3.508594917171926,2.6811851200399746,-0.7531610541373919,13.356027060539683,12.903649387586704
-0.923007193147212,-3.375034646566529,2.6736535094986005,-0.6241245602615249,13.396825197862245,12.619725048430555
-0.9567575396128774,-3.241066394587907,2.667412263895985,-0.49792730977721933,13.37788280946704,12.25014267879861
-0.9891682035587565,-3.1072875664932362,2.662432990798213,-0.37542588298923324,13.307412507112296,11.809324549940378
-1.020241079223689,-2.9742134414221133,2.6586787319683207,-0.2573326374898295,13.19362631690614,11.311355325990018
-1.0499832136379101,-2.842277178253052,2.6561054055934226,-0.1442190842299293,13.04451084074091,10.769636572906993
-1.0784059854204406,-2.711832069845643,2.6546632147511233,-0.036522718500859364,12.867640361104169,10.196617993597572
-1.105524306118897,-2.5831556662346014,2.654297987566115,0.06544346143511635,12.670032450025769,9.60360789360746
-1.131355862781243,-2.4564553417343435,2.654952422180466,0.16147954037119094,12.458046855303444,9.000659463233864
-1.1559204161985865,-2.331874873181309,2.6565672175841777,0.25148613500352957,12.237325292613907,8.396524953718178
-1.1792391649303997,-2.20950162025517,2.659082078934213,0.33545138454071133,12.012767485368242,7.798666921109677
-1.2013341811329514,-2.0893739454014875,2.66243659277962,0.4134380537518081,11.788537412012891,7.213314347861787
-1.2222279205869664,-1.9714885712813586,2.666570973317138,0.48557119723042597,11.568093161213623,6.645551387977196
-1.24194280629978,-1.8558076396692222,2.6714266852894424,0.552026711110198,11.354233898475572,6.099427384034267
-1.260500882696472,-1.7422653006844666,2.6769469524005443,0.6130209849505406,11.14915802091112,5.578078324267334
-1.2779235357033167,-1.6307737204753554,2.6830771622500498,0.6688017681932139,10.954527432376237,5.0838517312651845
-1.2942312729080703,-1.521228446151593,2.6897651799319817,0.7196402855058658,10.771533849162047,4.6184288518162075
-1.3094435573695862,-1.4135131076599725,2.6969615827870403,0.7658245740240278,10.60096402551891,4.182939775042852
-1.323578688446186,-1.3075034674047834,2.7046198285272807,0.8076539717744563,10.443261687033079,3.7780686377442474
-1.3366537231202338,-1.2030708505344525,2.7126963682450254,0.8454346581518988,10.298584731978014,3.404147333354154
-1.3486844316255784,-1.1000850032146723,2.7211507148265444,0.8794761314854403,10.16685688756048,3.0612371175187985
-1.3596852816577252,-0.9984164343390675,2.7299454761413986,0.9100885026606284,10.047813490297242,2.7491982196212668
-1.3696694460011158,-0.897938299436095,2.739046361168005,0.937580484856841,9.941041410575574,2.4677480612410116
-1.3786488289954768,-0.7985278853303392,2.7484221660165735,0.9622579654692511,9.84601338006314,2.216508991000724
-1.3866341078487803,-0.7000677515297078,2.758044745671266,0.9844230553792583,9.762117128426233,1.9950466116653898
-1.3936347853640774,-0.6024465802454455,2.7678889762250587,1.0043735214959122,9.688679813519297,1.8028998368923617
-1.3996592511665318,-0.5055597821102525,2.777932711440018,1.0224025198648359,9.624988255330107,1.6396038031112308
-1.4047148489876342,-0.40930989955695146,2.7881567366386664,1.0387985578959482,9.570305474080758,1.504706701837795
-1.4088079479832036,-0.31360684481614387,2.798544722217626,1.0538456249143262,9.523883999503628,1.397781508584689
-1.411944016431365,-0.21836800482110758,2.809083178466769,1.0678234400001732,9.484976371078165,1.3184334805423399
-1.4141276964795761,-0.12351824111032592,2.8197614128667707,1.0810077748055966,9.452843195082924,1.266304186221931
-1.4153628788906794,-0.02898980915949667,2.8305714906148265,1.093670816667816,9.426759068788929,1.2410727227846565
-1.4156527769822744,0.06527778152839261,2.8415081987815047,1.1060815438956626,9.406016628470399,1.242454674816757
-1.4149999991669906,0.1593379478130966,2.852569014220461,1.1185060906438302,9.3899289283715,1.2701992740225128
-1.4134066196888597,0.2532372370968116,2.8637540751268995,1.1312080833840554,9.377830313660684,1.3240851336335935
-1.4108742473178917,0.34701554023341846,2.87506615596074,1.1444489347203914,9.36907591239191,1.403914854412075
-1.4074040919155575,0.44070629935733757,2.8865106453079443,1.1584880832645121,9.363039839791988,1.5095087306353245
-1.4029970289219842,0.5343366977552575,2.8980955261405894,1.1735831705708655,9.359112182733819,1.6406977238543239
-1.3976536619444315,0.6279278195825957,2.909831357846298,1.1899901478094088,9.356694812795077,1.797315818927639
-1.3913743837486057,0.7214947677105464,2.921731259324392,1.2079633059986852,9.355196062517024,1.9791918303309552
-1.3841594360715002,0.8150467283357167,2.933810892384379,1.2277552243019947,9.354024291027107,2.1861406866481956
-1.376008968788143,0.9085869712459878,2.946088444627399,1.2496166311684767,9.35258036176028,2.4179541872671417
-1.366923099075683,1.0021127748635905,2.958584610939084,1.273796173041148,9.350249056357773,2.674391197633733
-1.3569019713270472,1.0956152654271683,2.971322572669495,1.3005400850174853,9.346389454774894,2.955167228174789
-1.3459458186727755,1.189079159974917,2.98432797351967,1.3300917572992332,9.340324322126778,3.2599433275856495
-1.3340550270730263,1.2824824031961848,2.9976288910926625,1.3626911905750898,9.331328557883134,3.588314214184733
-1.3212302030410643,1.3757956887750162,3.0112558029984133,1.398574332716937,9.31861678283134,3.9397955702047662
-1.3074722461533141,1.4689818566033297,3.025241546325583,1.4379722884189847,9.301330163993681,4.313810434085783
-1.2927824275872808,1.5619951582432665,3.0396212692097726,1.4811103927598426,9.278522607706106,4.709674646004693
-1.2771624760048481,1.6547803843203275,3.054432373137371,1.5282071392198895,9.24914648667421,5.1265813329956105
-1.260614672161645,1.7472718491870696,3.06971444452957,1.5794729525498457,9.212038108334463,5.563584463026729
-1.2431419536697743,1.8393922302704142,3.085509174055068,1.635108797180113,9.165903179509591,6.019581553136262
-1.2247480313670702,1.93105126206551,3.1018602620268694,1.6953046127114757,9.109302576256628,6.493295685828268
-1.205437518746415,2.0221442878280764,3.118813308153984,1.7602375695697583,9.040638787832705,6.9832570707277775
-1.1852160758681343,2.1125506757064034,3.1364156838496817,1.830070140277036,8.958143469392095,7.4877844849249255
-1.1640905691110703,2.202132110400324,3.1547163852524522,1.9049479851262854,8.859866608491807,8.004967034905162
-1.142069248007067,2.2907307764852423,3.1737658651037153,1.984997655475337,8.743667884301487,8.532646804233263
-1.1191619402422146,2.3781674553282572,3.1936158416584686,2.0703241235176697,8.607210873521158,9.068403082245121
-1.095380265688932,2.464239564063469,3.2143190828936454,2.161008154340121,8.447960830595628,9.609539007071502
-1.0707378700482972,2.548719172369425,3.2359291644370467,2.257103544410836,8.263186838223138,10.153071597619276
-1.045250678324603,2.6313510407516567,3.258500199881155,2.3586342603870287,8.049969182800444,10.695726288947267
-1.0189371679170864,2.711850732579661,3.2820865424850254,2.4655915232765016,7.805212852724606,11.233937218080593
-0.9918186605912899,2.789902861106907,3.3067424577177906,2.5779308954573077,7.525668078676887,11.76385462598196
-0.9639196319802208,2.865159541893676,3.3325217666723637,2.695569441717127,7.207958826243766,12.281360838379813
-0.935268036561284,2.937239130156114,3.359477461089535,2.8183830501009255,6.848620103274871,12.782096354582919
-0.9058956452597229,3.0057253311888625,3.387661291590544,2.9462040136467547,6.444144846602353,13.261497599209154
-0.8758383919478343,3.070166779654886,3.4171233317270118,3.078818989638846,5.991040992986835,13.7148478654192
-0.8451367241512855,3.130077189584754,3.4479115216234004,3.215967468293038,5.485899103688917,14.13734288657551
-0.8138359522554379,3.1849361806216434,3.480071196306331,3.3573408971587932,4.925470585776838,14.524172301107482
-0.7819865904492215,3.234190886479412,3.5136446052779187,3.502582620169868,4.306756120191141,14.870618005602278
-0.7496446815844273,3.2772584476813234,3.5486704314796174,3.651288800225891,3.62710335100119,15.172170004974959
-0.7168720971076141,3.313529481191335,3.5851833194818763,3.8030105002756405,2.884312198849798,15.42465984680529
-0.6837368022957008,3.3423726031798333,3.6232134244846326,3.9572570987436935,2.0767453265177283,15.624411052478944
-0.6503130762639024,3.3631400564450105,3.6627859954720696,4.113501209268483,1.203440308286605,15.768405119955311
-0.6166816756994523,3.3751744595278765,3.7039210075647544,4.271185260468036,0.26421895591726835,15.854460673876828
-0.5829299311041736,3.377816649087049,3.7466328601694348,4.429729867206804,-0.7402119259131249,15.881422201512155
-0.5491517646133031,3.370414529827918,3.790930158841503,4.588544089221926,-1.808175272025344,15.849353591621636
-0.5154476193150239,3.3523327771076645,3.8368155997337223,4.747037625138142,-2.9369619897509405,15.759730481864796
-0.4819242915439473,3.3229631572101552,3.8842859759851036,4.9046349299567895,-4.122801567032665,15.615624359878197
-0.4486946599718457,3.2817351415398286,3.9333323252846717,5.060791173555572,-5.360874392048726,15.421870642452491
-0.41587730855644744,3.2281263976193415,3.9839402370202275,5.215009879980097,-6.645375006149365,15.185212804411638
-0.38359604458025404,3.161672647557848,4.036090335820028,5.3668620080242135,-7.969634660057142,14.91441529059564
-0.35197931810467553,3.0819763009572765,4.089758955900271,5.51600616093017,-9.326309845862099,14.620339652654652
-0.32115955509510274,2.9887132024986554,4.144919017509572,5.662209557456716,-10.70764091838095,14.315981279968774
-0.2912724230701162,2.8816367933148457,4.201541113084139,5.805369370256404,-12.10578161118497,14.016468305614923
-0.26245605513696774,2.760578977202996,4.259594806786703,5.945534053312553,-13.51319645469511,13.739029675654615
-0.23485026536493778,2.625447012656045,4.319050147319829,6.082924350069099,-14.923119212195937,13.502945700511606
-0.20859579523837732,2.4762158205340854,4.37987939082052,6.217953807074215,-16.330061941988028,13.32950119090084
-0.18383363703303646,2.312915201114205,4.442058928891262,6.3512488189832235,-17.73036161912338,13.241967848974678
-0.1607044850218944,2.1356115849229713,4.505571417081094,6.48366849747297,-19.1227496509346,13.265648052396223
-0.1393483691726647,1.9443840884136252,4.570408102055824,6.616324977996932,-20.50892886640857,13.428015332580442
-0.11990452828852843,1.7392947997495396,4.636571351835793,6.750605131322736,-21.894141537114375,13.758985883275239
-0.10251158029103304,1.5203533843783958,4.704077403149021,6.888194990155489,-23.287708018827107,14.29134714847285
-0.08730804644724907,1.2874763041901247,4.772959353050576,7.031108461640217,-24.703503200278664,15.061347739204923
-0.07443328340534783,1.040441272187338,4.843270437666978,7.181721939032267,-26.160306387923328,16.109405052534882
-0.06402887068347445,0.7788382083081047,4.915087657057301,7.342815989557615,-27.681888735657015,17.480787214054878
-0.0562404886003934,0.5020193209515345,4.9885158169528765,7.517623861698164,-29.296550179787765,19.225921500225425
-0.05122029539087806,0.20905381915365678,5.063692055569858,7.709883076700418,-31.035505101064764,21.39956487455844
-0.04912975719934149,-0.10130123185699086,5.140790886336862,7.923878725446002,-32.928885927305046,24.057228643156343
-0.0501427695179114,-0.4305900911300413,5.220029673591322,8.164451011877565,-34.99688635221735,27.245559444609782
-0.05444867042921181,-0.7805589546522149,5.301674183710097,8.436906606323664,-37.231159017217934,30.98007430196664
-0.06225425997573396,-1.1528705448243943,5.3860432497733335,8.74670734934333,-39.55718228035832,35.1975152618642
-0.0737829654239779,-1.5484423676279775,5.473510323266767,9.098682501961973,-41.761229882966724,39.66002470233163
-0.08926738910025768,-1.9660546664576448,5.564497148286387,9.49528274898529,-43.35796386645595,43.776970062765415
-0.10892793576483413,-2.399634305122204,5.65944997577624,9.933052449612944,-43.381766589789265,46.3180192131937
-0.13292427881605617,-2.833451971020097,5.758780500272369,10.39623264174488,-40.16186573450585,45.0935798625747
-0.16125879852625713,-3.2350706283651554,5.862742826689818,10.847168440370627,-31.40479900469614,37.038141207903244
-0.19360950480990868,-3.5491186184121166,5.971214511093524,11.21754985244966,-15.338035950842006,19.726113919551686
-0.22910069099402985,-3.702498977920537,6.083390009618021,11.414810991645176,6.720655071583557,-5.174451551060092
-0.26612568077323523,-3.635292427204701,6.197538119534473,11.363066476134575,28.909130525254955,-29.97342901171617
-0.30247860504528223,-3.3462011219521517,6.311168784295819,11.063332186017414,44.55863318691645,-46.055103848354236
-0.33594061626480376,-2.900614790082987,6.421802106155993,10.602781147533872,51.666762047669735,-51.15596276874109
-0.36494676416563365,-2.38394716960629,6.5278299176313315,10.09122151984646,52.652518816176446,-48.796346393755016
-0.3887862358616965,-1.8574219814445254,6.628742132829796,9.60325805590891,50.65994363009097,-43.2347306381729
-0.40736045567614176,-1.3508225451436155,6.724774713388885,9.17091074952718,47.69557452218756,-37.07379346841683
-0.4208686811275779,-0.87386679992174,6.816483820884157,8.800172814843013,44.68680001183483,-31.44695275725016
-0.4296073491267953,-0.42699879980339167,6.904485549032587,8.48570328727051,41.962759005183365,-26.709157833800866
-0.43387733712482923,-0.007371209751558028,6.989342581905292,8.218611708932501,39.58625365553677,-22.88917128677468
-0.4339510492223448,0.3884913268038097,7.071528698994617,7.989719996064754,37.51808059874213,-19.903932869960716
-0.4300661359543067,0.763672132791231,7.151425898955265,7.790680667365147,35.68806926555221,-17.645701705507125
-0.4224294146263944,1.1205528254467532,7.2293327056289165,7.614223650310076,34.02334174248655,-16.012891687140538
-0.41122388637192686,1.4607862428716187,7.305474942132017,7.45409473343867,32.45854190441593,-14.918216078289158
-0.39661602394321066,1.785371661915778,7.380015889466404,7.304912572655779,30.938883824142,-14.288449059609196
-0.37876230732405286,2.094760500157198,7.453065015192962,7.162028082059686,29.420532598337402,-14.061578930373642
