th1 (rad),w1 (rad/s),th2 (rad),w2 (rad/s),a1 (rad/s^2),a2 (rad/s^2)
2.53732892401193,3.0302415851747853,1.3716606807138658,-3.0675377470841885,-10.475602262037713,2.9615545990267473
2.567631339863678,2.925485562554408,1.340985303243024,-3.037922201093921,-9.9824848994034,1.8823254776927452
2.596886195489222,2.825660713560374,1.3106060812320848,-3.0190989463169937,-9.575958320584828,0.881131338858368
2.625142802624826,2.7299011303545258,1.2804150917689148,-3.01028763292841,-9.24878985638548,-0.05388810073758841
2.6524418139283714,2.637413231790671,1.2503122154396307,-3.010826513935786,-8.99462554641252,-0.9338626226745234
2.678815946246278,2.547466976326546,1.2202039503002728,-3.0201651401625313,-8.808068049807446,-1.769010453706231
2.7042906160095432,2.4593862958284713,1.1900022988986476,-3.0378552446995934,-8.684652273425419,-2.5686064777226436
2.728884478967828,2.3725397730942173,1.1596237464516517,-3.06354130947682,-8.620769467463075,-3.3410210141477155
2.75260987669877,2.2863320784195866,1.1289883333568835,-3.096951519618297,-8.613566464550757,-4.093784148194881
2.775473197482966,2.200196413774079,1.0980188181607005,-3.137889361100246,-8.66083271129095,-4.833649630255143
2.7974751616207065,2.1135880866611694,1.066639924549698,-3.1862258574027975,-8.760879472139298,-5.566642770357564
2.8186110424873183,2.0259792919397763,1.03477766597567,-3.241892285106373,-8.912410549394687,-6.298082084562363
2.8388708354067163,1.9368551864458294,1.0023587431246064,-3.3048731059519967,-9.114380590633306,-7.032566771077071
2.8582393872711744,1.8457113805394965,0.9693100120650864,-3.3751987736627673,-9.365834706365803,-7.77392261665969
2.8766965010765695,1.7520530334758384,0.9355580243284587,-3.452937999829364,-9.665721241871283,-8.525098394579787
2.894217031411328,1.6553958210571256,0.901028644330165,-3.538188983775162,-10.012667941185786,-9.288003713456142
2.9107709896218994,1.5552691416452677,0.8656467544924135,-3.6310690209097234,-10.404710414897945,-10.063278037735568
2.926323681038352,1.4512220374962883,0.8293360642833162,-3.731701801287079,-10.838960985879783,-10.849979707190109
2.940835901413315,1.3428324276374906,0.7920190462704454,-3.84020159835898,-11.311206088421065,-11.64518389229614
2.95426422568969,1.22972036675328,0.7536170302868556,-3.9566534372819415,-11.815422196942478,-12.443480492376581
2.9665614293572227,1.1115661447838552,0.7140504959140361,-4.081088242205707,-12.343204918684576,-13.236368397016049
2.977677090805061,0.9881340955970094,0.673239613491979,-4.213451926175868,-12.883115033109812,-14.011553198346936
2.9875584317610313,0.8593029452659112,0.6311050942302203,-4.353567458159337,-13.419961014584713,-14.752173811853941
2.9961514612136906,0.7251033351200641,0.587569419648627,-4.501089196277876,-13.934062364395496,-15.436012325011427
3.003402494564891,0.5857627114761091,0.5425585276858482,-4.655449319527991,-14.400574127596,-16.034783253495082
3.0092601216796524,0.44175697020014915,0.4960040344905683,-4.815797152062942,-14.789001178794091,-16.513654140444444
3.013677691381654,0.2938669584122082,0.4478460629699389,-4.980933693467386,-15.063088825307664,-16.83121603249426
3.0166163609657763,0.14323607015913156,0.398036726035265,-5.149245853792329,-15.1813353579496,-16.940189356841092
3.0180487216673675,-0.008577283420364429,0.34654426749734174,-5.31864774736074,-15.098414060818353,-16.789196253401094
3.017962948833164,-0.15956142402854795,0.29335779002373435,-5.486539709894751,-14.767786473077422,-16.32591855836808
3.0163673345928785,-0.30723928875932216,0.23849239292478686,-5.6497988954784315,-14.145694758573088,-15.501843912924171
3.0132949417052854,-0.44869623634505307,0.18199440397000255,-5.804817334607673,-13.19649880525189,-14.27853506151177
3.0088079793418347,-0.580661224397572,0.12394623062392582,-5.94760268522279,-11.898957048677586,-12.634923306801108
3.003001367097859,-0.6996507948843478,0.0644702037716979,-6.073951918290802,-10.252580568429535,-10.574579844466209
2.9960048591490156,-0.8021766005686431,0.003730684588789883,-6.179697716735464,-8.282745516250886,-8.13141360035381
2.9879830931433293,-0.885004055731152,-0.05806629257856476,-6.261011852739002,-6.043036985551892,-5.372027274689131
2.979133052586018,-0.945434425586671,-0.12067641110595478,-6.314732125485893,-3.613534802415196,-2.3932835410325843
2.969678708330151,-0.981569773610823,-0.18382373236081373,-6.338664960896219,-1.0945338582231747,0.6854132680169452
2.959863010594043,-0.9925151121930548,-0.2472103819697759,-6.3318108282160495,1.4036312402521585,3.734226056744405
2.9499378594721124,-0.9784787997905332,-0.3105284902519364,-6.294468567648606,3.772819480806826,6.627156345563273
2.940153071474207,-0.940750604982465,-0.37347317592842244,-6.228197004192973,5.918869796196851,9.255541149562703
2.9307455654243824,-0.8815619070204965,-0.43575514597035214,-6.135641592697346,7.770577219632921,11.53808646310422
2.9219299463541772,-0.8038561348241673,-0.4971115618973256,-6.020260728066304,9.284381827857665,13.425839665253564
2.9138913850059356,-0.7110123165455906,-0.5573141691779886,-5.886002331413768,10.444526432814817,14.901947835897525
2.9067812618404796,-0.6065670522174424,-0.6161741924921262,-5.736982853054792,11.259524656201606,15.977273467754616
2.9007155913183054,-0.4939718056554264,-0.6735440210226742,-5.577210118377247,11.756385808001978,16.683580168734043
2.895775873261751,-0.37640794757540663,-0.7293161222064467,-5.410374316689906,11.974106391272176,17.06601848200387
2.892011793785997,-0.25666688366268486,-0.7834198653733457,-5.239714131869867,11.957614396189701,17.176234160234912
2.8894451249493702,-0.13709073970078783,-0.8358170066920444,-5.067951790267518,11.75287152273472,17.06685752668973
2.8880742175523624,-0.01956202447344063,-0.8864965245947196,-4.897283215000621,11.403388105005366,16.78762270769619
2.887878597307628,0.09447185657661303,-0.9354693567447259,-4.729406987923658,10.948083963145969,16.383012050929292
2.888823315873394,0.20395269620807271,-0.9827634266239624,-4.565576867414365,10.42025345333659,15.89113600712547
2.8908628428354746,0.30815523074143863,-1.028419195298106,-4.406665507343111,9.847335842804087,15.3435047478358
2.893944395142889,0.4066285891694795,-1.0724858503715373,-4.253230459864753,9.251209403953371,14.765374061986005
2.8980106810345836,0.4991406832090132,-1.1150181549701847,-4.105576719244893,8.648780634030114,14.17641120897864
2.903002087866674,0.5856284895493143,-1.1560739221626337,-3.9638126071551065,8.052702114640672,13.591497368087026
2.908858372762167,0.6661555106957211,-1.1957120482341848,-3.8278976334742363,7.472108953857359,13.02154652662209
2.915519927869124,0.7408766002342947,-1.2339910245689272,-3.6976821682080154,6.913308442979295,12.474270066767735
2.9229286938714667,0.8100096846640876,-1.2709678462510072,-3.572939467540338,6.380389675068256,11.954851486576258
2.9310287907181074,0.8738135814147702,-1.3066972409264106,-3.4533909526745754,5.875741107272169,11.46651876589347
2.939766926532255,0.9325709924874919,-1.3412311504531564,-3.338725765015641,5.40047692869646,11.011015780464593
2.94909263645713,0.9865757617744565,-1.3746184081033128,-3.228615607210995,4.9547800801303605,10.588981637469155
2.9589583940748745,1.03612356257576,-1.4069045641754228,-3.122725790836303,4.538172884134259,10.200250087457427
2.969319629700632,1.0815052914171026,-1.4381318220837858,-3.0207232899617287,4.149726988726111,9.844081905921183
2.980134682614803,1.1230025613043637,-1.468339054983403,-2.922282470902517,3.7882237464603317,9.519342461839027
2.9913647082278465,1.160884798768967,-1.4975618796924282,-2.8270890462841267,3.452274920708199,9.224635330784347
3.002973556215536,1.195407547976049,-1.5258327701552694,-2.7348426929762835,3.140412147436164,8.958401211291083
3.0149276316952967,1.2268116694504108,-1.5531811970850322,-2.6452586808633725,2.851152120381305,8.71898981718983
3.0271957483898007,1.2553231906542237,-1.579633783893666,-2.5580687826914743,2.583043131958022,8.504710974110866
3.039748980296343,1.281153621973804,-1.6052144717205807,-2.473021672950366,2.334697442915169,8.31386989863984
3.052560516516081,1.3045005964029557,-1.6299446884500843,-2.3898829739639673,2.104812981631687,8.144790593877689
3.065605522480111,1.3255487262192724,-1.653843518189724,-2.3084350680251906,1.8921870784770705,7.995830442766918
3.0788610097423037,1.3444705970040431,-1.6769278688699758,-2.2284767635975213,1.695724301532522,7.865388397441989
3.092305715712344,1.3614278400193685,-1.699212636505951,-2.1498228796231014,1.5144399537506892,7.751908622705477
3.1059199941125377,1.3765722395568754,-1.720710865302182,-2.0723037933960464,1.347460395476116,7.653881028768815
3.1196857165081067,1.3900468435116364,-1.7414339032361426,-1.9957649831083584,1.1940210496363706,7.5698397993187045
3.133586184943223,1.4019870540080002,-1.7613915530672262,-1.9200665851151713,1.0534627123147788,7.498360765630031
3.147606055483303,1.4125216811311478,-1.7805922189183778,-1.8450829774588708,0.9252266143359857,7.4380582789487555
3.1617312722946145,1.4217739472745077,-1.7990430486929665,-1.7707023946693834,0.8088485482108794,7.387582077855571
3.1759490117673597,1.4298624327566165,-1.8167500726396604,-1.6968265738908277,0.7039522799408156,7.345614523641667
3.190247636094926,1.4369019555560247,-1.8337183383785687,-1.623370428654411,0.6102423993440905,7.310868476083148
3.204616655650486,1.4430043795494656,-1.8499520426651128,-1.5502617438935795,0.527496719814397,7.282085997626912
3.2190466994459808,1.4482793467476096,-1.8654546601040487,-1.4774408839173103,0.4555583139505309,7.258038000893783
3.233529492913457,1.4528349298871148,-1.8802290689432217,-1.4048605039083726,0.3943272613071906,7.2375248890927795
3.248057842212328,1.4567782025001867,-1.8942776739823055,-1.3324852550174449,0.34375218514814926,7.2193781792888805
3.26262562423733,1.4602157243516682,-1.9076025265324799,-1.260291473224556,0.3038216634219322,7.202463043499334
3.277227781480847,1.4632539409858876,-1.9202054412647254,-1.1882668427895626,0.2745556123354486,7.185681652312574
3.291860320890706,1.465999497109242,-1.932088109692621,-1.116410026266437,0.2559967561425603,7.167977160914087
3.3065203158617984,1.4685594646706677,-1.9432522099552854,-1.044730254657296,0.24820231152442265,7.148338139412164
3.321205910508505,1.471041487785912,-1.9536995125018584,-0.9732468732631744,0.2512360268645448,7.1258032198449435
3.335916325386364,1.4735538480545574,-1.96343198123449,-0.901988841064725,0.2651607237697796,7.099465712928181
3.3506518638669096,1.4762054552922552,-1.9724518696451372,-0.8309941839354432,0.29003148873788287,7.0684779399572815
3.365413918419832,1.479105770179634,-1.9807618114844916,-0.7603094045358704,0.3258896558412805,7.0320550303183476
3.3802049761216284,1.4823646667380468,-1.9883649055298502,-0.6899888542326869,0.3727577062373678,6.989477953117313
3.3950286227890087,1.4860922438004205,-1.995264794072177,-0.6200940747015137,0.43063518746899443,6.940095582006336
3.409889545227013,1.4903985956751105,-2.001465734819192,-0.5506931188814503,0.49949572581009616,6.883325634002025
3.4247935311837643,1.4953935529332114,-2.0069726660080067,-0.4818598625414301,0.5792851698849929,6.818654373756936
3.4397474667130963,1.5011864046320613,-2.011791264633421,-0.4136733188038607,0.6699208654745114,6.745635031498539
3.454759330759417,1.5078856132868064,-2.0159279978214597,-0.3462169684888753,0.7712920221492948,6.66388494238196
3.469838186892285,1.5155985335082993,-2.0193901675063484,-0.2795781190650557,0.8832610945543159,6.573081473858194
3.484994172227368,1.5244311444538425,-2.022185948696999,-0.21384730432647375,1.0056660670795279,6.472956862543389
3.5002384836719065,1.5344878051246378,-2.0243244217402636,-0.14911773570103987,1.13832350220591,6.36329213014963
3.5155833617231527,1.5458710401466969,-2.025815599097274,-0.08548481439954356,1.281032191408127,6.243910287166676
3.53104207212462,1.5586813620607782,-2.0266704472412695,-0.023045711527876794,1.4335772338838435,6.114669061902851
3.5466288857452275,1.5730171343996167,-2.0269009043565482,0.03810097909115172,1.5957343626468512,5.975453410882252
3.562359057089224,1.5889744780260853,-2.0265198945656366,0.09785551319997424,1.7672743390910337,5.826168075070308
3.578248801869485,1.6066472214169956,-2.025541339433637,0.15611719395067733,1.947967244846969,5.6667304464148325
3.594315274083655,1.6261268938654652,-2.02398016749413,0.21278449841482566,2.1375865119922475,5.497064002884524
3.6105765430223093,1.6475027589853877,-2.021852322509982,0.2677551384436709,2.3359125474890354,5.317092560204017
3.627051570612163,1.670861884460278,-2.019174771125545,0.32092606404571106,2.542735822964435,5.126735577776325
3.6437601894567657,1.6962892426899223,-2.015965510485088,0.3721934198234743,2.7578593144006085,4.92590474794444
3.660723081883665,1.7238678358339283,-2.012243576286853,0.42145246730291874,2.9811001857540056,4.714502094877317
3.6779617602420043,1.7536788376914685,-2.008029051613824,0.4685974882516919,3.2122906138287735,4.492419814999166
3.695498548618919,1.7858017438297562,-2.003343076731307,0.5135216864016836,3.451277646813628,4.259542107933284
3.7133565660572163,1.8203145202978925,-1.9982078598672903,0.5561171074810165,3.697921973727351,4.015749278220896
3.731559711260195,1.8572937400351661,-1.99264668879248,0.5962746002632254,3.9520954545815763,3.7609244363574965
3.750132648660547,1.8968146945809818,-1.9866839427898477,0.6338838446268004,4.213677219279987,3.4949631957054166
3.7691007956063567,1.9389514667737817,-1.9803451043435798,0.6688334765838545,4.482548084950264,3.217786852335969
3.7884903102740943,1.9837769476232843,-1.9736567695777412,0.7010113451072142,4.758582964263733,2.9293596505287205
3.808328079750327,2.0313627772659215,-1.9666466561266691,0.7303049416125014,5.041640839025862,2.629710879984104
3.828641707522986,2.0817791856561803,-1.959343606710544,0.7566020504123424,5.3315517517996165,2.318962723634147
3.849459499379548,2.1350947031741763,-1.9517775862064206,0.7797916776486838,5.628100122075921,1.9973649777243951
3.87081044641129,2.1913757043949356,-1.9439796694299338,0.7997653274259278,5.931003522496421,1.665337996367233
3.892724203455239,2.2506857396199,-1.9359820161556744,0.8164187073896001,6.239885857609868,1.323525464030292
3.915231060851438,2.3130845981959984,-1.9278178290817785,0.829653962029903,6.554243680245068,0.9728588563846137
3.938361906833398,2.3786270349984493,-1.9195212894614795,0.8393825505937492,6.873404174569628,0.6146356846321194
3.9621481771833826,2.4473610767441456,-1.911127463955542,0.8455289074400704,7.196473158868094,0.250613782917886
3.986621787950824,2.5193258083328267,-1.9026721748811413,0.8480350452692492,7.5222713630706215,-0.11687608500078873
4.011815046034152,2.594548521963533,-1.8941918244284488,0.8468662844192414,7.849257292432209,-0.4847972753483977
4.037760531253787,2.673041094887855,-1.8857231615842565,0.8420183116657574,8.175435315018898,-0.8492526442539304
4.064490942202665,2.754795448038044,-1.877302978467599,0.8335257852232181,8.498248373345803,-1.20530833090233
4.092038896683046,2.839777931771502,-1.8689677206153668,0.8214727019141947,8.814456146951144,-1.54679845701733
4.120436676000761,2.9279224932410135,-1.8607529935962248,0.8060047173440215,9.120001872060623,-1.8661171652139206
4.149715900933171,3.0191225119616196,-1.8526929464227846,0.7873435456918823,9.409874688271884,-2.154010279687145
4.179907126052788,3.1132212588443386,-1.8448195109658658,0.7658034428950108,9.677979644427031,-2.3993871291386806
4.211039338641231,3.210001055288609,-1.8371614765369157,0.7418095716036239,9.917034526016444,-2.5891839367794076
4.243139349194117,3.3091714005487733,-1.8297433808208796,0.7159177322358299,10.118521264295767,-2.708323300739041
4.276231063199605,3.410356613191731,-1.8225842034985213,0.6888344992284394,10.272728941525987,-2.7398282313420252
4.310334629331522,3.513083902606991,-1.815695858506237,0.6614362169150192,10.368933266307375,-2.665160845738005
4.345465468357592,3.6167732352700646,-1.809081496337087,0.6347846084576392,10.395760282323076,-2.464859746912924
4.381633200710293,3.7207308380932953,-1.8027336502525104,0.6101360109885099,10.341774851779764,-2.1195386226071014
4.4188405090912255,3.824148586611093,-1.7966322901426253,0.5889406247624389,10.19631120432258,-1.6112728470017275
4.457081994957337,3.926111698654319,-1.7907428838950008,0.5728278962924216,9.95051903126112,-0.9253340766075729
4.4963431119438795,4.025616888966931,-1.7850146049320765,0.5635745555263458,9.598534795607192,-0.05213576526269177
4.536599280833549,4.121602236923002,-1.7793788593768132,0.5630531978737189,9.138614142104828,1.0108600581451683
4.5778153032027795,4.2129883783440505,-1.773748327398076,0.5731617984551706,8.573999475247238,2.2576200391212153
4.61994518698622,4.298728373096523,-1.7680167094135244,0.5957379988463827,7.913277578241295,3.6727791792901945
4.662932470717185,4.377861148878936,-1.7620593294250606,0.6324657906392847,7.170033394096293,5.2319500685291445
4.706711082205974,4.449561482819899,-1.7557346715186677,0.6847852913245761,6.3617353366145215,6.903220520401093
4.751206697034173,4.513178836186044,-1.7488868186054218,0.7538174965285871,5.507968202727284,8.64969064591122
4.796338485396034,4.568258518213317,-1.741348643640136,0.8403144029876993,4.628303571304315,10.43263790532541
4.842021070578167,4.61454155392636,-1.732945499610259,0.9446407820409535,3.740197877433519,12.214740161994285
4.888166486117431,4.651943532700695,-1.7234990917898494,1.0667881836608963,2.857294374865013,13.962794831939737
4.934685921444438,4.680516476449346,-1.7128312099532403,1.2064161319802937,1.98838474456279,15.649539218499553
4.981491086208932,4.700400323894973,-1.7007670486334374,1.3629115241652894,1.1371105960854286,17.254430686239854
5.0284950894478815,4.711771429855827,-1.6871379333917844,1.535455831027688,0.30232069712293863,18.763489291620267
5.07561280374644,4.714794636827056,-1.6717833750815074,1.7230907239438906,-0.5211050600807392,20.168467071056575
5.12276075011471,4.709583586226249,-1.6545524678420684,1.9247753946544564,-1.3411847250807456,21.465662947159668
5.169856585976973,4.696171738975441,-1.635304713895524,2.139432024126053,-2.167707972791508,22.654669000203942
5.216818303366727,4.674494659247526,-1.6139103936542634,2.3659787141280924,-3.011187311893182,23.73725226854471
5.263563249959202,4.6443827861285945,-1.5902506065129824,2.6033512368135394,-3.881956922285866,24.716484291087376
5.310007077820488,4.605563216905736,-1.564217094144847,2.850516079724413,-4.78943854755464,25.596152650394796
5.356062709989546,4.55766883143019,-1.5357119333476028,3.106477606228361,-5.7415608839833165,26.38043415130615
5.401639398303848,4.500253222590357,-1.5046471572853193,3.3702819477414225,-6.7443018786734354,27.07377676123742
5.4466419305297515,4.432810203803622,-1.470944337807905,3.6410197153537966,-7.801317188458636,27.68092082329464
5.4909700325677875,4.354797031919036,-1.434534140654367,3.917828923586743,-8.913617124936085,28.206982138312483
5.534518002886978,4.265660860669675,-1.3953558514184996,4.199898744969868,-10.079253893560779,28.657514126608675
5.577174611493675,4.164868321734067,-1.353356863968801,4.486473886235955,-11.292977127597267,29.038458750665644
5.6188232947110155,4.051938550458095,-1.3084921251064414,4.776858473742611,-12.545805876236178,29.35588272037565
5.659342680215596,3.926480491695733,-1.2607235403690153,5.070417300946367,-13.824447319459566,29.615373946774795
5.698607485132554,3.7882360185011374,-1.2100193673595516,5.366571040414115,-15.110465362642078,29.820941090094383
5.736489845317565,3.6371313648747168,-1.1563536569554105,5.664780451315059,-16.379066374894006,29.97321561998571
5.772861158966312,3.473340701125777,-1.0997058524422598,5.964512607514916,-17.597329097825185,30.066704559172482
5.80759456597757,3.297367410147525,-1.0400607263671107,6.265179653106641,-18.721674694395233,30.085797440745264
5.840568240079045,3.110150663203573,-0.9774089298360442,6.566037627514094,-19.694383915647453,29.99923214513744
