th1 (rad),w1 (rad/s),th2 (rad),w2 (rad/s),a1 (rad/s^2),a2 (rad/s^2)
4.391188929724875,2.83274444508437,5.1365293074975815,1.113029506547144,11.55742766524542,-5.0037600138678044
4.4195163741757195,2.9483187217368245,5.147659602563053,1.062991906408466,11.92236833766892,-5.797565115812753
4.448999561393088,3.067542405113514,5.158289521627138,1.0050162552503386,12.30390993655079,-6.62329413993443
4.479674985444223,3.1905815044790216,5.168339684179641,0.9387833138509942,12.702847968844425,-7.478287868951566
4.511580800489013,3.3176099841674658,5.177727517318151,0.8640004351614785,13.119380996787761,-8.358219106272811
4.544756900330688,3.4488037941353435,5.186367521669766,0.7804182440987504,13.55269252298368,-9.25641221768297
4.5792449382720415,3.5843307193651803,5.194171704110754,0.6878541219219206,14.000350855703202,-10.162901350213314
4.615088245465693,3.7243342279222125,5.201050245329973,0.5862251084197875,14.457466170828976,-11.063144024974356
4.652331587744915,3.8689088896305024,5.20691249641417,0.4755936681700439,14.915535739312986,-11.936297984011752
4.69102067664122,4.0180642470236325,5.211668433095871,0.3562306883299264,15.360912090721088,-12.752979414012328
4.731201319111457,4.171673367930843,5.2152307399791695,0.2287008941898031,15.772861457416317,-13.472474636138076
4.772918052790765,4.329401982505006,5.217517748921067,0.09397614782842234,16.121270558460644,-14.039517790082837
4.816212072615816,4.490614688089613,5.218457510399351,-0.046419030072406026,16.36425368269783,-14.381038739580127
4.861118219496712,4.654257224916591,5.2179933200986275,-0.1902294174682073,16.446263957566746,-14.403805999044229
4.907660791745878,4.818719864492259,5.216091025923945,-0.3342674774586496,16.29785561701408,-13.994682687599441
4.9558479903908,4.9816984206624,5.212748351149359,-0.474214304334644,15.838904972648992,-13.026167007141686
5.0056649745974235,5.14008747038889,5.208006208106013,-0.6044759744060608,14.98754520147033,-11.37051438120977
5.0570658493013125,5.289962922403594,5.201961448361952,-0.7181811182181586,13.676561804296824,-8.924954889822404
5.109965478525348,5.426728540446562,5.19477963717977,-0.8074306671163826,11.876503614620466,-5.646837248608784
5.164232763929814,5.545493576592767,5.186705330508606,-0.8638990396024704,9.619852888646449,-1.5903226174351692
5.219687699695742,5.6416921054792315,5.178066340112581,-0.8798022657768221,7.015110097252273,3.0718088321792005
5.276104620750534,5.711843206451754,5.169268317454812,-0.8490841774550301,4.238536998584062,8.059401887828496
5.333223052815051,5.754228576437595,5.160777475680262,-0.7684901585767451,1.4994270606634117,13.035665068712255
5.390765338579428,5.769222847044229,5.153092574094495,-0.6381335078896225,-1.0100515545064355,17.681702041104746
5.44845756704987,5.759122331499165,5.146711239015598,-0.46131648747857507,-3.158543420966127,21.762943342726388
5.506048790364861,5.727536897289504,5.142098074140812,-0.2436870540513112,-4.894637350771259,25.160526884535397
5.563324159337756,5.678590523781791,5.1396612036002995,0.007918214794042755,-6.238737515850837,27.86270657214494
5.620110064575574,5.616203148623283,5.13974038574824,0.28654528051549216,-7.258595188881281,29.93141032952798
5.6762720960618065,5.54361719673447,5.142605838553395,0.585859383810772,-8.042528929535072,31.46417911960269
5.731708268029151,5.4631919074391195,5.148464432391503,0.9005011750067988,-8.67918984845725,32.564706157622865
5.7863401871035425,5.376400008954547,5.1574694441415705,1.2261482365830274,-9.246106851810708,33.325742044631134
5.840104187193088,5.28393894043644,5.169730926507401,1.5594056570293389,-9.805283552367497,33.82227096638698
5.892943576597452,5.185886104912765,5.185324983077694,1.8976283666932088,-10.403060307542303,34.11112879626068
5.94480243764658,5.0818555018373415,5.2043012667446265,2.2387396546558156,-11.071949604330483,34.233783750976414
5.995620992664953,4.971136005794037,5.226688663291185,2.58107749216558,-11.833031748375209,34.22017362749849
6.045332352722893,4.852805688310284,5.2524994382128405,2.9232792284405646,-12.698217949530413,34.092492584450945
6.093860409605996,4.7258235088149805,5.281732230497246,3.264204154285074,-13.672133766974392,33.868455712356486
6.141118644694146,4.589102171145236,5.314374272040097,3.6028887114086388,-14.753601957588623,33.563904099079124
6.187009666405598,4.44156615156935,5.350403159154183,3.93852775239943,-15.936793003199117,33.19475847465023
6.231425327921292,4.282198221537358,5.389788436678177,4.270475337145932,-17.212126867572362,32.778373650389334
6.274247310136666,4.110076952861635,5.4324931900496365,4.5982590736498254,-18.56698803435457,32.33434176884671
6.315348079665282,3.9244070725180897,5.478475780786135,4.921602491338293,-19.986275862064176,31.88476578049291
6.354592150390463,3.724544313897448,5.527691805699518,5.240450149143221,-21.452760300334766,31.453983930485204
6.391837593529438,3.5100167108941003,5.58009630719095,5.554989988448074,-22.94714847698553,31.067668506872916
6.426937760638379,3.280545226124245,5.635646207075431,5.865666673516802,-24.447685168766856,30.751136815285065
6.459743212899621,3.0360683744365766,5.694302873810599,6.173178041669653,-25.929000505189222,30.526582095368827
6.490103896643987,2.7767783693846844,5.756034654227296,6.478443862623341,-27.359770296249863,30.40873584804895
6.517871680337834,2.503180666422186,5.8208190928535295,6.782531221103831,-28.6985617508131,30.398194636026222
6.5429034870020555,2.216195048914055,5.888644405064568,7.086513167464093,-29.887019061217742,30.471299660025736
6.565065437491196,1.9173248583018774,5.959509536739209,7.391226164064351,-30.83939795546362,30.565166674990927
6.584238686074214,1.6089308787472412,6.033421798379853,7.696877830814261,-31.4276881575135,30.55662127301372
6.600327994861686,1.294653997172106,6.110390576687995,8.002444043544397,-31.46291094733567,30.23539795977354
6.613274534833407,0.9800248876987494,6.1904150171234384,8.304798023142132,-30.677137760172553,29.277055731867545
6.623074783710395,0.6732535100970238,6.2734629973548595,8.597568580460807,-28.719485034829237,27.232658819260287
6.629807318811365,0.38605865974873144,6.359438683159468,8.86989516865341,-25.193366940277716,23.571402847636712
6.633667905408853,0.13412499034595426,6.4481376348460016,9.105609197129779,-19.773111716431547,17.827883350198068
6.6350091553123125,-0.0636061268183612,6.5391937268173,9.28388803063176,-12.416679587997047,9.878547278781694
6.634373094044129,-0.18777292269833168,6.632032607123618,9.382673503419577,-3.5989923006216977,0.24928026947316942
6.632495364817146,-0.22376284570454866,6.725859342157814,9.385166306114309,5.638846090709374,-9.816856742426049
6.6302577363601,-0.16737438479745492,6.819711005218957,9.286997738690049,14.003792275817615,-18.767801881614922
6.628583992512126,-0.02733646203927878,6.912580982605857,9.0993197198739,20.492551146643095,-25.4407260945382
6.628310627891733,0.17758904942715217,7.0035741798045965,8.844912458928519,24.744301115231814,-29.498764955864978
6.630086518386005,0.4250320605794703,7.092023304393882,8.54992480936987,26.976861050515136,-31.320114172664926
6.6343368389918,0.6948006710846217,7.177522552487581,8.23672366764322,27.68393039802186,-31.590784279206797
6.641284845702646,0.9716399750648403,7.259889789164013,7.920815824851152,27.370514431715115,-30.96675037700516
6.651001245453295,1.2453451193819915,7.339097947412524,7.6111483210811,26.430987920620467,-29.93112616264768
6.663454696647115,1.5096549985881962,7.415209430623335,7.311837059454623,25.13240853143321,-28.787117376029375
6.678551246632997,1.7609790839025283,7.488327801217881,7.023965885694329,23.640984223556217,-27.701941913354805
6.696161037472023,1.9973889261380906,7.5585674600748245,6.746946466560781,22.054934967502916,-26.75439835866364
6.716134926733404,2.2179382758131196,7.626036924740433,6.479402482974145,20.43060156462235,-25.970748510919083
6.738314309491535,2.422244291459343,7.6908309495701745,6.219694997864954,18.800042664651688,-25.34810754730993
6.762536752406129,2.61024471810586,7.753027899548824,5.966213922391854,17.18193214756941,-24.868595011474234
6.7886391995871875,2.782064039581554,7.812690038772743,5.717527972277112,15.587950336601818,-24.507545679666105
6.816459839983003,2.9379435429475724,7.869865318495514,5.472452515480451,14.026358310522562,-24.238156054104277
6.845839275412479,3.078207126052798,7.924589843650319,5.230070954939408,12.503879867541299,-24.034068795258403
6.876621346673007,3.203245924728211,7.976890553199713,4.9897302669868235,11.02659416615342,-23.87078471347413
6.908653805920289,3.313511866389745,8.02678785586958,4.751022419852082,9.600266775250603,-23.726409081949356
6.941788924584186,3.409514534142251,8.0742980800681,4.513758329032588,8.230376979871902,-23.58201357182533
6.975884069925608,3.49181830394097,8.119435663358427,4.277938193314335,6.921996546516748,-23.421767298796848
7.010802252965018,3.5610382694061373,8.162215045291571,4.043720520326366,5.679613106882051,-23.23292034888792
7.046412635659079,3.617834400474958,8.202652250494834,3.8113913168374873,4.506953216324799,-23.00568610133281
7.082590979663829,3.662903932638206,8.24076616366321,3.5813344558241593,3.4068361377796488,-22.733050069905527
7.119220018990211,3.6969722940160024,8.276579508221452,3.354003955125104,2.381073856770853,-22.410524307384875
7.156189741930371,3.720783032583711,8.310119547772704,3.129898712051255,1.4304225770489682,-22.035862737612096
7.193397572256208,3.7350872583542003,8.341418534893217,2.9095400846751343,0.5545841954268435,-21.60875130537142
7.23074844483975,3.7406331003084685,8.370513935739968,2.69345257162142,-0.24774802294186674,-21.130486045645583
7.268154775842834,3.73815562007905,8.397448461456182,2.482147711164964,-0.9788077912356102,-20.60365131272814
7.305536332043625,3.7283675421666937,8.422269938567831,2.276111198037683,-1.6416474458064634,-20.031809174798813
7.342820007465291,3.711951067708629,8.445031050548208,2.075793106289695,-2.2400121760468883,-19.419209334660707
7.379939518142377,3.68955094594816,8.465788981611105,1.8816010129430878,-2.7782053871638053,-18.770526987455177
7.416835027601858,3.661768892076522,8.484604991740536,1.693895743068536,-3.2609525110161295,-18.09063393602746
7.453452716522624,3.6291593669663604,8.501543949171221,1.5129894037082614,-3.6932690739001544,-17.384406225585046
7.489744310192288,3.5922266762273587,8.516673843208304,1.339145341452411,-4.080337232664718,-16.656569677066738
7.525666576954562,3.5514233039007115,8.530065296622828,1.1725796446817436,-4.4273934444984855,-15.911583096270249
7.5611808099935685,3.5071493694557265,8.541791093069646,1.013463813719041,-4.739628545042205,-15.153557667931755
7.596252303688126,3.4597530840053046,8.551925731206836,0.8619282370397234,-5.022100342947282,-14.386210118899786
7.630849834528179,3.409532080575832,8.560545013577233,0.7180661358507255,-5.279657936347081,-13.612846621047485
7.664945155333938,3.356735501212361,8.56772567493574,0.5819376696402507,-5.516876335719896,-12.836374041163907
7.698512510346061,3.301566737855162,8.573545051632143,0.45357392922861167,-5.737999641241058,-12.059334950354609
7.731528177724613,3.2441867414427517,8.57808079092443,0.33298057972506556,-5.946890964834777,-11.28396268848454
7.7639700451390405,3.184717831794404,8.58141059672168,0.22014095284022017,-6.14698749608696,-10.512252649732744
7.795817223456985,3.1232479568335343,8.583612006250082,0.11501842634289272,-6.341259570209053,-9.746045734783213
7.82704970302532,3.059835361131444,8.58476219051351,0.017557968995060597,-6.5321732804496335,-8.987119548221704
7.857648056636635,2.994513628326948,8.58493777020346,-0.07231322648715645,-6.72165704732079,-8.237282387215135
7.887593192919905,2.92729705785374,8.584214637938588,-0.1546860503593078,-6.911073550038119,-7.498464400008732
7.916866163498442,2.8581863223533586,8.582667777434995,-0.22967069435939513,-7.101199446599314,-6.772799582038893
7.945448026721976,2.7871743278873655,8.5803710704914,-0.29739869017978404,-7.292216224533939,-6.062691682686751
7.973319770000849,2.714252165642026,8.577397083589602,-0.35802560700665154,-7.483716164512765,-5.370856837670913
8.00046229165727,2.6394150039968984,8.573816827519536,-0.41173417538336066,-7.67472757140154,-4.700336079502549
8.02685644169724,2.562667728282883,8.569699485765703,-0.45873753617838614,-7.863762947892321,-4.054472061769157
8.052483118980067,2.48403009880396,8.56511211040392,-0.49928225679607774,-8.04889252489739,-3.436846536930675
8.077323419968106,2.403541173554986,8.56011928783596,-0.5336507221653845,-8.227843500277366,-2.851178371828096
8.101358831703656,2.321262738552212,8.554782780614305,-0.5621625058836655,-8.39812261179908,-2.3011859663357677
8.124571459089179,2.2372815124342216,8.549161155555469,-0.5851743655470232,-8.557156602159042,-1.7904223995665525
8.14694427421352,2.1517099464126312,8.5433094119,-0.6030785895426887,-8.702442203791469,-1.3220957851372812
8.168461373677648,2.0646855243747164,8.537278626004573,-0.6162995473940615,-8.831695040923039,-0.8988903851226758
8.189108228921395,1.976368573965486,8.531115630530632,-0.6252884512452882,-8.942985834658721,-0.5228052952566601
8.20887191466105,1.8869387156188988,8.52486274601818,-0.6305165041978548,-9.034852838460639,-0.19502652548954644
8.227741301817238,1.7965901872342924,8.5185575809762,-0.6324667694527503,-9.106381565351423,0.08415496081216753
8.24570720368958,1.7055263715807782,8.512232913281672,-0.6316252198446286,-9.157246299297153,0.31537176457370286
8.262762467405388,1.6139539085878067,8.505916661083225,-0.6284715021988916,-9.187712037328716,0.5001536927721544
8.278902006491267,1.5220767882145196,8.499631946061236,-0.62346996527117,-9.198599670194975,0.6408510794706721
8.294122774373411,1.4300907915125698,8.493397246408524,-0.6170614544764633,-9.19122069559394,0.7405172906001943
8.308423682288536,1.3381785845566303,8.48722663186376,-0.6096562815704614,-9.167290077298999,0.8027631352011704
8.321805468134103,1.2465056837836404,8.481130069048055,-0.6016286502184497,-9.128826804286993,0.8315971097733746
8.33427052497194,1.1552174157407704,8.47511378254587,-0.593312679120716,-9.078051340625471,0.8312647208298172
8.345822699129348,1.0644369023345157,8.469180655754663,-0.5850000319124178,-9.017287782251913,0.8060980041018961
8.356467068152693,0.9742640245119966,8.463330655435538,-0.5769390518713988,-8.948876555883745,0.7603833837305424
8.366209708397813,0.8847752589531591,8.457561264916825,-0.5693352180340934,-8.875101318014394,0.6982527889329107
8.375057460987344,0.7960242457730151,8.451867912736484,-0.5623526901447643,-8.79813167327037,0.6235999535149009
8.383017703445075,0.7080429290403114,8.446244385835037,-0.5561166906096153,-8.719981651231768,0.5400213797035716
8.390098132735478,0.6208431125279937,8.44068321892894,-0.5507164768125796,-8.642482660447225,0.4507796930221035
8.396306563860758,0.5344182859235215,8.435176054160815,-0.5462086798823585,-8.567268881900748,0.3587860489104429
8.401650746719993,0.448745597104514,8.429713967361991,-0.5426208193932541,-8.495772711055036,0.2665977807463006
8.406138202691038,0.3637878699939636,8.424287759168058,-0.5399548415857911,-8.429227815036231,0.17642746325226383
8.409776081390977,0.2794955918436013,8.4188882107522,-0.5381905669532685,-8.368677540304493,0.09015985708682933
8.412571037309412,0.19580881644055637,8.413506305082668,-0.5372889683824003,-8.314986697254325,0.009373667718853892
8.414529125473818,0.11265894946801312,8.408133415398844,-0.5371952317052117,-8.26885509111774,-0.06463440965501976
8.415655714968498,0.029970398556835726,8.402761463081792,-0.5378415758017618,-8.230831513347816,-0.13082535087872962
8.415955418954066,-0.05233791657664244,8.397383047323775,-0.5391498293105491,-8.20132722306936,-0.18839467240170882
8.4154320397883,-0.13435118880733604,8.391991549030669,-0.5410337760345661,-8.180628217898812,-0.23675159555790343
8.414088527900226,-0.21615747098632415,8.386581211270324,-0.5434012919901452,-8.168905812009426,-0.27550125314873736
8.411926953190363,-0.2978465291064184,8.381147198350423,-0.5461563045216326,-8.166225208437675,-0.3044304233162989
8.408948487899298,-0.3795087811907951,8.375685635305206,-0.5492006087547956,-8.172551878172028,-0.32349707944750133
8.405153400087391,-0.4612342999725154,8.370193629217658,-0.5524355795492706,-8.187755648510219,-0.3328239024792988
8.400541057087667,-0.5431118564576176,8.364669273422166,-0.5557638185740635,-8.211612466243015,-0.3326957998645341
8.39510993852309,-0.6252279811200477,8.359111635236426,-0.5590907765727089,-8.243803846142907,-0.3235613999872738
8.38885765871189,-0.7076660195814768,8.353520727470698,-0.5623263905725816,-8.283914050399384,-0.30603842883891186
8.381780998516076,-0.7905051600854707,8.347897463564973,-0.5653867748609708,-8.33142507804723,-0.280922814712631
8.373875946915222,-0.873819410865943,8.342243595816363,-0.5681960030080971,-8.385709582771195,-0.2492012944332103
8.365137752806563,-0.9576765066936549,8.336561635786282,-0.5706880159524292,-8.446021890228982,-0.21206719941339214
8.355560987739626,-1.0421367255959446,8.330854755626758,-0.5728086879465631,-8.511487359543164,-0.1709389700947157
8.345139620483666,-1.1272515991913763,8.325126668747293,-0.5745180776475103,-8.58109043491095,-0.1274807720660458
8.333867104491752,-1.2130625035404858,8.319381487970817,-0.5757928853681707,-8.653661868715576,-0.08362435647977887
8.321736479456346,-1.2995991222276415,8.313623559117136,-0.5766291289329686,-8.72786577194646,-0.04159101382174517
8.30874048823407,-1.3868777799471061,8.307857267827806,-0.577045039071186,-8.802187363201996,-0.003912110568934172
8.294871710434599,-1.4748996535791261,8.302086817437095,-0.5770841601768754,-8.874922541395076,0.026553722921372633
8.280122713898807,-1.563648878993077,8.296315975835327,-0.5768186229476616,-8.944170689574669,0.04660915225297156
8.264486225108877,-1.6530905858888236,8.290547789605851,-0.5763525314251319,-9.007832407739608,0.0527153274371903
8.24795531924999,-1.7431689099662198,8.2847842642916,-0.57582537815076,-9.063614137281396,0.04100102490902825
8.230523630150326,-1.8338050513390338,8.279026010510092,-0.5754153679016697,-9.109041828598347,0.007287396858200382
8.212185579636936,-1.9248954696250173,8.273271856831075,-0.5753424939330877,-9.141485849082747,-0.052867909015827115
8.192936624940685,-2.016310328115845,8.267518431891745,-0.575871173023246,-9.158199148933807,-0.1441037334721996
8.172773521659527,-2.107892319605183,8.261759720161512,-0.577312210357968,-9.156370208034494,-0.27116269015033956
8.151694598463475,-2.1994560216855277,8.255986598057932,-0.5800238372594714,-9.13319139762279,-0.43877128286486555
8.12970003824662,-2.2907879356617555,8.250186359685337,-0.5844115500881201,-9.085942056266207,-0.6514934193173952
8.106792158890002,-2.3816473562244176,8.244342244184455,-0.590926484281294,-9.012083812451829,-0.9135606036174733
8.082975685327758,-2.471768194348936,8.238432979341642,-0.6000620903174687,-8.909363590093157,-1.2286853515604672
8.05825800338427,-2.5608618302498676,8.232432358438468,-0.6123489438330734,-8.775917528432423,-1.5998678582543315
8.03264938508177,-2.6486210055341917,8.226308869000137,-0.6283476224156167,-8.610367072755217,-2.029209158851018
8.006163175026428,-2.734724676261744,8.22002539277598,-0.6486397140041269,-8.411897173179542,-2.5177463243606812
7.978815928263811,-2.8188436479935395,8.21353899563594,-0.6738171772477337,-8.180306307075469,-3.0653259574891143
7.950627491783876,-2.900646711064294,8.206800823863462,-0.7044704368226249,-7.916019265130183,-3.6705308553966276
7.921621024673232,-2.979806903715596,8.199756119495236,-0.7411757453765911,-7.6200564457481885,-4.330670950969976
7.891822955636076,-3.056007468173078,8.192344362041469,-0.7844824548862909,-7.293957609464255,-5.041843749942009
7.861262880954346,-3.1289470442677203,8.184499537492606,-0.834900892385711,-6.939663134785471,-5.799062172753571
7.829973410511669,-3.198343675615575,8.17615052856875,-0.8928915141132466,-6.559360995881691,-6.596440128989826
