th1 (rad),w1 (rad/s),th2 (rad),w2 (rad/s)
2.6787170416397816,-3.002147589363474,0.6292113200496853,-3.0116055505043047
2.648695565746147,-3.0903768798827373,0.5990952645446422,-3.0299231536652225
2.6177917969473197,-3.1802286374421738,0.56879603300799,-3.041816726735557
2.585989510572898,-3.2714644415094885,0.5383778657406344,-3.0467929881530593
2.553274866157803,-3.3638313965579387,0.5079099358591038,-3.044346540787485
2.5196365521922233,-3.457064564235808,0.477466470451229,-3.033963383106733
2.485065906549865,-3.550890028601084,0.4471268366201616,-3.0151250082116836
2.4495570062638543,-3.6450286467490285,0.4169755865380448,-2.987313077801479
2.413106719796364,-3.739200530184087,0.38710245576003,-2.950014632628584
2.375714714494523,-3.8331302921416115,0.35760230943374416,-2.902727768922856
2.3373834115731067,-3.926553082387257,0.3285750317445156,-2.8449676709900316
2.298117880749234,-4.019221413666081,0.30012535503461524,-2.7762728434479667
2.2579256666125733,-4.110912763161816,0.27236262660013555,-2.696211332612689
2.216816538980955,-4.2014379088347615,0.24540051327400866,-2.6043866663771547
2.1748021598926073,-4.290649935857449,0.21935664661023713,-2.5004431774284637
2.131895660534033,-4.378453825010612,0.1943522148359525,-2.384070308691185
2.0881111222839266,-4.464816516335912,0.17051151174904064,-2.255005436234135
2.0434629571205676,-4.549777332132867,0.1479614573866993,-2.1130346879092095
1.997965183799239,-4.633458649048832,0.1268311105076072,-1.9579911901148497
1.9516305973087507,-4.716076735714559,0.10725119860645871,-1.7897501438923866
1.904469829951605,-4.797952726506761,0.08935369716753484,-1.6082201167794492
1.8564903026865374,-4.8795237896014125,0.07327149599974035,-1.413329937109761
1.8076950647905232,-4.961354673584882,0.05913819662864274,-1.2050105873241745
1.7580815180546745,-5.044149985048417,0.04708809075540099,-0.9831715022660477
1.7076400182041904,-5.128767761274082,0.037256375732740515,-0.7476706730354825
1.6563523405914495,-5.216235156044253,0.02977966900238569,-0.4982779201145332
1.604189989031007,-5.307767347259839,0.024796889801240358,-0.2346306167313149
1.5511123155584086,-5.404791088898775,0.02245058363392721,0.04381898820262098
1.4970644046694208,-5.508974635909985,0.02288877351595342,0.33786585236144423
1.441974658310321,-5.622265998498568,0.026267432039567863,0.6486247170113563
1.3857519983253352,-5.746941472779982,0.032753679209681426,0.9776140523416821
1.3282825835975354,-5.885665792315549,0.042529819733098245,1.3268512016597125
1.2694259256743798,-6.041563263980025,0.05579833174969537,1.6989555320269691
1.2090102930345796,-6.218294173186582,0.07278788706996506,2.0972489074580434
1.1468273513027138,-6.420118838465889,0.0937603761445455,2.5258255026458367
1.082626162918055,-6.6519049607330105,0.11901863117100386,2.9895245101507553
1.016107113310725,-6.918975546271001,0.1489138762725114,3.493655957215104
0.9469173578480149,-7.226571150101208,0.18385043584466243,4.043154567164133
0.8746516463470029,-7.578452560073759,0.22428198151630377,4.640487156352053
0.7988671207462653,-7.9737307662493615,0.2706868530798243,5.281022811926083
0.7191298130837717,-8.400469137150441,0.32349708119908516,5.943824347875572
0.6351251217122672,-8.824904045393923,0.38293532467784086,6.5762832961714865
0.546876081258328,-9.179729192601313,0.44869815763955573,7.077595013198716
0.4550787893323148,-9.36883158715101,0.5194741077715429,7.305874230393321
0.3613904734608047,-9.31593579658852,0.5925328500754761,7.147954615576755
0.2682311154949195,-9.036069454786,0.6640123962312436,6.621982496985831
0.17787042094705952,-8.632728172248084,0.730232221201102,5.874638941481733
0.09154313922457867,-8.213279285005033,0.7889786106159193,5.061170242406394
0.009410346374528339,-7.836648349570718,0.8395903130399833,4.269690092485393
-0.06895613712117885,-7.5208890504443815,0.8822872139648372,3.5304247131276965
-0.14416502762562267,-7.264503237615585,0.9175914610961142,2.845366580905184
-0.21681006000177852,-7.0594773411032765,0.9460451269051661,2.206803046421639
-0.2874048334128113,-6.8967263807960535,0.9681131573693824,1.605281412376617
-0.35637209722077184,-6.767875822259744,0.9841659714931486,1.032389470726983
-0.4240508554433693,-6.665631396063362,0.9944898662004183,0.4814863156807868
-0.49070716940400294,-6.583685350027318,0.9993047293572263,-0.0522798816872706
-0.5565440229042762,-6.516512845193199,0.9987819305403536,-0.572163321504375
-0.6217091513562082,-6.459178773333021,0.9930602973253099,-1.0800484460893338
-0.6863009390895384,-6.407189561541691,0.9822598128644165,-1.5766643772412219
-0.7503728347049553,-6.356394631526158,0.9664931690920043,-2.0617787286093754
-0.8139367810202169,-6.302932456296833,0.9458753818059106,-2.5343761358083796
-0.8769661055831852,-6.2432133579313165,0.9205316204478268,-2.992828348905001
-0.9393982391624984,-6.1739305931721535,0.8906033369587768,-3.4350604927280295
-1.00113754509422,-6.092091343706754,0.8562527320314965,-3.8587149884257586
-1.0620584585312876,-5.995059578391157,0.817665582147239,-4.261311837153747
-1.122009054315199,-5.880603352133651,0.7750524637757015,-4.640401994169206
-1.1808150878365355,-5.746939961312625,0.7286484438340094,-4.993709553920491
-1.238284487449662,-5.59277344248118,0.6787113482948045,-5.319258339790651
-1.2942122218744738,-5.417320077491793,0.625518764896898,-5.615479017219666
-1.3483854226493917,-5.220318741562439,0.5693639747247012,-5.881293744434302
-1.400588610065016,-5.002024029651218,0.5105510372803582,-6.116176398190575
-1.4506088503615282,-4.763181117007301,0.44938927329845246,-6.320187422485654
-1.4982406615316013,-4.504982304639974,0.3861873990735959,-6.49398332205114
-1.543290484578001,-4.229006235533737,0.3212475658530845,-6.638801814033654
-1.5855805469333384,-3.9371418675578624,0.254859547712748,-6.756424724935777
-1.624951965608917,-3.6315003997327246,0.1872953004633902,-6.8491218832710254
-1.6612669696062443,-3.3143193332446184,0.11880408163067996,-6.919580427956364
-1.6944101629386905,-2.9878635246408347,0.04960827735111631,-6.970824965402674
-1.724288798185099,-2.6543282881926222,-0.020099972302910427,-7.006134673709885
-1.7508320810670253,-2.3157492360144674,-0.09016131904000928,-7.0289636184006845
-1.77398957342717,-1.9739226307709699,-0.16045095522401612,-7.042870151427905
-1.7937287997348796,-1.6303387046903928,-0.23087965673829516,-7.051460365923555
-1.8100321867817835,-1.286128892031825,-0.3013942603975307,-7.058349314444581
-1.8228934757021018,-0.9420264889246723,-0.3719777535419765,-7.067142242525386
-1.8323137405913485,-0.5983391516524997,-0.44264917596723036,-7.081436574633646
-1.8382971321078736,-0.25493111977728805,-0.5134635417135668,-7.104843822435247
-1.8408464433056464,0.08878661405973343,-0.5845119799379193,-7.141028744975966
-1.839958577165049,0.4338583381080816,-0.6559222673876789,-7.1937603796245195
-1.8356199937839683,0.7817742819616298,-0.7278598711839241,-7.266964738629119
-1.8278022509643521,1.1344389115744125,-0.8005295185702154,-7.364759631675205
-1.816457861848608,1.4940917078433356,-0.8741771148869675,-7.491433749439005
-1.8015169447701747,1.8631287733095692,-0.9490914523813575,-7.651296755939115
-1.782885657037079,2.243725431337643,-1.0256044199407486,-7.848261272525732
-1.7604484027237026,2.6370777723803345,-1.104087032666006,-8.084903252547797
-1.7340776249998993,3.04196031211434,-1.184936065191484,-8.3605762445312
-1.7036580218787558,3.4521875313239256,-1.268541827636796,-8.66799363742537
-1.6691361465655166,3.852712666230113,-1.3552217640110495,-8.98787538189031
-1.6306090199032155,4.2151870675871566,-1.4451005178299527,-9.282738826111842
-1.5884571492273438,4.496841651401098,-1.537927906091071,-9.49510615895567
-1.5434887327133329,4.650334183502128,-1.632878967680628,-9.560669181690729
-1.4969853908783115,4.6480308030815705,-1.7284856594975353,-9.441258348229898
-1.450505082847496,4.50411025577895,-1.8228982429798344,-9.154824809708483
-1.4054639802897064,4.267874000353505,-1.9144464910769192,-8.76606472263245
-1.3627852402861713,3.9937571851337403,-2.0021071383032436,-8.34566623207957
-1.3228476684348338,3.719709000793875,-2.085563800624039,-7.941550928177533
-1.285650578426895,3.4648543606617817,-2.1649793099058146,-7.576407925159836
-1.2510020348202773,3.23588262785848,-2.240743389157413,-7.256718990225867
-1.2186432085416925,3.033185445372598,-2.3133105790596717,-6.981114644808961
-1.1883113540879666,2.854544320621054,-2.3831217255077615,-6.745263064891935
-1.1597659108817562,2.6969465361640377,-2.4505743561566806,-6.544196924223246
-1.1327964455201158,2.557372226426303,-2.516016325398913,-6.37326601527113
-1.1072227232558527,2.4330885209362116,-2.5797489855516247,-6.228450138965737
-1.0828918380464905,2.321726270370807,-2.642033486941282,-6.106401344197022
-1.0596745753427823,2.2212688492833257,-2.7030975003832522,-6.004384318781373
-1.037461886849949,2.130010918855298,-2.763141343571066,-5.920187370440274
-1.016161777661396,2.046511915312887,-2.8223432172754688,-5.852032722756317
-0.9956966585082672,1.9695542496581633,-2.8808635445030317,-5.798495709626325
-0.9760011160116855,1.8981098726050534,-2.938848501599295,-5.758434336574314
-0.9570200172856349,1.8313163622598367,-2.9964328449650384,-5.730927370828638
-0.9387068536630365,1.7684629179889586,-3.0537421186733247,-5.715217837671865
-0.921022224483147,1.7089866193830177,-3.1108942970500433,-5.710658322936779
-0.9039323582893168,1.652479560009133,-3.1680008802794113,-5.716654328866935
-0.8874075626892255,1.598707705857377,-3.2251674235680805,-5.732601999301714
-0.8714204856306518,1.5476422963065413,-3.2824934435610977,-5.757816966752812
-0.8559440626675864,1.4995039638601715,-3.3400716132286257,-5.7914522522254
-0.8409490230289847,1.4548180293596291,-3.39798613575088,-5.832405676467295
-0.8264008427353884,1.414476050079075,-3.4563101925155526,-5.8792219100660645
-0.8122560822345977,1.379793141994528,-3.5151024116162133,-5.93000182925791
-0.7984581508146524,1.352542884268175,-3.574402429908792,-5.982342291791929
-0.7849327219719707,1.3349431618447012,-3.6342258528267113,-6.033340992331982
-0.7715832903535237,1.3295609883122772,-3.694559262750031,-6.079708607803414
-0.758287680470401,1.3391088852510014,-3.755356348828065,-6.118025093150236
-0.7448965916178909,1.3661272582498036,-3.8165365997595675,-6.145148721869739
-0.7312353190353929,1.4125886644324483,-3.877988086978265,-6.158732129809559
-0.7171094323910684,1.4795098648846317,-3.9395754082763603,-6.157733709541096
-0.7023143337422221,1.5666894398581124,-4.001152745371772,-6.142770446972534
-0.6866474393436409,1.6726731737804916,-4.062580449841497,-6.116178477130296
-0.669920707605836,1.7949796430625118,-4.1237422346128,-6.0817391026332315
-0.6519709111752109,1.9305253093349395,-4.184559625639133,-6.044150001707278
-0.6326656580818615,2.076123151988047,-4.245001125656206,-6.008406549871729
-0.611904426561981,2.228924277509873,-4.305085191154923,-5.979263922452485
-0.5896151837868823,2.3867198091066206,-4.364877830379448,-5.960888226198085
-0.5657479856958161,2.5480849777304972,-4.4244867126414285,-5.956721307148475
-0.540267135918511,2.71239589267872,-4.484053925712913,-5.969521826564255
-0.5131431769917238,2.879769777721679,-4.543749143978555,-6.001520295633411
-0.48434547921450705,3.0509772073811225,-4.60376434693489,-6.0546304335523775
-0.4538357071406958,3.227362031943308,-4.664310651270413,-6.130677949739332
-0.4215620868212627,3.4107908563847316,-4.725617430767806,-6.231628368779904
-0.3874541782574154,3.6036438813960663,-4.787933714455605,-6.35981193822782
-0.3514177394434547,3.808853615938255,-4.851531833837883,-6.518154922819509
-0.31332920328407216,4.0299965247417955,-4.916713383066078,-6.71043380357388
-0.2730292380366542,4.2714434068975375,-4.983817721101817,-6.941573257099968
-0.2303148039676788,4.538574747388872,-5.053233453672816,-7.218009873017647
-0.1849290564937901,4.838062587839644,-5.125413552402993,-7.548136769295262
-0.13654843061539365,5.178198638836783,-5.200894920095945,-7.942814400099913
-0.08476644422702583,5.5691776090584,-5.280323064096944,-8.41583685464113
-0.02907466813644182,6.023040099354531,-5.364481432643355,-8.983963599422434
0.03115573285710349,6.552419329177107,-5.454321068637579,-9.66535564489419
0.09667992614887456,7.165789302112195,-5.550974625086521,-10.473248716482406
0.16833781916999652,7.853633846682464,-5.655707112251346,-11.397118100224201
0.24687415763682116,8.555269701309683,-5.7696782932535875,-12.356974561639154
0.332426854649918,9.104076189625967,-5.893248038869979,-13.127380668327984
0.4234676165461777,9.223524509087593,-6.0245218455532585,-13.33152506269227
0.5157028616370536,8.751163607679135,-6.157837096180181,-12.751061008506015
0.6032144977138449,7.900795610434138,-6.285347706265241,-11.685504265995817
0.6822224538181864,7.00904486290267,-6.402202748925199,-10.596787306318726
0.752312902447213,6.228163183591584,-6.508170621988387,-9.688963026736712
0.8145945342831289,5.573702275659155,-6.605060252255754,-8.979518240737272
0.8703315570397204,5.022024887650498,-6.694855434663126,-8.434552862086298
0.9205518059162254,4.546840339706741,-6.779200963283989,-8.018245073062639
0.9660202093132928,4.126965532593177,-6.859383414014616,-7.702820356959915
1.0072898646392245,3.7464512338721168,-6.9364116175842145,-7.468304290833655
1.0447543769779457,3.3933608112789555,-7.011094660492551,-7.300586935828397
1.0786879850907352,3.0586466839546005,-7.0841005298508355,-7.189685684285049
1.109274451930281,2.7353486091941828,-7.155997386693686,-7.128451945331887
1.1366279380222228,2.4180784388971928,-7.227281906147005,-7.111630809654828
1.1608087224111947,2.102725400955603,-7.298398214243553,-7.135150097302018
1.1818359764207507,1.7863306371712897,-7.369749715216574,-7.195541080224286
1.1996992827924635,1.4670958656095587,-7.4417051260188165,-7.2894238391716435
1.214370241448559,1.1444987084434686,-7.514599364410533,-7.413018453866921
1.2258152285329937,0.8194838517605572,-7.588729548949202,-7.56167246804472
1.2340100670505993,0.4946837804105131,-7.66434627362965,-7.729429819365874
1.2389569048547044,0.1745965008881063,-7.741640571823308,-7.908707957560147
1.2407028698635856,-0.13438297438976293,-7.82072765139891,-8.090191791568222
1.239359040119688,-0.42419955689973043,-7.901629569314592,-8.263076933723987
1.2351170445506905,-0.6857471882164589,-7.984260338651832,-8.415770394615752
1.228259572668526,-0.909872970385958,-8.068418042597989,-8.537056271495619
1.2191608429646663,-1.088655029535947,-8.153788605312945,-8.617560395824617
1.2082742926693069,-1.2166741848089315,-8.239964209271191,-8.65116510200621
1.1961075508212176,-1.2919190576076194,-8.326475860291254,-8.6359464830109
1.1831883602451414,-1.3160405856920498,-8.412835325121362,-8.574319836463584
1.1700279543882208,-1.2938929911803811,-8.498578523485998,-8.472357008062897
1.157089024476417,-1.2325483574921619,-8.583302093566626,-8.338533127054273
1.1447635409014953,-1.1401150656530377,-8.66668742483717,-8.18230949038643
1.133362390244965,-1.024673053108482,-8.748510519741034,-8.012914055434841
1.1231156597138803,-0.8935120376136373,-8.828639660295382,-7.8385152839478875
1.114180539337744,-0.7527144799961267,-8.90702481313486,-7.6658125163640065
1.1066533945377828,-0.6070267244613954,-8.9836829382985,-7.499957478262382
1.1005831272931688,-0.4599234463380018,-9.058682513081123,-7.34468637553273
1.0959838928297887,-0.313774968951242,-9.13212937683645,-7.202555138966406
1.0928461431402763,-0.17005050299094984,-9.204154928226115,-7.075202383778766
1.0911456381103668,-0.029516191732982783,-9.274906952063903,-6.963596498848876
1.0908504761930369,0.10759271207438492,-9.344542917052392,-6.868247110593592
1.0919264033137808,0.24143279996516082,-9.413225388158327,-6.7893760598667345
1.0943407313134323,0.37244632282223505,-9.481119148756994,-6.727050937457436
1.0980651945416546,0.5012840903052345,-9.548389658131569,-6.6812875863067855
1.103078035444707,0.6287525653425672,-9.615202533994637,-6.652128769363453
1.1093655610981326,0.755780396761647,-9.681723821688271,-6.639705734414732
1.116923365065749,0.8834002921478076,-9.748120879032419,-6.644288443010809
1.1257573679872273,1.0127429028740182,-9.814563763462527,-6.666329146331282
1.1358847970159673,1.145040031927981,-9.881227054925839,-6.706502909759451
1.1473351973352472,1.2816348076597885,-9.948292084023434,-6.765747551687159
1.1601515454118452,1.4239962893715399,-10.015949559540305,-6.845304036615557
1.1743915083055605,1.5737349421420952,-10.08440259990646,-6.946756166147608
1.1901288577269815,1.7326128948842667,-10.153870161567935,-7.072064529838041
1.2074549866758242,1.9025376518790016,-10.224590806866315,-7.22358239443082
1.2264803631946142,2.0855176687397683,-10.296826630810623,-7.4040273267389285
1.2473355398820118,2.2835387717779856,-10.370866904078012,-7.616356051611436
1.2701709275997917,2.4982847534143295,-10.447030464594127,-7.863441406728775
1.295153775133935,2.73056342874228,-10.525664878661415,-8.147364623543012
1.3224594094213578,2.9792026284188036,-10.607138524896845,-8.468000595772212
1.3522514357055457,3.239067803442537,-10.691818530854567,-8.820411305323372
1.3846421137399711,3.4978544961358784,-10.7800226439078,-9.190548290730591
1.41962065870133,3.7318617144492627,-10.871928126815106,-9.549497033896609
1.4569392758458226,3.902950449432382,-10.967423097154073,-9.849211137033807
1.4959687803401465,3.9626368006111417,-11.06591520852441,-10.0278173552051
1.535595148346258,3.870159904392461,-11.166193382076461,-10.033803554865912
1.5742967473901825,3.618604382738245,-11.26653141762512,-9.860906902018172
1.610482791217565,3.243361017007833,-11.365140486645302,-9.558643698685527
1.6429164013876434,2.7996368922764323,-11.460726923632157,-9.20108727793483
1.6709127703104076,2.333692377486993,-11.552737796411504,-8.848264257083159
1.6942496940852776,1.8721348408961402,-11.641220438982335,-8.532773389919624
1.712971042494239,1.4258506953017422,-11.726548172881532,-8.265999206371424
1.7272295494472565,0.9969563401564339,-11.809208164945247,-8.04785329161176
1.737199112848821,0.5836985697142328,-11.889686697861364,-7.873375112628365
1.7430360985459632,0.18306098969071716,-11.968420448987649,-7.736090348565473
1.7448667084428704,-0.20803725103890175,-12.045781352473304,-7.629443186444647
1.7427863359324813,-0.5922492388660632,-12.122075784337751,-7.547292223259617
1.7368638435438206,-0.9716283742223807,-12.197548706570347,-7.484001564770936
1.7271475598015968,-1.3475911520151813,-12.272388722218055,-7.434378085127033
1.7136716482814451,-1.7209320878303624,-12.346732503069326,-7.393565721736618
1.6964623274031414,-2.091856947481831,-12.420668160286692,-7.356943482426755
1.675543757928323,-2.4600225519385437,-12.49423759511096,-7.320045744167403
1.6509435324089377,-2.8245810967602383,-12.567438052552633,-7.278511479795065
1.6226977214413352,-3.184230788105669,-12.640223167350584,-7.228063981094489
1.5908554135602784,-3.5372756658180027,-12.712503807161529,-7.164520278486652
1.5554826569020983,-3.881697115162498,-12.784149009946395,-7.083827975532605
1.5166656857504732,-4.215238410041599,-12.854987289701722,-6.9821259063530805
1.4745133016500573,-4.535502054202465,-12.924808548765252,-6.855823699965505
1.4291582811080328,-4.840057976804536,-12.993366785764907,-6.701694066355804
1.3807577013399874,-5.126559050134327,-13.060383726428466,-6.516970575799434
1.3294921108386442,-5.392859151287597,-13.12555343218646,-6.299443055882414
1.2755635193257682,-5.63712823933794,-13.188547862745285,-6.047542579832815
1.2191922369323889,-5.857958720087781,-13.249023288543613,-5.760408364111637
1.160612649731511,-6.054457677081544,-13.30662737218473,-5.43792964717608
1.1000680729606955,-6.226320249943159,-13.36100666865649,-5.080756672623856
1.037804870461264,-6.373880424946322,-13.411814235382728,-4.690276181983523
0.9740660662118007,-6.498136709222186,-13.458716997202563,-4.268548360829359
0.9090846991195789,-6.600751610738649,-13.501402480810857,-3.8182040784898743
0.8430771830121924,-6.684025612898825,-13.539584521595755,-3.3423036065481546
