th1 (rad),w1 (rad/s),th2 (rad),w2 (rad/s),a1 (rad/s^2),a2 (rad/s^2)
4.081000572808689,1.4956987598676001,6.276578587990192,-0.35775142916731983,8.988428592099725,3.5077556813896416
4.095957560407365,1.5855830457885973,6.273001073698519,-0.32267387235342343,8.928193406782858,3.120930458090502
4.111813390865251,1.674864979856426,6.269774334974985,-0.2914645677725184,8.871370669234329,2.7108394948406076
4.128562040663815,1.7635786865487693,6.2668596892972595,-0.26435617282411233,8.81825613305155,2.277358128464578
4.146197827529303,1.8517612478792849,6.264216127569019,-0.24158259153946654,8.76921596680089,1.8203667149171352
4.164715440008096,1.9394534075472938,6.261800301653624,-0.2233789243902952,8.724704305261149,1.3397504482114524
4.184109974083569,2.0267004505999053,6.259566512409721,-0.20998141990818067,8.685282104512895,0.8353966822605504
4.2043769785895675,2.1135532716450345,6.2574666982106395,-0.20162745308557517,8.651637350100074,0.30718907956274566
4.225512511306018,2.2000696451460353,6.255450423679783,-0.19855556228994772,8.624606705532344,-0.2450021676083622
4.247513207757478,2.286315712201359,6.253464868056884,-0.20100558396603135,8.605198743061974,-0.8213348808895348
4.270376364879492,2.3723676996319787,6.251454812217224,-0.2092189327749267,8.594618974656042,-1.4220151309618607
4.2941000418758115,2.4583138893785392,6.249362622889475,-0.2234390840845453,8.594297003847913,-2.0473241885202325
4.318683180769597,2.5442568594170183,6.247128232048629,-0.24391232596974763,8.605916254910547,-2.697653325845541
4.344125749363767,2.6303160219661237,6.244689108788932,-0.27088885922820305,8.631446911506321,-3.373547732482083
4.370428909583428,2.7166304910811867,6.24198022019665,-0.3046243365530239,8.673182920255638,-4.075760963523743
4.397595214494239,2.803362320283743,6.23893397683112,-0.34538194618826135,8.73378419362016,-4.805321530338194
4.425628837697077,2.8907001622199444,6.2354801573692376,-0.39343516149164326,8.816325489229719,-5.563613482929102
4.454535839319276,2.9788634171122417,6.231545805754321,-0.4490712963209343,8.924353856463833,-6.352473132473006
4.484324473490399,3.06810695567688,6.227055092791112,-0.5125960276456644,9.061957029943269,-7.174304430723081
4.515005543047168,3.158726525976313,6.221929132514655,-0.5843390719528951,9.23384571079358,-8.032215959160823
4.546592808306931,3.2510649830842486,6.216085741795125,-0.6646612315445034,9.445453292312763,-8.930182961970692
4.579103458137774,3.3455195160073763,6.20943912947968,-0.7539630611642103,9.70305720878023,-9.873238314167455
4.612558653297848,3.4425500880951785,6.201899498868038,-0.8526954443058848,10.013926606458066,-10.867696590576813
4.646984154178799,3.542689354159759,6.193372544424979,-0.961372410211653,10.38650123048231,-11.921415161953218
4.682411047720397,3.6465543664645823,6.183758820322862,-1.0805865618311852,10.830605845190325,-13.044094835790803
4.718876591385042,3.7548604249164854,6.1729529547045505,-1.2110275101890933,11.357702292898422,-14.247618715790345
4.756425195634207,3.8684374478454697,6.160842679602659,-1.3535036973469967,11.98117578462268,-15.546419263981115
4.795109570112661,3.9882492056916967,6.1473076426291895,-1.508967889986808,12.71664003277337,-16.957845445402114
4.8349920621695786,4.115415606019431,6.132217963729321,-1.678546344440829,13.582221344491307,-18.502465683896794
4.876146218229773,4.251237819464344,6.115432500284912,-1.863571001279797,14.598733335575238,-20.204171856711366
4.918658596424416,4.397225152820097,6.096796790272115,-2.0656127198469107,15.789559807580183,-22.089813982662886
4.962630847952617,4.555120750895899,6.076140663073645,-2.2865108596735397,17.179882781473555,-24.187837074458315
5.008182055461576,4.726919578710635,6.05327555447691,-2.528389230418123,18.79455026898652,-26.52490471858642
5.055451251248683,4.9148650814004995,6.027991662172728,-2.7936382776039874,20.653239256135986,-29.118589230888322
5.104599902062688,5.121397473961859,6.000055279396689,-3.0848241699128707,22.76041003630593,-31.9625734252735
5.1558138768023065,5.349001574324919,5.96920703769756,-3.4044499041656056,25.08556141683767,-34.9980183162115
5.209303892545556,5.599857188493296,5.935162538655904,-3.7544300873277203,27.52629763583924,-38.060560055769564
5.265302464430489,5.875120164851688,5.897618237782627,-4.135035687885416,29.84360551848376,-40.788109126110506
5.324053666079005,6.1735562200365255,5.856267880903773,-4.5429167791465215,31.560675692989108,-42.477578561416834
5.3857892282793705,6.4891629769664165,5.810838713112307,-4.96769256476069,31.840684265200185,-41.9130820685935
5.450680858049035,6.8075698196184184,5.7611617874647,-5.386823385446625,29.442422118092264,-37.30661770183698
5.5187565562452185,7.101994040799341,5.707293553610234,-5.759889562464995,23.01844636491822,-26.726886586857905
5.5897764966532115,7.332178504448524,5.6496946579855845,-6.027158428333574,12.08231486755908,-9.478731427879625
5.663098281697697,7.453001653124114,5.589423073702249,-6.12194574261237,-1.6870174173472632,12.037649482482152
5.737628298228938,7.436131478950641,5.528203616276125,-6.001569247787549,-14.504657078532505,32.39933202250467
5.8119896130184445,7.291084908165316,5.468187923798249,-5.6775759275625015,-22.945273104557575,46.65275658983304
5.884900462100098,7.061632177119741,5.411412164522624,-5.211048361664171,-26.23861566961596,53.59241217495312
5.955516783871295,6.799246020423581,5.359301680905983,-4.67512423991464,-25.785442713901425,55.115171121072734
6.023509244075531,6.541391593284567,5.312550438506836,-4.123972528703913,-23.391130233372415,53.7346495670601
6.088923160008377,6.307480290950843,5.271310713219797,-3.586626033033312,-20.3202392738555,51.23028446607216
6.151997962917885,6.104277898212288,5.235444452889464,-3.07432318837259,-17.24056646958233,48.54950055904959
6.2130407419000075,5.931872233516465,5.204701221005738,-2.5888281827820943,-14.44059518172697,46.1033023174145
6.272359464235172,5.787466281699196,5.178812939177917,-2.1277951596079494,-12.015805869619044,44.024614061692844
6.330234127052164,5.667308223003006,5.157534987581838,-1.687549018991021,-9.976300313531498,42.31916641751343
6.386907209282194,5.56754521986769,5.140659497391927,-1.2643573548158866,-8.299864337237326,40.94091032080156
6.442582661480871,5.484546576495317,5.128015923843768,-0.854948251607871,-6.955764875580664,39.82669887612967
6.497428127245824,5.41498892773951,5.119466441327689,-0.45668126284657434,-5.914408909751226,38.9112281407764
6.551578016523219,5.355844838641998,5.114899628699224,-0.0675689814388103,-5.150544678035231,38.13297159161037
6.60513646490964,5.304339391861646,5.114223938884836,0.3137607344772934,-4.643647259876955,37.43622780453409
6.658179858828256,5.257902919262876,5.117361546229609,0.6881230125226343,-4.377159038922135,36.771630077262444
6.710758888020885,5.214131328873655,5.124242776354835,1.0558393132952588,-4.337336900191843,36.096154265151775
6.7629002013096216,5.170757959871736,5.134801169487788,1.4168008559467766,-4.512041264563842,35.37304917439187
6.8146077809083385,5.1256375472260975,5.148969178047255,1.7705313476906954,-4.889617124441863,34.571830904444326
6.865864156380599,5.076741375981679,5.166674491524162,2.1162496567351385,-5.4579367524183775,33.66835412324333
6.916631570140416,5.022162008457495,5.187836988091513,2.452933197967572,-6.203638556210606,32.644918916338945
6.966853190224992,4.960125622895389,5.212366320071189,2.7793823871309615,-7.111579574751725,31.49035442807951
7.016454446453945,4.889009827147872,5.240160143942499,3.094285931411757,-8.164508465584149,30.20002233505022
7.065344544725424,4.80736474249203,5.271103003256616,3.396286154762259,-9.342956912505286,28.775695080462874
7.113418192150345,4.713935173366977,5.305065864804239,3.6840431055668876,-10.62533899857,27.22528024029116
7.160557543884014,4.607681783381277,5.341906295859908,3.9562959079697992,-11.988240463884384,25.56237965174633
7.206634361717827,4.487799378742433,5.381469254939606,4.211919704487262,-13.406873413132807,23.80568750581555
7.251512355505251,4.353730644611105,5.423588451984479,4.449976579545417,-14.855667192685504,21.978244145116
7.295049661951362,4.20517397268425,5.468088217779933,4.669759020996578,-16.3089626291194,20.106571577601684
7.337101401678204,4.042084346393056,5.514785807989899,4.870824736772595,-17.741774141563628,18.219723317674035
7.377522245142135,3.8646666049774194,5.563494055357625,5.053021969949335,-19.13058199169435,16.348286068954184
7.416168911191909,3.673360785060476,5.614024275057118,5.216504830638877,-20.45411507783168,14.523374763022227
7.452902519042514,3.468819634282159,5.666189323363507,5.361738578269099,-21.69408371948802,12.775665771002995
7.487590715385335,3.251878797087279,5.719806709146198,5.489495235979129,-22.835822782861154,11.134515192358455
7.520109503356208,3.0235205692586673,5.774701661505989,5.600840387902714,-23.868809368825094,9.627208957321939
7.550344709048795,2.7848324755704166,5.830710065385016,5.697112477475933,-24.787026908413367,8.278387942792882
7.5781930338044985,2.536962206486283,5.887681190159776,5.779896356903862,-25.589158944029748,7.10968372722895
7.603562655869362,2.2810706170459856,5.945480153728814,5.8509931941761515,-26.278610236047935,6.139589149086136
7.626373362039821,2.018284514685506,6.003990085670576,5.912389085667013,-26.863368372413902,5.383573533999934
7.646556207186676,1.7496508309613672,6.063113976527246,5.966224821007012,-27.355733467431577,4.854436992638679
7.66405271549629,1.4760934962870516,6.122776224737316,6.014769190933399,-27.771954379150607,4.562883302726056
7.67881365045916,1.1983739524955455,6.18292391664665,6.060398023960659,-28.131814919655614,4.518277641573963
7.690797389984116,0.9170558032989893,6.243527896886256,6.105580800376399,-28.458210782024533,4.72954339931018
7.699967948017106,0.632473695478744,6.30458370489002,6.152876234369501,-28.776745142486753,5.206138596379575
7.706292684971893,0.34470624405387645,6.366112467233715,6.204937620333297,-29.115344521313794,5.959030363622016
7.709739747412431,0.05355279884073849,6.428161843437048,6.264527923969517,-29.50384936182334,7.001542651764104
7.710275275400838,-0.24148569477749493,6.490807122676744,6.334543350487158,-29.973451430748273,8.349864254557879
7.7078604184530635,-0.5412202090849776,6.554152556181616,6.4180419930327375,-30.555704155124392,10.022828546074429
7.702448216362214,-0.8467772506362214,6.618332976111943,6.518270278493482,-31.280568920045965,12.040235621687772
7.6939804438558514,-1.159582939836681,6.683515678896878,6.6386726347103595,-32.172484077571475,14.41834471225633
7.682384614457485,-1.4813077806123958,6.749902405243982,6.782856081832922,-33.24259362882816,17.15999099358848
7.66757153665136,-1.8137337169006773,6.817730966062311,6.954455991768807,-34.473821688704,20.234747242267535
7.649434199482354,-2.1584719337877174,6.887275525979999,7.156803464191483,-35.79324625010785,23.541378671889603
7.6278494801444765,-2.516404396288796,6.958843560621914,7.392217250910378,-37.02364053691123,26.84107178069303
7.602685436181589,-2.8866408016579084,7.032765733131018,7.660627968717309,-37.806067058830536,29.649578121297054
7.573819028165009,-3.2647014722462138,7.1093720128181905,7.95712374993028,-37.4984280816314,31.09388752795332
7.541172013442547,-3.639685753062528,7.188943250317493,8.268062625209813,-35.105964723948375,29.809319906732053
7.504775155911922,-3.9907454003020115,7.271623876569591,8.566155824277134,-29.417389445870782,24.116427619679218
7.464867701908902,-4.284919294760719,7.357285434812362,8.807320100473927,-19.631511517165695,12.87368915300597
7.422018508961294,-4.481234409932377,7.445358635817102,8.936056992003987,-6.473277136689309,-2.9903019135118547
7.3772061648619704,-4.54596718129927,7.534719205737142,8.906153972868868,7.241052957483941,-19.697882564030433
7.3317464930489775,-4.47355665172443,7.62378074546583,8.709175147228564,18.01202802785995,-32.55256172375885
7.2870109265317335,-4.29343637144583,7.710872496938116,8.383649529990976,24.05675798078941,-39.20916562788353
7.244076562817275,-4.052868791637936,7.794708992238025,7.99155787371214,25.915746449668095,-40.46241007229493
7.203547874900896,-3.7937113271412546,7.874624570975146,7.586933772989191,25.15193886801468,-38.44524215142507
7.165610761629484,-3.542191938461108,7.950493908705038,7.20248135147494,23.141659000684925,-34.99402894449842
7.1301888422448725,-3.3107753484542584,8.022518722219788,6.852541062029956,20.727482019163123,-31.20342599985293
7.09708108876033,-3.103500528262627,8.091044132840087,6.540506802031427,18.32875858593015,-27.595157237379215
7.066046083477704,-2.9202129424033254,8.156449200860402,6.264555229657635,16.11960359571943,-24.366869178519625
7.036843954053671,-2.759016906446131,8.219094753156979,6.020886537872438,14.15220101590184,-21.560246823106386
7.00925378498921,-2.6174948962871127,8.279303618535703,5.805284069641374,12.424373528941777,-19.15115503405011
6.983078836026339,-2.493251160997695,8.337356459232117,5.6137725193008725,10.91280477428016,-17.092794620243893
6.9581463244163615,-2.3841231132548932,8.393494184425126,5.442844573098434,9.588275874542644,-15.334732053159737
6.934305093283813,-2.2882403545094667,8.44792263015611,5.289497252566837,8.422158158595531,-13.830461130593445
6.9114226897387185,-2.2040187729235114,8.50081760268178,5.151192641260902,7.38884167575267,-12.539791997230804
6.889382502009483,-2.1301303561659846,8.552329529094388,5.0257947212885945,6.46635531105586,-11.429040796783251
6.868081198447824,-2.065466803055426,8.602587476307274,4.911504313320762,5.636236384658298,-10.470377279707947
6.84742653041727,-2.009104439208843,8.651702519440482,4.806800540523683,4.883134078753949,-9.640927289933739
6.827335486025182,-1.9602730984213033,8.699770524845718,4.710391267624345,4.194361003607206,-8.921876388703271
6.807732755040969,-1.918329488385231,8.746874437521962,4.621172503737313,3.5594819029324642,-8.297662459036701
6.788549460157117,-1.8827346693559064,8.793086162559336,4.538195879146945,2.9699715805994966,-7.755275929184032
6.7697221134635575,-1.8530349535499113,8.838468121350806,4.4606431198551055,2.4189492510822106,-7.283658053750587
6.751191763928058,-1.8288454610390892,8.883074552549356,4.3878065393176,1.9009863424721014,-6.8731781561716
6.732903309317667,-1.809835597614368,8.926952617942533,4.3190747577558835,1.411980966690466,-6.515169704294483
6.714804953341523,-1.7957157879474634,8.97014336552009,4.253923060712939,0.949090689658963,-6.2015081791873365
6.696847795462048,-1.7862248810508738,9.01268259612722,4.191907978921066,0.510713718200425,-5.924219301797687
6.678985546651539,-1.7811177438688697,9.05460167591643,4.132665785903089,0.09650591560241167,-5.675114032234095
6.66117436921285,-1.7801526847128455,9.095928333775461,4.075914645580748,-0.2925836081108624,-5.445457134173174
6.643372842365722,-1.7830785207939541,9.136687480231268,4.021460074239016,-0.6542825626128428,-5.225689264438945
6.625542057157783,-1.7896213464200825,9.176902080973658,3.9692031815946267,-0.9850044407620203,-5.005238139186672
6.607645843693582,-1.7994713908277027,9.216594112789604,3.91915080020276,-1.279939328353156,-4.772470600522514
6.589651129785305,-1.8122707841112342,9.255785620791631,3.871426094197535,-1.5332770183890179,-4.514850423913211
6.571528421944193,-1.8276035542951243,9.294499881733607,3.826277589958403,-1.738613391064774,-4.219369792993684
6.553252386401242,-1.8449896882057721,9.332762657633191,3.7840838920284665,-1.8895781444906923,-3.873306531838583
6.534802489519184,-1.863885469650679,9.370603496553477,3.7453508267100806,-1.9806894353267126,-3.4653154237752575
6.516163634822678,-1.8836923640039462,9.408057004820577,3.710697672472328,-2.008386078832945,-2.9867860924913416
6.497326711182638,-1.9037762247922756,9.445163981545301,3.6808298115474147,-1.9721161703850754,-2.4332993570774586
6.478288948934716,-1.9234973864961264,9.481972279660775,3.65649681797664,-1.8752898686369641,-1.8059131604696508
6.459053975069755,-1.942250285182496,9.518537247840541,3.6384376863719434,-1.7258623305952494,-1.111948637495645
6.43963147221793,-1.9595089084884485,9.55492162470426,3.627318199996987,-1.536331349902907,-0.36497075164399284
6.420036383133046,-1.9748722219874775,9.59119480670423,3.623668492480547,-1.3230300093072715,0.41620919388256444
6.400287660913171,-1.9881025220805502,9.627431491629036,3.6278305844193723,-1.1047543739002146,1.209457925713721
6.380406635692365,-1.9991500658195522,9.66370979747323,3.6399251636765095,-0.9009427191741308,1.9918715677619452
6.360415135034169,-2.0081594930112936,9.700109049109995,3.659843879354129,-0.7297510949061361,2.742472788061556
6.340333540104057,-2.0154570039603548,9.736707487903537,3.6872686072347447,-0.6063984926169659,3.4445321210371267
6.320178970064453,-2.0215209888865244,9.773580173975885,3.721713928445116,-0.5420724989182184,4.087108414100323
6.299963760175588,-2.0269417138757064,9.810797313260336,3.7625850125861193,-0.543528372118113,4.665626838724552
6.279694343036831,-2.0323769975968875,9.848423163386197,3.8092412809733647,-0.6133427927068629,5.181555436122863
6.259370573060862,-2.038510425523956,9.886515576195931,3.861056835334593,-0.7506551137610499,5.6414217273475655
6.238985468805623,-2.0460169766615666,9.925126144549276,3.917471052608069,-0.9521726908194581,6.0554887052361765
6.218525299039007,-2.055538703569761,9.964300855075358,3.9780259396604305,-1.213229193458224,6.436390236207664
6.19796991200331,-2.067670995504343,10.004081114471962,4.042389842022507,-1.528740917172261,6.797945334527853
6.177293202048267,-2.0829584046760656,10.044505012892188,4.110369295367786,-1.8939764587158838,7.1542712966128565
6.156463618001506,-2.1018981692632246,10.085608705845866,4.1819120083339145,-2.305117327566394,7.519229084584509
6.135444636308875,-2.1249493425388883,10.127427825929205,4.257104299179759,-2.759630231991158,7.906175875816821
6.114195142883486,-2.1525456448588,10.169998868921002,4.336166057937928,-3.256494714056344,8.327970695158948
6.092669686434898,-2.1851105919993636,10.213360529500381,4.419445764889518,-3.796336870758285,8.797173045308869
6.070818580514905,-2.2230739607069463,10.257554987149277,4.507417495342606,-4.381517111907526,9.326382713078326
6.048587840907835,-2.2668891318260216,10.302629162102702,4.600681322473389,-5.016212549436101,9.928683826159208
6.025918949589575,-2.3170512573203825,10.348635975327436,4.699968160734981,-5.70652624685047,10.618172469406357
6.002748437016371,-2.3741165197888874,10.395635656934786,4.806149885429044,-6.460647934000638,11.410561597562095
5.979007271818483,-2.4387229991288937,10.443697155789076,4.920255501404665,-7.2890840830722174,12.32386773716432
5.9546200418271935,-2.5116138399596157,10.492899710803123,5.043494178776308,-8.204968135285732,13.379189264832203
5.929503903427597,-2.593663521312473,10.543334652590886,5.17728607142463,-9.224450984132464,14.601582597260547
5.903567268214473,-2.6859080311537977,10.595107513305132,5.3233018973972355,-10.367151210524977,16.021023206804845
5.876708187902935,-2.7895795432590473,10.648340532279105,5.483512129465284,-11.656601499319446,17.673387346054238
5.848812392470344,-2.9061455582522417,10.703175653573759,5.660246002925827,-13.120537087595963,19.601274773290168
5.8197509368878215,-3.0373509291282015,10.759778113603018,5.8562587506587285,-14.790683385731086,21.85424425643526
5.7893774275965395,-3.185257762985512,10.818340701109605,6.074801193223081,-16.701310632419336,24.487511799207034
5.757524849966685,-3.3522708693097054,10.879088713041837,6.319676311215152,-18.885028147394003,27.557082064465202
5.724002141273588,-3.5411211507836455,10.942285476153987,6.595247131859804,-21.362688996644934,31.10708771377529
5.688590929765751,-3.754748040750095,11.008237947472585,6.906318008997556,-24.121140820467282,35.14077634589633
5.65104344935825,-3.995959448954768,11.07730112756256,7.25772577245652,-27.066800793779052,39.55855470194569
5.611083854868702,-4.266627456892558,11.149878385287126,7.653311319475977,-29.934005370061115,44.03376709779205
