th1 (rad),w1 (rad/s),th2 (rad),w2 (rad/s)
0.7257927304333489,-0.2824413515668339,2.6361253661642357,2.0444808261245444
0.7229683169176806,-0.3389413687781623,2.656570174425481,1.9774581105919278
0.7195789032298989,-0.39748572250274045,2.6763447555314004,1.9099164069920862
0.7156040460048715,-0.45801796976763565,2.6954439196013213,1.8416977216362387
0.7110238663071952,-0.5204860603206292,2.7138608968176836,1.7726409695310277
0.7058190057039889,-0.5848418670133538,2.731587306512994,1.7025822808749993
0.6999705870338554,-0.6510406380663972,2.7486131293217437,1.6313554333626585
0.6934601806531914,-0.7190403642329004,2.7649266836553705,1.5587924192893532
0.6862697770108623,-0.788801054109529,2.780514607848264,1.4847241576555543
0.678381766469767,-0.8602839113219244,2.7953618494248196,1.4089813622839864
0.6697789273565478,-0.9334504081213757,2.8094516630476596,1.3313955772601904
0.660444423275334,-1.0082612511640054,2.8227656188202617,1.2518003906393087
0.6503618107636939,-1.0846752370019652,2.8352836227266547,1.170032836164646
0.6395150583936743,-1.1626479971973744,2.8469839510883013,1.0859349905403013
0.6278885784217005,-1.2421306360672653,2.857843300993704,0.9993557704109046
0.6154672720610279,-1.3230682679594465,2.8678368586978134,0.9101529284557621
0.6022365893814334,-1.4053984656952672,2.876938387982371,0.8181952417593485
0.5881826047244808,-1.489049637403725,2.885120340399965,0.7233648777819567
0.5732921083504435,-1.5739393553609637,2.8923539891777845,0.6255599138080454
0.5575527147968339,-1.659972667511178,2.898609588315865,0.52469697478902
0.5409529881217221,-1.7470404298556348,2.903856558063755,0.42071394225715003
0.5234825838231657,-1.8350177055228403,2.9080636974863263,0.313572673875761
0.5051324067679372,-1.9237622836243722,2.911199424225084,0.20326165981134903
0.4858947839316935,-2.0131133773920777,2.913232040823197,0.08979852927585776
0.4657636501577727,-2.1028905659191244,2.9141300261159557,-0.026767690701192615
0.44473474449858147,-2.192893046361443,2.913862349208944,-0.14635467078346281
0.42280581403496703,-2.2828992629586207,2.912398802501109,-0.2688453402307859
0.3999768214053808,-2.3726669750280465,2.9097103490988014,-0.39408702367411885
0.37625015165510034,-2.4619338176476373,2.90576947886206,-0.5218912572775006
0.35163081347862396,-2.5504183957912585,2.900550566289285,-0.6520343736885086
0.32612662952071136,-2.6378219352738586,2.8940302225524,-0.7842589235557866
0.29974841016797277,-2.7238304924635957,2.886187633316842,-0.9182759724935252
0.2725101052433368,-2.8081177002295217,2.8770048735919067,-1.0537682771233057
0.24442892824104157,-2.8903480013434844,2.8664671908206736,-1.1903943038684708
0.21552544822760672,-2.9701802942207425,2.854563247781989,-1.327793011820722
0.1858236452853993,-3.047271891357923,2.8412853176637816,-1.4655892790538372
0.15535092637182008,-3.1212826700365945,2.8266294248732433,-1.6033998132981415
0.12413809967145413,-3.1918792795603244,2.810595426740262,-1.7408393559399427
0.09221930687585089,-3.258739260859943,2.7931870331808626,-1.877526965526135
0.059631914267251465,-3.321554933566497,2.774411763525601,-2.0130921553087524
0.026416364931586493,-3.380036912791914,2.7542808419725135,-2.1471806599173004
-0.007384004196332651,-3.4339171323753326,2.7328090353733407,-2.279459619022798
-0.041723175520085976,-3.4829512721379072,2.7100144391831127,-2.4096219898550912
-0.07655268824146505,-3.526920512159896,2.6859182192845616,-2.5373900337648876
-0.111821893363064,-3.5656325653961702,2.6605443189469127,-2.662517762150893
-0.1474782190170257,-3.598921969170236,2.633919141325404,-2.7847922711320305
-0.18346743870872806,-3.626649644476377,2.6060712186140838,-2.9040339394571326
-0.21973393515349182,-3.6487017581418373,2.5770308792195125,-3.020095507718058
-0.2562209527349102,-3.664987945757052,2.546829924142332,-3.132860096890277
-0.2928708321924807,-3.6754389723508103,2.515501323173429,-3.242238259145585
-0.3296252219159888,-3.680003923005638,2.483078940581973,-3.348164183042093
-0.3664252611460452,-3.678647027298697,2.449597298751552,-3.4505911985310673
-0.40321173141903216,-3.6713442302126715,2.4150913867662416,-3.5494867452071426
-0.43992517372115886,-3.658079628732144,2.37959651931417,-3.644826980731433
-0.4765059700084803,-3.6388418984753588,2.343148249506856,-3.736591216438339
-0.5128943889932338,-3.6136208390369853,2.3057823373424724,-3.8247563748634765
-0.5490305973836036,-3.582404170618162,2.267534773593838,-3.909291670184805
-0.5848546390897852,-3.5451747180294397,2.22844185689199,-3.990153717874884
-0.6203063862700796,-3.5019081208677982,2.188540319713241,-4.067282284228802
-0.6553254674787576,-3.45257120969046,2.147867496870953,-4.140596889230038
-0.6898511795756622,-3.3971211859108843,2.1064615279786527,-4.209994476092072
-0.723822391434771,-3.3355057359999782,2.0643615832177318,-4.27534835566525
-0.7571774487947708,-3.267664196055446,2.0216080996610795,-4.336508620937872
-0.7898540907553252,-3.1935298583556717,1.9782430134517008,-4.393304202793371
-0.8217893893388819,-3.113033474686069,1.934309971423767,-4.445546699545106
-0.8529197240857426,-3.0261079600915206,1.889854504428316,-4.493036056425879
-0.8831808036866577,-2.932694234432778,1.8449241438640571,-4.5355680950498165
-0.9125077460309855,-2.832748058586408,1.7995684629135589,-4.572943796612281
-0.9408352266168496,-2.7262476305223604,1.753839024947436,-4.604980128650129
-0.9680977029220732,-2.6132016097657558,1.7077892236609347,-4.6315220793379055
-0.9942297190197308,-2.493657145683426,1.6614740028675556,-4.652455435074245
-1.019166290476565,-2.3677074068164825,1.6149494485168132,-4.667719719546787
-1.04284336454473,-2.235498057611343,1.5682722513213454,-4.677320621060163
-1.0651983451208433,-2.0972321174697575,1.5214990451107437,-4.681341185779852
-1.0861706662955408,-1.9531726745003333,1.4746856332529452,-4.679951061813483
-1.105702393040544,-1.803643017217137,1.4278861226348103,-4.673413151959865
-1.1237388232127155,-1.6490238893509748,1.3811519911152117,-4.662087173222809
-1.1402290621062252,-1.4897477558005259,1.3345311193829836,-4.646429821349705
-1.1551265396642305,-1.3262901741661979,1.2880668211694866,-4.626991481986672
-1.1683894414058924,-1.159158573677054,1.24179690634962,-4.6044096923342535
-1.179981027142663,-0.9888789271743573,1.1957528094262775,-4.579399810238325
-1.1898698164144066,-0.8159809398192683,1.1499588113238943,-4.55274356381582
-1.1980296258125993,-0.6409824538978932,1.104431375685736,-4.525276311543929
-1.2044394503515783,-0.4643737745867442,1.0591786125702967,-4.497873926657396
-1.2090831880974457,-0.2866025583723344,1.0141998733037227,-4.471440227918037
-1.2119492136811691,-0.10805978411059744,0.9694854710245424,-4.4468958191836165
-1.213029811522275,0.07093283729287081,0.9250165128327063,-4.42516908912021
-1.2123204831493464,0.25013384585000187,0.8807648219415042,-4.407189981560813
-1.2098191446908464,0.42939143139710995,0.8366929221258961,-4.393886999696547
-1.2055252303768753,0.608651453429653,0.7927540521289306,-4.386187775102502
-1.1994387158425788,0.7879644482273032,0.7488921743779056,-4.38502343316448
-1.1915590713603057,0.9674921263594605,0.7050419400462608,-4.39133693224755
-1.181884150096711,1.1475139765644355,0.6611285707237853,-4.406095552070673
-1.1704090103310667,1.328434685634758,0.6170676152030785,-4.430307759419518
-1.1571246634747192,1.5107931644478039,0.5727645376088834,-4.465044784028541
-1.1420167318302412,1.6952740422641084,0.528114089768598,-4.511467386055156
-1.1250639914076002,1.882722553204099,0.4829994159080464,-4.5708584716513725
-1.1062367658755592,2.0741637742225594,0.43729083119153267,-4.6446623788875865
-1.0854951281333336,2.2708271366690345,0.3908442074026568,-4.7345317383697765
-1.0627868567666432,2.47417691654338,0.34349889001895906,-4.8423826565954196
-1.0380450876012095,2.6859487818543357,0.2950750634530049,-4.970458254427117
-1.0111855997826662,2.9081909603988145,0.2453704809087337,-5.121398655534316
-0.982103690178678,3.1433052051409467,0.19415649435339055,-5.298310999716846
-0.9506706381272686,3.3940754764692835,0.1411733843562221,-5.5048231753784185
-0.9167298833625758,3.6636570998127334,0.08612515260243792,-5.745084106658456
-0.8800933123644484,3.9554681427514735,0.028674311535853356,-6.023630475361207
-0.8405386309369337,4.272862940686534,-0.03156199321775872,-6.344953723952451
-0.7978100015300684,4.618350032144802,-0.09501153045728322,-6.71243672927854
-0.7516265012086204,4.991913684784526,-0.16213589775006862,-7.126044445693162
-0.7017073643607752,5.387727189714402,-0.23339634220700023,-7.577769562470296
-0.6478300924636312,5.788484091168904,-0.30917403783170316,-8.043736740196447
-0.5899452515519422,6.157818109978874,-0.38961140523366766,-8.473590056580292
-0.5283670704521535,6.436184711201252,-0.4743473057994706,-8.784623079389283
-0.46400522334014094,6.553953119989526,-0.5621935365933635,-8.879823943744505
-0.3984656921402457,6.471273640459294,-0.6509917760308085,-8.703196077523584
-0.3337529557356528,6.2152399141200245,-0.7380237368060443,-8.29126606713862
-0.27160055659445254,5.863189648015796,-0.8209363974774305,-7.749710312581251
-0.21296866011429458,5.4897533980833275,-0.898433500603243,-7.180012854547441
-0.1580711261334613,5.138538418331952,-0.9702336291487175,-6.640678471886777
-0.10668574195014179,4.826334086406745,-1.0366404138675853,-6.153413612702422
-0.058422401086074334,4.555589649929539,-1.0981745499946096,-5.72047604630299
-0.012866504586778946,4.322989632645959,-1.1553793104576395,-5.336470332128842
0.030363391739680647,4.123605033979555,-1.208744013778928,-4.993995838127903
0.07159944207947619,3.952558804882245,-1.258683972160207,-4.6858765683721195
0.11112503012829864,3.8055719040189326,-1.3055427378439282,-4.405868483247367
0.14918074916848795,3.6790612494992208,-1.349601422676402,-4.148767145935169
0.18597136166348016,3.5700786671078486,-1.3910890941357537,-3.9103092217189865
0.22167214833455864,3.4762065964684243,-1.4301921863529434,-3.6870233140136595
0.2564342142992429,3.3954534798738267,-1.46706241949308,-3.4760864934149756
0.2903887490979812,3.326162477487235,-1.5018232844272297,-3.2752034718171723
0.32365037387285356,3.266935965605897,-1.5345753191454015,-3.0825105502362597
0.35631973352891255,3.2165744189189835,-1.565400424647764,-2.8965014780381533
0.3884854777181024,3.17402730173226,-1.5943654394281455,-2.7159711536134883
0.420225750735425,3.1383536792855704,-1.6215251509642803,-2.539973230834486
0.4516092875282807,3.108690679298803,-1.646924883272625,-2.3677882129954044
0.48269619432126876,3.0842284030768803,-1.6706027654025792,-2.19889916343207
0.5135384783520376,3.0641903025100286,-1.6925917570369,-2.032972631845761
0.5441803813771379,3.047818371813738,-1.7129214833553577,-1.8698427763738612
0.5746585650952752,3.034362743758965,-1.7316199111190962,-1.7094969779145475
0.6050021925328649,3.0230754304205445,-1.7487148808982416,-1.5520615290897657
0.6352329468370703,3.013208011973024,-1.7642354961891393,-1.3977862675268962
0.6653650269568006,3.00401306039757,-1.7782133588644082,-1.2470273355553028
0.6954051575607763,2.9947489992117173,-1.7906836322199613,-1.1002275971635995
0.7253526475528934,2.9846879627848293,-1.8016859081915972,-0.9578946242707276
0.7551995271807417,2.973126053522128,-1.8112648544343046,-0.8205765585451887
0.7849307877159629,2.9593952316886796,-1.8194706200197566,-0.6888365293804257
0.8145247400328497,2.942875942397622,-1.826358985313561,-0.5632266225678266
0.843953499456826,2.923009515761185,-1.8319912515392391,-0.4442626072417986
0.8731835946144378,2.89930938933296,-1.836433877611657,-0.3324007095666647
0.9021766885077674,2.8713703037530998,-1.8397578847073237,-0.228017656235727
0.9308903915452984,2.8388748050613613,-1.842038061269681,-0.13139500652844155
0.959279139595912,2.801596628988387,-1.8433520113349653,-0.04270847694700973
0.9872951058857959,2.759400812913015,-1.8437790961044354,0.03797741820983304
1.014889114014926,2.7122406462460797,-1.843399321922337,0.1107094818299957
1.042011520477387,2.6601517992933443,-1.8422922271040372,0.17564113572778287
1.0686130384703205,2.6032441421053374,-1.8405358157467593,0.23302362624811795
1.0946454798913738,2.541691867442268,-1.8382055794842782,0.2831940400158377
1.1200623985657965,2.4757225658250492,-1.8353736390841198,0.3265611224551926
1.144819624224047,2.405605874688965,-1.8321080278595678,0.3635898837020555
1.1688756829709366,2.331642252491353,-1.8284721290225472,0.394785892800548
1.1921921054958502,2.2541523289407244,-1.8245242700945417,0.4206800252365802
1.2147336287852575,2.173467170187808,-1.8203174698421758,0.4418142649176393
1.2364683004871355,2.0899196859683915,-1.8158993271929993,0.45872899069313083
1.2573674973468194,2.003837303769949,-1.811312037286068,0.471952015609704
1.2774058703845188,1.9155359488466843,-1.806592517129971,0.48198950510337907
1.2965612298729856,1.8253153008532828,-1.8017726220789372,0.4893187840468753
1.3148143828815184,1.7334552480873069,-1.7968794342384684,0.49438295375471714
1.3321489353623914,1.640213427280528,-1.7919356047009212,0.49758717755297255
1.3485510696351968,1.5458237181125132,-1.7869597329253915,0.49929645437706044
1.364009306816322,1.4504955543384013,-1.781966768381621,0.499834680181965
1.378514262359706,1.3544139148628163,-1.7769684215798014,0.49948479259356876
1.3920584015083342,1.2577398657516472,-1.7719735736538658,0.4984898012474332
1.4046358001658505,1.1606115359265459,-1.7669886756413915,0.4970545211497764
1.416241915525116,1.0631454234140525,-1.7620181304298936,0.4953478462177772
1.4268733697592566,0.9654379441916158,-1.7570646519677158,0.49350542256394986
1.4365277492011728,0.8675671508993348,-1.7521295977420763,0.4916326042852901
1.445203420710166,0.7695945632691276,-1.7472132716992235,0.489807597188849
1.4528993663428573,0.6715670655916441,-1.742315195727335,0.48808471711977136
1.4596150369987737,0.5735188386003273,-1.7374343485561374,0.48649770876244447
1.465350225384777,0.4754733036341011,-1.732569371468513,0.48506308760706823
1.470104958421118,0.3774450657652336,-1.7277187405924423,0.4837834820301301
1.4738794090787704,0.2794418497213522,-1.722880905772141,0.4826509640568452
1.4766738275759839,0.18146642789289305,-1.7180543961315726,0.4816503663486143
1.4784884918549128,0.08351854350998213,-1.7132378924680864,0.48076258930627735
1.4793236772900127,-0.014403165799617909,-1.7084302665750237,0.4799679059154546
1.4791796456320165,-0.11229923840737352,-1.7036305875158693,0.47924927307876797
1.4780566532479429,-0.2101674486216196,-1.6988380947850816,0.47859565664890635
1.4759549787617268,-0.30800085474625516,-1.6940521382185925,0.47800537313908087
1.4728749702142643,-0.40578583862586,-1.6892720844872016,0.47748944407457494
1.4688171118280058,-0.5035001466535773,-1.6844971900464558,0.477074949105261
1.46378211036147,-0.6011109506554059,-1.679726440555403,0.47680835131878613
1.457771000854916,-0.6985729572632481,-1.6749583570422153,0.47675875277170626
1.4507852712822835,-0.7958266061817195,-1.6701907695144982,0.47702102034530103
1.4428270052204664,-0.892796410828016,-1.6654205593110452,0.47771870211792594
1.4338990411121861,-0.9893895086785438,-1.660643372289866,0.47900663331384025
1.4240051460254006,-1.0854945025580829,-1.6558533059567275,0.48107310970055356
1.4131502009998198,-1.1809806870614328,-1.651042574859722,0.48414148665318985
1.4013403941292055,-1.2756977650313064,-1.64620115999319,0.4884710460304295
1.3885834164788924,-1.3694761659954322,-1.6413164495328858,0.49435696299039533
1.374888654818938,-1.4621280799499214,-1.6363728799029817,0.5021292037378053
1.3602673740194389,-1.5534493140249135,-1.6313515878656037,0.5121501959248124
1.3447328808791896,-1.6432220646084827,-1.6262300859063556,0.5248111389081833
1.328300660233105,-1.7312186719549627,-1.6209819745172738,0.5405268636888674
1.3109884735135553,-1.8172063872575739,-1.6155767058803852,0.5597292135639141
1.2928164096409795,-1.900953133606084,-1.609979413744746,0.5828589962600603
1.2738068783049188,-1.9822341833684893,-1.6041508237821456,0.6103566545455023
1.2539845364712339,-2.0608396079946556,-1.5980472572366906,0.6426519105562922
1.2333761403912873,-2.13658228632677,-1.5916207381311276,0.6801527522071071
1.2120103175280197,-2.2093061900896163,-1.5848192106090566,0.7232342384346289
1.1899172556271236,-2.278894607486793,-1.5775868682247103,0.7722276920273742
1.1671283095522555,-2.34527792560026,-1.5698645913044365,0.8274109119098235
1.143675530296253,-2.408440577216116,-1.5615904821853381,0.8890000591146092
1.1195911245240917,-2.4684267740522907,-1.552700481594192,0.9571438430215126
1.0949068567835687,-2.5253446998184503,-1.543129043163977,1.0319205520872399
1.0696534097853843,-2.5793689230737216,-1.5328098376431045,1.1133383378621837
1.043859720554647,-2.630740907059166,-1.5216764542644827,1.201338981493145
1.0175523114840552,-2.6797676327583204,-1.5096630644495512,1.2958051641664476
0.990754635156472,-2.7268184999621496,-1.4967050128078867,1.3965710487015996
0.9634864501568505,-2.772320814664444,-1.4827393023208708,1.5034357832948761
0.9357632420102061,-2.8167542954580087,-1.467704944487922,1.6161793840926864
0.907595699055626,-2.860645125061938,-1.4515431506469951,1.7345803603483987
0.8789892478050066,-2.904560128603736,-1.4341973470435112,1.858434426543665
0.8499436465189693,-2.9491016765921523,-1.4156130027780744,1.9875737032614795
0.8204526297530478,-2.994903892527859,-1.3957372657454596,2.121885937248954
0.7905035908277692,-3.0426307029646367,-1.37451840637297,2.261333458590002
0.7600772837981229,-3.092976215365388,-1.35190507178707,2.4059718230387905
0.729147521644469,-3.1466678617680834,-1.327845353556682,2.5559683439845653
0.6976808430267882,-3.204472719287607,-1.3022856701168364,2.711620987967611
0.6656361158339121,-3.267207425195502,-1.2751694602371604,2.8733783822556638
0.6329640415819571,-3.3357521551118534,-1.2464356764146038,3.041861960950698
0.5996065200308386,-3.411069233980311,-1.216017056805097,3.2178915605281335
0.5654958276910355,-3.49422710115454,-1.1838381411998156,3.4025160705224406
0.5305535566794901,-3.586430542417085,-1.1498129804945911,3.5970510461902796
0.49468925125531926,-3.6890583002012782,-1.1138424700326883,3.8031254673140715
0.4577986682533065,-3.8037092979664933,-1.0758112153595476,4.0227399873051075
0.41976157527364155,-3.93225858068109,-1.0355838154864965,4.258338823232815
0.38043898946683063,-4.076923269531897,-0.9930004272541684,4.5128963419571875
0.3396697567715117,-4.24033645426206,-0.9478714638345965,4.790016173984741
0.29726639222889106,-4.42562104154343,-0.8999713020947491,5.094032640928452
0.25301018181345675,-4.636441906391033,-0.8490309756854646,5.430085554058286
0.2066457627495464,-4.876984185273751,-0.7947301201448818,5.804097426173441
0.1578759208968089,-5.151739221271953,-0.7366891458831474,6.222490360274015
0.10635852868408938,-5.464839968741638,-0.6744642422804072,6.691285763810862
0.051710128996673,-5.8184104809025605,-0.6075513846422986,7.213843415445625
-0.006473975812352602,-6.208916430252528,-0.5354129504878424,7.785827376476772
-0.06856314011487788,-6.619983913358161,-0.4575546767230747,8.38525215891303
-0.13476297924845948,-7.010846781462099,-0.3737021551339444,8.956412128246226
-0.20487144706308047,-7.305636781309187,-0.2841380338514821,9.394932343537615
-0.27792781487617235,-7.404548844035622,-0.19018871041610597,9.56326831601266
-0.35197330331652854,-7.242474754722229,-0.09455602725597936,9.372300670093141
-0.4243980508637508,-6.856127301049599,-0.0008330205550479558,8.87439782333283
-0.4929593238742468,-6.359558219286897,0.08791095767828035,8.228589683082749
-0.5565549060671158,-5.854580248440441,0.17019685450910782,7.575894265216739
-0.6151007085515202,-5.391516509233357,0.24595579716127522,6.98548478259723
-0.6690158736438538,-4.983694207608193,0.31581064498724754,6.475378194748734
-0.7188528157199358,-4.628249949381118,0.38056442693473486,6.041439560469001
-0.7651353152137469,-4.3174802976646856,0.4409788225394249,5.673066528526328
-0.8083101181903938,-4.043314802389186,0.49770948782468816,5.359308161834499
