th1 (rad),w1 (rad/s),th2 (rad),w2 (rad/s),a1 (rad/s^2),a2 (rad/s^2)
2.924375749924049,-1.0785301631853894,0.3506002242439117,0.1732011486261387,-5.08097973478611,-7.02400470014498
2.913590448292195,-1.1293399605332506,0.3523322357301731,0.1029611016246889,-5.135481840452137,-6.977245566165019
2.9022970486868624,-1.180694778937772,0.35336184674641996,0.03318864596303871,-5.193053576579889,-6.9200892598659305
2.890490100897485,-1.2326253147035708,0.35369373320605035,-0.036012246635620596,-5.25384068968183,-6.85238041770335
2.878163847750449,-1.285163721600389,0.35333361073969416,-0.1045360508126541,-5.317925024237779,-6.773887067262085
2.8653122105344453,-1.3383429718427668,0.3522882502315676,-0.17227492148527496,-5.385325255235233,-6.684301610369938
2.8519287808160176,-1.3921962243951191,0.35056550101671485,-0.23911793758897434,-5.455997791373821,-6.5832421621003965
2.8380068185720666,-1.4467562023088574,0.3481743216408251,-0.3049503592099783,-5.529837831123308,-6.4702542264614475
2.823539256548978,-1.5020545806200905,0.34512481804872536,-0.3696529014745928,-5.606680572642406,-6.344812710261783
2.808518710742777,-1.5581213863465144,0.3414282890339794,-0.4331010285772106,-5.686302596892191,-6.206324296484404
2.7929374968793117,-1.6149844123154364,0.33709727874820733,-0.49516427154205467,-5.768423461113777,-6.054130217287952
2.7767876527561572,-1.6726686469265741,0.3321456360327868,-0.5557055737149342,-5.852707557207783,-5.8875094842990405
2.7600609662868916,-1.731195722498652,0.3265885802956375,-0.6145806685579246,-5.938766306473261,-5.705682649916638
2.742749009061905,-1.7905833855633846,0.32044277361005824,-0.6716374950570909,-6.026160778623883,-5.507816187604472
2.724843175206271,-1.8508449933496234,0.3137263986594873,-0.7267156569331357,-6.11440483893056,-5.29302759116954
2.7063347252727747,-1.911989041738929,0.30645924209015596,-0.7796459328448311,-6.202968942590502,-5.060391302232525
2.6872148348553853,-1.9740187311648338,0.29866278276170766,-0.8302498458671563,-6.291284709734088,-4.80894558072588
2.6674746475437368,-2.0369315782621746,0.2903602843030361,-0.8783393016744151,-6.3787504274635785,-4.537700434328506
2.647105331761115,-2.1007190825368105,0.281576891286292,-0.9237163060177002,-6.464737636430986,-4.245646718043825
2.626098140935747,-2.1653664589011203,0.27233972822611496,-0.9661727731981384,-6.548598967999401,-3.931766503177041
2.604444476346736,-2.2308524485811145,0.2626780004941336,-1.0054904382299088,-6.629677403110898,-3.5950447940349797
2.582135951860925,-2.2971492226122234,0.2526230961118345,-1.0414408861702587,-6.707317124554028,-3.2344826387902073
2.5591644596348027,-2.3642223938577636,0.2422086872501319,-1.0737857125581607,-6.780876129187938,-2.8491116359610746
2.535522235696225,-2.4320311551496427,0.23147083012455028,-1.1022768289177713,-6.84974075454494,-2.4380097776024225
2.5112019241447285,-2.500528562695092,0.22044806183537255,-1.1266569266937956,-6.9133422537928215,-2.0003184923526574
2.486196638517778,-2.56966198523302,0.2091814925684346,-1.146660111617322,-6.97117552309866,-1.53526065394091
2.4605000186654475,-2.6393737404640065,0.19771489145226137,-1.1620127181567312,-7.022820045094004,-1.0421592021001254
2.4341062812608074,-2.7096019409149465,0.18609476427069405,-1.1724343101777326,-7.067963061015849,-0.5204558823218407
2.407010261851658,-2.780281571525105,0.1743704211689167,-1.177638869000951,-7.106424922621417,0.030270551063566326
2.3792074461364066,-2.851345820751319,0.1625940324789072,-1.1773361634903152,-7.138186504735165,0.6102875054534
2.3506939879288935,-2.922727685798671,0.15082067084400405,-1.1712332884357812,-7.163418483405976,1.2196941282932416
2.3214667110709066,-2.9943618706327304,0.13910833795964625,-1.1590363471528489,-7.182512208173446,1.8584105340869437
2.2915230923645793,-3.066186992714465,0.12751797448811775,-1.1404522418119794,-7.1961118271802205,2.5261721293015493
2.2608612224374345,-3.138148110986267,0.11611345206999796,-1.1151905205189638,-7.205147270674717,3.222530683747407
2.2294797413275718,-3.210199583693014,0.10496154686480832,-1.0829652136814898,-7.2108676743252005,3.9468639756343156
2.1973777454906416,-3.2823082604362663,0.09413189472799342,-1.0434965739251467,-7.214874843753425,4.698395983064904
2.164554662886279,-3.3544570088738004,0.08369692898874195,-0.9965126140944977,-7.219156443001089,5.476229696125808
2.131010092797541,-3.4266485733038112,0.07373180284779697,-0.9417503171332395,-7.2261187509710565,6.279394673344383
2.096743607064503,-3.498909760813522,0.06431429967646457,-0.8789563703997957,-7.2386190905114995,7.106911462735458
2.061754509456368,-3.571295951718637,0.05552473597246661,-0.8078872557724411,-7.259998413473862,7.957874959042277
2.0260415499391815,-3.6438959358533753,0.047445863414742204,-0.7283085061820184,-7.294115038865627,8.83155869577337
1.9896025905806478,-3.7168370862420317,0.04016277835292202,-0.6399929192242847,-7.345381204673855,9.727542009311128
1.9524342197182274,-3.79029089828877,0.033762849160679176,-0.5427174991311734,-7.4188049185516824,10.645862015809142
1.9145313107353397,-3.864478947474287,0.028335674169367442,-0.43625887897308196,-7.520040586841342,11.58719247972691
1.8758865212605969,-3.9396793533427004,0.023973085379636622,-0.32038695417581287,-7.655453071247265,12.553052009305272
1.83648972772717,-4.016233884055173,0.020769215837878493,-0.19485643408276015,-7.832201171054877,13.546044678807787
1.7963273888866182,-4.094555895765722,0.01882065149705089,-0.05939598729468229,-8.058348053969544,14.570137230980224
1.755381829928961,-4.175139376305417,0.018226691624104067,0.08630538501511995,-8.343007843497384,15.630978500907277
1.7136304361659067,-4.258569454740391,0.019089745474255265,0.24261517002419272,-8.696539358688693,16.736268582509602
1.6710447416185028,-4.3455348483272775,0.021515897174497194,0.40997785584928875,-9.130799739355545,17.896187306364872
1.62758939313523,-4.436842845720833,0.025615675732990083,0.5889397289129374,-9.65947200246234,19.12389321619265
1.5832209646780218,-4.533437565745457,0.031505073022119454,0.780178661074864,-10.29848061218782,20.436104080662986
1.5378865890205673,-4.636422371867335,0.03930685963286809,0.9845397018814939,-11.066506053707705,21.85376522279166
1.4915223653018939,-4.7470874324044114,0.04915225665168303,1.2030773541094104,-11.985599252012895,23.402796746362956
1.4440514909778497,-4.86694342492454,0.06118303019277714,1.43710532157304,-13.08187128539623,25.11487314711579
1.3953820567286044,-4.997762137778502,0.07555408340850754,1.688254053044198,-14.386176290191536,27.02810447894791
1.3454044353508194,-5.141623900680417,0.09243662393894952,1.958535097833677,-15.934580935877777,29.187307595312447
1.2939881963440152,-5.300969710039195,0.1120219749172863,2.2504081737868016,-17.768151057626714,31.64317798277321
1.2409784992436232,-5.478651220615462,0.13452605665515432,2.566839953614534,-19.931039998777607,34.448892868587826
1.1861919870374686,-5.677961620603238,0.16019445619129966,2.911328882300412,-22.46474478552627,37.65108814876443
1.1294123708314363,-5.902609068458501,0.18930774501430378,3.2878397637880563,-25.394153997964395,41.26898258815343
1.0703862801468513,-6.156550608438145,0.22218614265218434,3.7005295896695904,-28.696702269568487,45.24935734336479
1.00882077406247,-6.4435176311338305,0.25919143854888027,4.153023163103239,-32.23841636913769,49.37454556100517
0.9443855977511316,-6.765901794825208,0.30072167017991264,4.64676861871329,-35.65047756666773,53.08646380749776
0.8767265798028796,-7.1224065704918855,0.3471893563670455,5.177633256788268,-38.11824521443044,55.187873492989475
0.8055025140979607,-7.50358902263619,0.3989656889349282,5.729511991718163,-38.10992116265476,53.46111534496544
0.7304666238715988,-7.884688234262737,0.4562608088521098,6.264123145167818,-33.30909359724194,44.58094866292859
0.6516197415289714,-8.217779170235156,0.518902040303788,6.709932631797104,-21.508584734416306,25.39574150089132
0.5694419498266199,-8.432865017579319,0.586001366621759,6.963890046806017,-3.1673168870300157,-3.4303896471343354
0.4851132996508267,-8.46453818644962,0.6556402670898192,6.929586150334673,16.40734805057656,-34.302958897619895
0.4004679177863305,-8.300464705943854,0.7249361285931659,6.586556561358474,30.10753394107168,-56.999714964809556
0.31746327072689196,-7.999389366533138,0.7908016942067506,6.016559411710379,35.22718919044913,-67.49159702602837
0.23746937706156057,-7.647117474628646,0.8509672883238544,5.341643441450095,34.075068382984796,-68.89774265624364
0.16099820231527412,-7.306366790798799,0.9043837227383553,4.652666014887658,30.024556631057763,-65.93552311863209
0.08793453440728613,-7.006121224488221,0.950910382887232,3.9933107837013373,25.251832030670226,-61.68927493568011
0.01787332216240392,-6.753602904181519,0.9908434907242454,3.3764180343445362,20.73796417713954,-57.57029246457164
-0.04966270687941127,-6.546223262410123,1.0246076710676908,2.80071510969882,16.811509744559764,-54.06099327448411
-0.1151249395035125,-6.378108164964526,1.052614822164679,2.260105176953979,13.523757612084014,-51.238324954429736
-0.17890602115315776,-6.242870588843686,1.0752158739342188,1.7477219274096814,10.829253422218443,-49.02883582916496
-0.24133472704159462,-6.134578054621501,1.0926930932083156,1.2574335691180316,8.659928448992806,-47.31553779672815
-0.3026805075878096,-6.047978770131573,1.105267428899496,0.7842781911507501,6.951883960021894,-45.978332348026505
-0.36316029528912536,-5.978459930531354,1.1131102108110034,0.3244948676704851,5.652961247054177,-44.90733571724669
-0.4229448945944389,-5.921930318060812,1.1163551594877081,-0.1245784895019818,4.723040166545203,-44.0059625218002
-0.48216419777504704,-5.87469991639536,1.1151093745926883,-0.5646381147199838,4.131872515312506,-43.1906122151284
-0.5409111969390007,-5.8333811912422355,1.1094629934454885,-0.9965442368712678,3.8563111719757868,-42.3896009627201
-0.5992450088514231,-5.794818079522478,1.0994975510767757,-1.420440246498469,3.877624452613888,-41.54225829198539
-0.6571931896466479,-5.7560418349963385,1.085293148611791,-1.8358628294183228,4.179137205120272,-40.59841035912236
-0.7147536079966113,-5.714250462945135,1.0669345203176077,-2.2418469330095463,4.744278734882535,-39.518197674765176
-0.7718961126260626,-5.66680767559631,1.0445160509875122,-2.637028909757198,5.555063195242183,-38.272079885451376
-0.8285641893820257,-5.611257043643888,1.0181457618899403,-3.0197497086117115,6.591007896914252,-36.84086474031647
-0.8846767598184646,-5.545346964674745,0.9879482648038233,-3.388158356014876,7.828481480177458,-35.21562132565533
-0.9401302294652121,-5.46706214987297,0.9540666812436744,-3.7403145692714292,9.240459057390384,-33.39737913260797
-0.9948008509639418,-5.374657559299067,0.9166635355509601,-4.074288360597509,10.796645723199608,-31.396562050083663
-1.0485474265569323,-5.26669110206707,0.875920651944985,-4.388253981098346,12.463916542706956,-29.232150476117997
-1.1012143375776031,-5.142051936640001,0.8320381121340016,-4.680575485859526,14.207013212961314,-26.930598650807386
-1.152634856944003,-4.999981804510387,0.7852323572754063,-4.9498814723676,15.98943596065441,-24.52455483940335
-1.2026346749891068,-4.840087444903843,0.7357335425517303,-5.195127020761634,17.774472390430834,-22.051439936953265
-1.2510355494381453,-4.6623427209995345,0.6837822723441139,-5.415641420131166,19.52630979877408,-19.551939499191228
-1.2976589766481406,-4.467079623011793,0.6296258581428023,-5.611160815123078,21.211180621342425,-17.06846068567694
-1.3423297728782584,-4.254967816798369,0.5735142499915715,-5.781845421979848,22.798490258686236,-14.643603965665765
-1.384879451046242,-4.026982914211507,0.515695795771773,-5.928281461636506,24.26187291451231,-12.318702012491386
-1.4251492801883572,-3.7843641850663836,0.45641298115540796,-6.05146848176142,25.58011696419868,-10.132484112150848
-1.462992922039021,-3.528563015424397,0.3958982963377938,-6.152793322882928,26.737900737960057,-8.119930123136298
-1.498278552193265,-3.2611840080447965,0.3343703631089645,-6.233992624114292,27.726286182074464,-6.311378995949945
-1.530890392273713,-2.983921146224052,0.2720304368678216,-6.297106414073791,28.542933587396142,-4.731949435460066
-1.5607296037359535,-2.698491810350091,0.20905937272708366,-6.344425908428391,29.192024674772735,-3.4013132298202993
-1.5877145218394544,-2.4065715636023635,0.14561511364279975,-6.378439040726595,29.68391037022567,-2.3338368209867895
-1.611780237475478,-2.1097324599001066,0.0818307232355338,-6.4017774089364625,30.03452845422376,-1.5390780300238884
-1.632877562074479,-1.809387175357869,0.01781294914616917,-6.417168189236701,30.264659553641543,-1.0225976879077336
-1.6509714338280579,-1.5067405798214535,-0.04635873274619784,-6.4273941661157785,30.39910343415958,-0.7870248065158602
-1.6660388396262724,-1.2027495454798576,-0.11063267440735562,-6.435264414180937,30.465858959718698,-0.8333012676193396
-1.678066335081071,-0.8980909558826706,-0.174985318549165,-6.4435974268571306,30.495379985153093,-1.162027148556038
-1.6870472446398976,-0.5931371560311397,-0.2394212928177363,-6.4552176983426905,30.51995626524991,-1.7748265096039124
-1.692978616200209,-0.2879375933786406,-0.30397346980116324,-6.47296596343873,30.57323265952149,-2.675647393125164
-1.6958579921339954,0.01779473321657432,-0.36870312943555056,-6.499722437369981,30.689827316954368,-3.8718850059836347
-1.6956800448018297,0.32469300638611803,-0.43370035380925037,-6.5384412874298175,30.904928405067917,-5.375150394078418
-1.6924331147379685,0.6337422904367972,-0.49908476668354856,-6.592192791370602,31.253613691377456,-7.201358068192793
-1.6860956918336005,0.9462784273505718,-0.5650066945972546,-6.664206372052529,31.769397691687598,-9.369502598676343
-1.6766329075600948,1.2639724042674478,-0.6316487583177799,-6.757901398039293,32.48107468546686,-11.897905937224722
-1.6639931835174202,1.5887831511221164,-0.6992277722981728,-6.87688045741154,33.406133039082455,-14.795619157316093
-1.648105352006199,1.922844481512941,-0.7679965768722882,-7.0248366489847,34.53762344933128,-18.044707009548766
-1.6288769071910696,2.2682207160062537,-0.8382449433621352,-7.205283719080188,35.81911242740171,-21.56594949293678
-1.606194700031007,2.6264118402802707,-0.9102977805529371,-7.420943214009556,37.09940714150904,-25.156243216250648
-1.5799305816282043,2.997405911695361,-0.9845072126930327,-7.672505646172063,38.057330351656226,-28.383699663615772
-1.5499565225112506,3.3779792152119232,-1.0612322691547533,-7.95634264280822,38.095894776686116,-30.43846681535191
-1.5161767303591314,3.7589381629787844,-1.1407956955828356,-8.26072731096174,36.248852011986514,-29.9972094729573
-1.4785873487293435,4.121426683098649,-1.223402968692453,-8.560699405691313,31.25682204393537,-25.317755438619322
-1.437373081898357,4.433994903538003,-1.309009962749366,-8.813876960077506,22.11565242813411,-14.984329636719476
-1.393033132862977,4.6551514278193435,-1.3971487323501413,-8.9637202564447,9.218577599029127,0.523305862873576
-1.3464816185847837,4.747337203809635,-1.4867859349145882,-8.958487197815964,-4.810326116935602,17.680198500373443
-1.2990082465466872,4.699233942640279,-1.5763708068927478,-8.78168521281223,-16.25786245718839,31.483061814364522
-1.2520159071202843,4.536655318068395,-1.66418765902087,-8.466854594668584,-22.92160072858928,39.00412684519215
-1.2066493539396004,4.307439310782502,-1.7488562049675558,-8.076813326216662,-25.121580225667877,40.73788832349573
-1.1635749608317754,4.056223508525823,-1.8296243382297224,-7.6694344429817045,-24.453145361982006,38.86633716256491
-1.1230127257465172,3.811692054906003,-1.9063186826595393,-7.280771071356055,-22.403712131814327,35.38049816233396
-1.084895805197457,3.58765493358786,-1.9791263933730998,-6.926966089732716,-19.89921659627761,31.489653620312218
-1.0490192558615785,3.388662767625084,-2.048396054270427,-6.612069553529594,-17.40125317359817,27.77322083749193
-1.0151326281853277,3.2146502358891023,-2.114516749805723,-6.334337345154674,-15.10034262013145,24.45131217300963
-0.9829861258264366,3.063646809687788,-2.1778601232572696,-6.089824223424578,-13.05276658498811,21.571576745857172
-0.9523496577295587,2.9331191438379065,-2.2387583654915155,-5.874108455966006,-11.255521138728431,19.109426365205245
-0.9230184662911797,2.820563932450622,-2.2974994500511756,-5.683014192313953,-9.68287977301315,17.015696642901496
-0.8948128269666734,2.7237351347204903,-2.3543295919743152,-5.512857225884939,-8.302966779983091,15.237449123249604
-0.8675754756194685,2.6407054669206595,-2.4094581642331647,-5.360482734652442,-7.08471056585112,13.726122017405691
-0.8411684209502619,2.569858361262148,-2.4630629915796893,-5.223221514478385,-6.000382683534869,12.44003710844616
-0.8154698373376404,2.5098545344267995,-2.515295206724473,-5.0988211433939234,-5.026205463613079,11.344536331582008
-0.7903712919933724,2.4595924797906688,-2.566283418158412,-4.985375780078104,-4.142179647061349,10.41122246639937
-0.7657753671954657,2.418170683320055,-2.616137175959193,-4.88126355541411,-3.331653777399392,9.616940352722668
-0.7415936603622652,2.3848541455460612,-2.6649498115133343,-4.7850941518868835,-2.5808649349791506,8.942752214265033
-0.7177451189068045,2.35904549619627,-2.7128007530322034,-4.695666629744233,-1.8785473336544174,8.37298894805663
-0.6941546639448418,2.340260022859726,-2.7597574193296457,-4.611936740263666,-1.2156464621309762,7.894384395442734
-0.6707520637162445,2.328103558238416,-2.8058767867322825,-4.532992896309239,-0.5851516137146572,7.495269163139316
-0.6474710281338604,2.3222520421012693,-2.851206715695375,-4.458040204677847,0.01795060645402181,7.164791109834142
-0.6242485077128477,2.3224315481658095,-2.8957871177421532,-4.386392293579505,0.5966048631515115,6.89213172713518
-0.6010241922311896,2.3283975967973247,-2.939651040677948,-4.317470976308154,1.151507846997318,6.665698972999238
-0.5777402162632164,2.339912675267298,-2.98282575044103,-4.250813986578161,1.6808440999633607,6.472299139457543
-0.5543410895105434,2.3567211162669315,-3.025333890306811,-4.186090995183586,2.179982127083454,6.29632637634447
-0.530773878347874,2.378520937537766,-3.067194800258647,-4.1231277314201416,2.6412103277256955,6.119061499189411
-0.5069886689724964,2.404933040815023,-3.1084260775728487,-4.061937116428248,3.0536378249128,5.9182407008080995
-0.4829393385643462,2.4354694190641513,-3.149045448737131,-4.0027547094201665,3.403434436054083,5.668129368342847
-0.45858464437370466,2.469503763424692,-3.189072995831333,-3.946073415736738,3.6746179985763208,5.3403900592889055
-0.43388960673945776,2.506249943410455,-3.2285337299887003,-3.892669515143849,3.8505837011468387,4.9060208973078545
-0.4088271073053532,2.5447557804219234,-3.267460425140139,-3.8436093061707703,3.9164683700262146,4.3385027573395725
-0.38337954950113395,2.5839204641221856,-3.3058965182018465,-3.8002242785973745,3.86222321653046,3.617986766211981
-0.3575403448599121,2.62254269628749,-3.34389876098782,-3.764044410935255,3.685946756970284,2.735897252347577
-0.3313149178970372,2.6594021638571927,-3.3815392050971727,-3.736685438411779,3.396699349961409,1.6988508637800104
-0.30472089625846527,2.693369157356807,-3.4189060594812903,-3.7196969297739786,3.015852819181238,0.5305433850978291
-0.2777872046848972,2.723527685548619,-3.45610302877903,-3.7143914959230004,2.576200021937088,-0.729512409499918
-0.250551927829411,2.74928968576799,-3.49324694373826,-3.7216866200179997,2.118615407762454,-2.030716807455808
-0.22305903097173108,2.7704758398456146,-3.53046380993844,-3.741993788092558,1.6868521661261136,-3.3187689213616243
-0.19535427257327492,2.7873443615068756,-3.5678837478193657,-3.775181477306174,1.321734158245428,-4.543931295621664
-0.16748082895820615,2.80056170308933,-3.6056355625924272,-3.8206207902623905,1.0562130118230493,-5.668086540241193
-0.13947521192731285,2.8111238332075605,-3.643841770495051,-3.8773016556648026,0.912408294426327,-6.668998924452109
-0.11136397359523725,2.820247916151824,-3.682614787051699,-3.9439916449093237,0.9010287956754044,-7.541223684847112
