th1 (rad),w1 (rad/s),th2 (rad),w2 (rad/s)
0.7246596902948207,2.269634636469681,5.040588216297843,-2.70988029155847
0.7473560366595176,2.192109053885068,5.013489413382259,-2.5995312774245347
0.7692771271983683,2.117633756326888,4.987494100608013,-2.49473556162662
0.7904534647616371,2.0457066832304585,4.962546744991747,-2.3950572068012894
0.8109105315939418,1.9758772172008487,4.938596172923734,-2.300139143900718
0.8306693037659503,1.9077387798503689,4.915594781484727,-2.2096896635259835
0.8497466915644539,1.8409231867752773,4.8934978848494675,-2.1234708465790275
0.8681559234322067,1.7750964154988191,4.872263176383677,-2.041288513477364
0.8859068875871949,1.7099555002033922,4.851850291248903,-1.9629833877313017
0.9030064425892289,1.6452263112197067,4.83222045737159,-1.8884232622275872
0.919458705701426,1.580662010262609,4.813336224749314,-1.8174960293386018
0.9352653258040521,1.5160419981831275,4.795161264455928,-1.7501034918871867
0.9504257457858833,1.4511711936426475,4.777660229537056,-1.6861559130282158
0.9649374577223098,1.3858795009673734,4.760798670406774,-1.6255672907242549
0.9787962527319835,1.3200213451578697,4.744542997499531,-1.568251357984654
0.9919964661835622,1.2534751725752382,4.728860483919685,-1.5141183147850694
1.0045312179093147,1.186142837532635,4.713719300771834,-1.463072293222492
1.016392646284641,1.1179488176628039,4.69908857783961,-1.4150095459393528
1.0275721344612692,1.0488392238448796,4.6849384823802165,-1.3698173313943105
1.038060526699718,0.9787805927031062,4.671240309066273,-1.327373450543867
1.0478483326267491,0.9077584701603068,4.6579665745608345,-1.2875463702796726
1.0569259173283523,0.8357758122074724,4.645091110858038,-1.2501958516717033
1.065283675450427,0.7628512430926717,4.632589152341321,-1.2151739874283085
1.0729121878813537,0.6890172209845864,4.620437412467038,-1.1823265442008752
1.0798023600911995,0.6143181666224352,4.60861414702503,-1.15149450203945
1.0859455417574237,0.5388086116693871,4.597099202004635,-1.1225156854656893
1.0913336278741177,0.4625514208937669,4.585874045149978,-1.095226387777982
1.0959591420830554,0.3856161365973403,4.574921781272199,-1.0694629014569124
1.0998153034490288,0.30807748571812726,4.564227152257629,-1.0450628817714158
1.10289607830621,0.23001408062528217,4.5537765234399155,-1.0218664866799427
1.105196219112463,0.1515073346218437,4.5435578585731164,-0.9997172527036258
1.1067112924586813,0.07264060329475239,4.53356068604608,-0.9784626825960485
1.1074376984916288,-0.006501446334572475,4.523776059220119,-0.9579545355410009
1.1073726840282831,-0.08583324500813977,4.514196513864709,-0.9380488237199252
1.1065143515782017,-0.16526852172194992,4.50481602562751,-0.9186055300987477
1.1048616663609823,-0.24472031387058532,4.495629970326522,-0.8994880711084126
1.1024144632222763,-0.3241008095007842,4.486635089615438,-0.8805625346373477
1.0991734551272685,-0.4033210470456655,4.477829464269065,-0.8616967286545845
1.095140244656812,-0.4822904998570088,4.469212496982519,-0.8427590791611247
1.0903173396582417,-0.5609165740621401,4.4607849061909075,-0.8236174183842786
1.0847081739176203,-0.6391040489811608,4.452548732007065,-0.8041377055434176
1.0783171334278088,-0.7167544897673265,4.4445073549516305,-0.7841827234509164
1.0711495885301354,-0.7937656622615582,4.436665527717121,-0.7636107949368377
1.06321193190752,-0.8700309804185181,4.429029419767753,-0.7422745637937619
1.0545116221033348,-0.9454390171498013,4.421606674129816,-0.7200198857370984
1.0450572319318367,-1.0198731100639875,4.414406475272445,-0.6966848757812624
1.0348585008311968,-1.0932110943256723,4.407439626514632,-0.6720991593611781
1.02392638988794,-1.165325195603956,4.40071863492102,-0.6460833753005829
1.0122731379319005,-1.236082116667893,4.394257801168014,-0.6184489790641018
0.9999123167652216,-1.3053433513804213,4.388073311377373,-0.5889983942549244
0.9868588832514175,-1.3729657593504676,4.382183327434824,-0.5575255585735811
0.9731292256579128,-1.4388024329781346,4.376608071849088,-0.5238169069036588
0.9587412013281315,-1.5027038856812045,4.371369902780051,-0.48765282825770606
0.9437141624713195,-1.5645195853118876,4.366493374497474,-0.4488096244102266
0.9280689666182006,-1.624099849757988,4.362005278253372,-0.4070619856135769
0.9118279681206207,-1.6812981121187047,4.3579346583972365,-0.36218598239341265
0.8950149869994337,-1.7359735504009504,4.354312798573303,-0.3139625518017771
0.8776552514954242,-1.7879940613135306,4.351173173055285,-0.2621814317071169
0.8597753108822889,-1.837239539600242,4.348551358738214,-0.20664546815622065
0.8414029154862864,-1.883605403919551,4.346484904056652,-0.14717518948389535
0.8225668614470909,-1.9270062883972936,4.345013152161813,-0.08361350817584408
0.803296798563118,-1.9673797969177176,4.344177017080054,-0.015830379617450638
0.7836230005939409,-2.004690196661978,4.344018713283879,0.056272781539245836
0.7635760986273211,-2.0389319103921957,4.344581441099272,0.13275914847947284
0.7431867795233992,-2.0701326557735156,4.345909032584066,0.21365322583860952
0.722485452965664,-2.098356076891331,4.348045564842452,0.29893852181641445
0.7015018921967507,-2.1237037200398716,4.351034950060616,0.38855636424169326
0.680264854996352,-2.1463162242047593,4.354920513703033,0.48240604260157144
0.6588016927543044,-2.1663736268711333,4.359744574129048,0.5803464078924095
0.6371379564855931,-2.1840947270954136,4.365548038207972,0.6821989973282565
0.615297009214639,-2.199735498086218,4.372370028181255,0.7877526755049432
0.5932996542337768,-2.2135865974777884,4.380247554936304,0.8967697034029866
0.5711637882589989,-2.2259700806774596,4.389215251970334,1.008993068732659
0.5489040874522243,-2.237235476237611,4.399305182657661,1.1241548431641297
0.5265317326898482,-2.247755427357806,4.410546731089302,1.2419852810295269
0.5040541784162701,-2.2579211363548426,4.422966583899598,1.3622223457412264
0.4814749670527217,-2.268137866604407,4.43658880735701,1.4846213477782646
0.4587935883866776,-2.2788207581824027,4.451435020834793,1.6089644022596454
0.43600538080485357,-2.2903912002389273,4.467524664857389,1.7350694627139913
0.4131014688024643,-2.3032739777816076,4.484875359484529,1.862798756214465
0.39006872902464823,-2.317895377108767,4.503503347046673,1.9920665275804825
0.3668897752535606,-2.3346823974459654,4.5234240123224785,2.1228460902917354
0.34354295127910095,-2.3540631813571244,4.544652473225396,2.25517627297093
0.3200023194655297,-2.376468747746214,4.5672042359551055,2.3891674378618672
0.2962376319880676,-2.402336092408373,4.591095910333724,2.525007328520347
0.2722142710639838,-2.4321127146992803,4.616345983618928,2.662967076757895
0.24789314391699102,-2.4662626363227593,4.642975654386507,2.8034077643095285
0.22323051755376344,-2.5052739995638955,4.671009732029602,2.946787994533816
0.1981777775581245,-2.5496683661419293,4.70047761197494,3.093672985768324
0.1726810938967052,-2.6000118808699706,4.7314143418326235,3.244745751601969
0.14668097508800548,-2.656928509873016,4.763861799348644,3.4008209814486845
0.12011168998927532,-2.721115598618798,4.79787000916313,3.5628622666157543
0.09290053400308734,-2.7933619963694567,4.833498631829288,3.7320033059917552
0.06496691403939278,-2.8745689146718614,4.870818664889206,3.9095736145383944
0.03622122489267417,-2.9657734394604973,4.90991440103459,4.097128931570546
0.006563490498069192,-3.06817402895276,4.950885690350296,4.296485756926943
-0.02411824979145841,-3.1831560761845172,4.993850547919565,4.509757789043316
-0.055949810553303586,-3.31231307063494,5.038948125809998,4.739388644729667
-0.08907294125965298,-3.457453866768641,5.086342012257295,4.98816846599235
-0.12364747992733939,-3.620576813321338,5.136223696917218,5.2592087554434315
-0.1598532480605528,-3.8037728858830517,5.188815784471653,5.55582427918549
-0.19789097691938332,-4.0089852953703975,5.2443740272635075,5.881223051953456
-0.2379808298730873,-4.237491234693429,5.303186257783042,6.237819637222124
-0.2803557422200216,-4.488870896379468,5.365564454155264,6.625846582190146
-0.3252444511838163,-4.759099028996618,5.431822919977165,7.040755637302234
-0.37283544147378245,-5.03734382257298,5.502230476350188,7.468823871409412
-0.42320887969951226,-5.301495224706006,5.576918715064282,7.880976704101232
-0.4762238319465723,-5.5143126308504495,5.655728482105294,8.227424711243916
-0.5313669582550768,-5.626071335688044,5.738002729217733,8.4412537187733
-0.5876276716119573,-5.591794122913041,5.822415266405466,8.462172924322864
-0.6435456128410877,-5.399595785856823,5.907036995648695,8.275533801541604
-0.6975415706996559,-5.083525725099636,5.989792333664111,7.929660044382239
-0.7483768279506523,-4.701986569738951,6.069088934107933,7.505579417827302
-0.7953966936480418,-4.305574562935587,6.144144728286206,7.072652560237396
-0.8384524392773977,-3.9236953614402967,6.21487125388858,6.670576874010951
-0.8776893928918006,-3.568288760622822,6.2815770226286896,6.314962498906599
-0.9133722804980288,-3.241498725920622,6.3447266476177555,6.008102944535064
-0.945787267757235,-2.941145342501017,6.404807677063106,5.746541359627319
-0.9751987211822452,-2.66360276403602,6.462273090659379,5.524993658276789
-1.0018347488226054,-2.4050851322549676,6.517523027242147,5.338065725330291
-1.025885600145155,-2.162142149090245,6.57090368449545,5.180888436148472
-1.0475070216360576,-1.9318028606009747,6.622712568856935,5.049277980277925
-1.0668250502420673,-1.711576599825471,6.673205348659714,4.939707780020506
-1.0839408162403221,-1.4994038615620027,6.722602426459919,4.849217488008919
-1.0989348548559421,-1.2935960090343515,6.771094601340009,4.775310749775666
-1.1118708149462857,-1.0927788015036728,6.818847708837765,4.715861082745739
-1.1227986029613224,-0.8958444751341832,6.866006319665223,4.669031615023501
-1.1317570477126642,-0.7019129115302727,6.912696635815458,4.633209042593389
-1.138776176827967,-0.5103008634348922,6.9590287262413915,4.606950302029668
-1.1438791854623158,-0.3204977530587823,7.005098229261688,4.5889400462759244
-1.1470841629929036,-0.1321465479543569,7.050987629724448,4.577957152191289
-1.148405628472447,0.05497163380011694,7.096767201246361,4.572848795707696
-1.1478559121344458,0.24095034965195683,7.142495689203438,4.5725109455598085
-1.1454464086379263,0.42576906395049485,7.188220798659036,4.575874389856064
-1.1411887179984215,0.609303583871731,7.233979542557597,4.5818956032952425
-1.1350956821597042,0.7913363339445783,7.279798498590549,4.589551886110486
-1.1271823188202585,0.9715669426060406,7.325694017451654,4.597840265800155
-1.117466649394198,1.149623453973947,7.371672420109656,4.605779660043824
-1.1059704148544585,1.3250743170205752,7.417730216710094,4.612415767083065
-1.0927196716842527,1.4974411451897633,7.463854374380925,4.61682809356182
-1.077745260232355,1.6662120885689706,7.5100226553165434,4.618138466256958
-1.0610831393466653,1.8308555272640534,7.556204039979113,4.615520320754103
-1.0427745840740248,1.9908336893589824,7.602359243186654,4.608208033393015
-1.022866247180435,2.1456157300736,7.648441323520584,4.595505576167627
-1.0014100898796992,2.294689788251687,7.69439637928226,4.576793836121885
-0.9784631919971822,2.4375735655563324,7.740164317643479,4.551536052895487
-0.954087456341619,2.5738230505927318,7.785679678172434,4.519280984855835
-0.9283492258356917,2.703039126676747,7.830872488020992,4.479663603247436
-0.9013188345689243,2.8248719451916147,7.875669124053466,4.432403317374586
-0.8730701151170082,2.939023100293988,7.919993157227212,4.377299931872101
-0.8436798841140682,3.0452457881875645,7.963766156545933,4.314227710051192
-0.8132274262321926,3.14334325996162,8.006908433646446,4.243128049036104
-0.7817939936325764,3.233165969463037,8.049339714136806,4.164001352418149
-0.749462333937946,3.314607870140351,8.090979727660988,4.076898710507144
-0.7163162552365425,3.387602325802738,8.13174871476606,3.9819139693814227
-0.6824402319785151,3.4521180729541454,8.171567854459873,3.8791766954180664
-0.6479190512489736,3.50815561340573,8.210359621414053,3.7688464327898337
-0.6128374951149164,3.5557443338042147,8.248048085741951,3.6511085199521647
-0.5772800517768742,3.5949405526392506,8.284559170941472,3.5261715895868937
-0.5413306462504818,3.6258265937330068,8.319820886837341,3.394266735591051
-0.5050723803131517,3.6485108854396873,8.353763554193252,3.2556481992878195
-0.46858727145875484,3.66312899256123,8.386320036186131,3.1105953118384058
-0.4319559815331425,3.669845407681483,8.417425989304515,2.9594153358497595
-0.3952575274563277,3.668855863482762,8.447020142663012,2.8024467801091606
-0.3585689688215001,3.660389880104816,8.475044610464105,2.6400627200453677
-0.32196507002045194,3.644713233677642,8.501445237664559,2.4726736450466116
-0.2855179376836755,3.622130025298812,8.526171974115025,2.3007293735423144
-0.2492966374306874,3.592984044854021,8.549179267850448,2.1247196280854843
-0.21336679698214717,3.5576591612470616,8.570426464131303,1.9451729442679169
-0.17779020536967655,3.516578528597762,8.589878193573982,1.7626536957153678
-0.1426244200836989,3.4702024739331114,8.607504730531137,1.5777571466270623
-0.10792239534436779,3.419025021140785,8.623282301997406,1.3911025846710192
-0.07373214513295993,3.3635691020031615,8.637193327844116,1.2033247295913263
-0.040096454112928316,3.304380600159991,8.64922657514003,1.0150637443548551
-0.0070526481113284065,3.2420214594559735,8.659377212583578,0.8269542838275166
0.02536756648323133,3.177062156355065,8.667646755421854,0.6396140902467311
0.05713818804678198,3.110073880525389,8.674042896324321,0.4536326777986842
0.08823892685203587,3.0416207843887495,8.67857922310231,0.2695606374849877
0.11865513469592337,2.9722526505541915,8.68127482947716,0.0879000401926821
0.14837766120146528,2.9024982879925454,8.682153829879086,-0.09090367283048548
0.17740264408139073,2.832859908738961,8.681244793150782,-0.26646803667928604
0.20573124316878033,2.7638086639770436,8.678580112783989,-0.4384779976640959
0.23336932980855077,2.695781439572992,8.674195332807347,-0.6066884136482567
0.2603271442042807,2.6291789342399743,8.668128448670865,-0.7709247120323962
0.28661893354668044,2.564364975050367,8.66041920155054,-0.9310818924269527
0.3122625832971841,2.5016669696448086,8.651108382626271,-1.087122130659258
0.33727925299363215,2.4413773547573707,8.640237161319678,-1.239071283365192
0.36169302654120583,2.3837558770950875,8.627846448486027,-1.3870146093142446
0.3855305853121567,2.3290325340025073,8.613976302392885,-1.5310920183804233
0.4088209106521818,2.2774110053451992,8.59866538220908,-1.6714931366280943
0.43159502070563377,2.229072421638199,8.5819504508428,-1.8084524417358276
0.4538857449220158,2.1841793334131014,8.563865926425443,-1.9422446820830723
0.4757275382561468,2.1428797701088316,8.544443479604611,-2.0731807496522467
0.4971563359572351,2.1053113007077364,8.523711672108089,-2.201604134754751
0.5182094489643124,2.071605030692197,8.50169563076054,-2.327888051572749
0.5389254992712343,2.041889488845421,8.478416750244813,-2.4524332885052322
0.5593443941596885,2.016294371404477,8.45389241735976,-2.5756668060257026
0.5795073378737333,1.9949541185688646,8.428135749299503,-2.698041075743355
0.5994568790594219,1.9780112975675173,8.40115533854207,-2.8200341249047622
0.6192369920350971,1.9656197548823269,8.372954997293023,-2.942150216470536
0.6388931895839204,1.957947474032929,8.343533495128318,-3.0649210499233868
0.6584726643242497,1.9551790286823123,8.312884284629083,-3.1889073029627077
0.6780244546110727,1.9575174446263146,8.280995211599457,-3.3147002356932034
0.6975996290573359,1.965185164463831,8.247848209242525,-3.4429229266719723
0.7172514807019742,1.978423624037614,8.213418979975804,-3.5742304741012454
0.7370357169423504,1.9974906679333084,8.177676675234792,-3.709308130577281
0.7570106236216835,2.02265460491051,8.14058359392902,-3.848865779772729
0.7772371696707886,2.054183064800067,8.102094936131293,-3.993626312508734
0.7977790003187892,2.0923238723277535,8.062158673006206,-4.144304185409417
0.8187022390420667,2.1372737821973993,8.020715631152111,-4.301568578416483
0.8400749768640408,2.1891290001752655,7.977699945367946,-4.465982926078568
0.8619662668657934,2.247808885770646,7.93304011610716,-4.637909076787206
0.8844443557234998,2.312941272447007,7.886661025339288,-4.817360146437439
0.9075737684479699,2.3836952754255174,7.838487423874914,-5.003782362354098
0.931410721202225,2.4585475641025423,7.788449600251373,-5.195745911804755
0.9559961968432504,2.5349759401587284,7.736492141133326,-5.390534954103824
0.9813459562448377,2.6090990977995414,7.682586791592287,-5.583660475270697
1.007436947222833,2.6753369204139994,7.626750186839581,-5.7683949508604275
1.034190316426973,2.7262600506226278,7.5690662373309765,-5.935556804618849
1.0614529169331992,2.7529075839300745,7.509710669284788,-6.073923926987055
1.0889819927725,2.745879418542639,7.448971430014917,-6.171694110589198
1.1164407869579263,2.6972791129430056,7.387254488909026,-6.219093946458476
1.1434135780873562,2.603005850110282,7.325063549444441,-6.211446330542417
1.169443636588459,2.4642937111998635,7.262949086139017,-6.151189389205155
1.1940865737004578,2.287486532923829,7.201437192246965,-6.0474793312114885
1.2169614390296961,2.082072016795614,7.1409623989348505,-5.9134439256351135
1.2377821591976523,1.8580991097887605,7.081827959678499,-5.762652290812103
1.25636315029554,1.6242166076900282,7.024201436770378,-5.606490407361179
1.2726053163724402,1.3868230729194768,6.968136532696766,-5.453081420059717
1.286473547101635,1.1500984560137348,6.913605718496169,-5.307404284267011
1.2979745316617723,0.9164596752303548,6.860531675653498,-5.171968440545132
1.3071391284140759,0.6870960794428846,6.808811991248047,-5.047573115517739
1.3140100892085047,0.4624221717188167,6.758336260092869,-4.933935301658822
1.3186343109256928,0.24240685604566573,6.708996907076281,-4.830138092112837
1.3210583794861495,0.026792889069403858,6.660695526155152,-4.73492377291166
1.3213263083768434,-0.18476518428050537,6.613346288426035,-4.646874014467387
1.3194786565340384,-0.39261838559048934,6.5668775482813615,-4.5645151666979755
1.3155524726781336,-0.5970762919209507,6.521232396614382,-4.486376718637462
1.309581709758924,-0.7983823182685188,6.476368629428007,-4.411021805772975
1.3015978865762388,-0.9967027329502327,6.432258411370277,-4.337061825457236
1.2916308592467365,-1.1921241080109706,6.388887793115705,-4.2631626086868035
1.2797096181666268,-1.3846560128693945,6.346256167028837,-4.188046627726142
1.2658630580379329,-1.5742370713203042,6.304375700751576,-4.110493855609027
1.25012068732473,-1.760743295752763,6.263270762195486,-4.029342735550434
1.2325132543672024,-1.9439980769745495,6.222977334839982,-3.9434919969711784
1.213073273597457,-2.1237834663247686,6.18354241487027,-3.851903598961532
1.1918354389342094,-2.2998525170845694,6.145023378880654,-3.7536067862308395
1.1688369137633636,-2.4719425042441863,6.107487311018346,-3.6477030439307216
1.1441174887209218,-2.6397888474335334,6.0710102805790385,-3.5333715998068764
1.1177196002465863,-2.803139542491487,6.03567656458097,-3.4098750249361403
1.0896882048216714,-2.9617698774319328,6.0015778143316085,-3.276564417784654
1.060070506047352,-3.115497179120906,5.968812170153762,-3.1328836162474425
1.0289155342561431,-3.264195315797978,5.937483333991287,-2.9783718676363384
0.9962735810981633,-3.4078086736458233,5.907699615314924,-2.812664397628169
0.962195494361705,-3.546365337153506,5.879572971338643,-2.635490356581682
0.9267318409901699,-3.679989235424609,5.8532180677728265,-2.446667685516294
0.8899319486359238,-3.8089110701611673,5.828751390917663,-2.2460945337310143
0.8518428379343121,-3.9334779135992464,5.806290445580353,-2.0337369741172218
0.8125080587983197,-4.054161450797155,5.78595307583918,-1.8096128992679055
0.7719664442903481,-4.171564930813695,5.767856946846502,-1.5737721417274901
0.7302507949822111,-4.286428970058143,5.752119225429227,-1.3262730500890392
0.6873865052816297,-4.399636394351952,5.738856494928337,-1.0671559841124485
0.6433901413381102,-4.512216276123198,5.728184935087212,-0.7964145006749423
0.5982679785768783,-4.625347158744253,5.720220790080463,-0.5139654564737739
