th1 (rad),w1 (rad/s),th2 (rad),w2 (rad/s)
2.638944417686301,1.3793291875597615,5.765872474113211,-0.7587202024195001
2.6527377095618987,1.3331823090365147,5.758285272089016,-0.7566755658010254
2.666069532652264,1.289838737696189,5.7507185164310055,-0.7515211038816316
2.678967920029226,1.249286761148982,5.743203305392189,-0.7432035062394062
2.6914607876407155,1.2114954361428194,5.735771270329795,-0.7317041234512865
2.7035757420021436,1.1764169849640136,5.728454229095282,-0.7170351704891376
2.7153399118517836,1.1439893447488843,5.72128387739039,-0.6992357595095134
2.726779805299272,1.1141387736123582,5.714291519795295,-0.6783678978612337
2.7379211930353957,1.086782428379172,5.707507840816683,-0.6545125693116518
2.7487890173191873,1.0618308421780354,5.700962715123566,-0.6277659956777388
2.759407325740968,1.0391902449592856,5.694685055166789,-0.5982361540220611
2.7697992281905606,1.0187646849854683,5.688702693626569,-0.5660396028729237
2.7799868750404153,1.0004579235946305,5.683042297597839,-0.5312986507587046
2.7899914542763615,0.9841750883665913,5.6777293110902525,-0.4941388825523594
2.7998332051600276,0.969824080800151,5.672787922264729,-0.4546870441965749
2.809531445968029,0.957316743526313,5.668241051822763,-0.41306927450985653
2.819104613403292,0.9465697989174291,5.6641103590776645,-0.3694096639009316
2.828570311392466,0.937505575822984,5.660416262438655,-0.3238291137082593
2.837945367150696,0.9300525442816904,5.657177971301572,-0.27644446618600915
2.847245892593513,0.9241456796915489,5.654413526639712,-0.22736787347435106
2.8564873493904286,0.9197266783484908,5.6521398479049685,-0.17670637380520157
2.8656846161739136,0.916744045767974,5.650372784166916,-0.12456164430974496
2.8748520566315934,0.9151530780371663,5.649127167723819,-0.07102990175684058
2.884003587411965,0.9149157548297487,5.64841686870625,-0.016201925059285603
2.8931527449602625,0.9160005608351975,5.6482548494556575,0.039836823809373326
2.9023127505686146,0.9183822503563646,5.648653217693751,0.09700600093461448
2.9114965730721782,0.9220415678250122,5.649623277703098,0.15523012119433427
2.9207169887504283,0.9269649350555608,5.6511755789150415,0.21443825345513215
2.929986638100984,0.933144114257648,5.653319961449593,0.27456368256270414
2.9393180792435607,0.9405758541922146,5.6560655982752195,0.3355435481888236
2.948723837785483,0.949261525401511,5.659421033757107,0.3973184685964171
2.958216453039498,0.9592067491763901,5.663394218443072,0.45983215565400176
2.967808520531262,0.9704210238416706,5.667992539999612,0.5230310259634404
2.9775127307696785,0.9829173510336898,5.673222850259246,0.5868638117457947
2.9873419042800156,0.9967118639014086,5.679091488376704,0.6512811741401061
2.99730902291903,1.0118234585697947,5.685604300118105,0.716235320788327
3.0074272575047276,1.0282734297473264,5.692766653325989,0.7816796289849742
3.017709991802201,1.04608511102417,5.700583449615839,0.8475682752414792
3.0281708429124423,1.0652835201804591,5.709059132368253,0.9138558718327898
3.038823678114247,1.0858950096926476,5.718197691086581,0.9804971107389455
3.049682628211173,1.107946922578648,5.72800266219397,1.0474464153497696
3.0607620974369594,1.1314672537487809,5.738477126347467,1.1146576003503166
3.0720767699744473,1.156484317119556,5.74962370235097,1.1820835403328722
3.083641613145643,1.1830264188914352,5.761444537754299,1.2496758478732115
3.0954718773345573,1.2111215375805358,5.773941296233031,1.317384562049574
3.1075830927103625,1.240797011617914,5.787115141853526,1.3851578486571177
3.1199910628265415,1.2720792355781507,5.800966720340098,1.4529417136623666
3.132711855182323,1.3049933663599047,5.815496137476721,1.520679731734071
3.145761788845922,1.3395630409020043,5.830702934794062,1.588312791960159
3.1591574192549423,1.3758101072649982,5.846586062713664,1.655778863094582
3.1729155203275923,1.413754371123557,5.86314385134461,1.7230127808505662
3.1870530640388277,1.4534133598815937,5.8803739791531155,1.789946059844089
3.2015871976376435,1.4948021067196036,5.898273439751557,1.8565067327679463
3.2165352187048395,1.5379329568912572,5.916838507079236,1.9226192192162561
3.231914548273752,1.5828153984815663,5.936064699271398,1.9882042262552737
3.2477427022585674,1.6294559195996325,5.955946741533951,2.053178682323427
3.264037261454564,1.6778578935835482,5.976478528357185,2.1174557053182124
3.2808158403903995,1.7280214932238906,5.997653085410367,2.1809446047703953
3.2980960553226386,1.7799436342492556,6.019462531458071,2.2435509168027146
3.315895491665131,1.8336179473511756,6.041898040626099,2.3051764691141767
3.334231671138643,1.8890347768518883,6.064949805317241,2.3657194715245633
3.3531220189071616,1.9461812027402796,6.088607000032487,2.4250746256705655
3.3725838309345644,2.005041081232148,6.112857746289192,2.483133245291496
3.3926342417468858,2.0655950972749504,6.137689078742107,2.539783376219486
3.4132901927196353,2.12782082055052,6.163086912504302,2.594909902752292
3.4345684009251407,2.1916927545804366,6.189036011531825,2.6483946246077297
3.456485328470945,2.2571823665687254,6.215519957777902,2.7001162862242545
3.4790571521366322,2.3242580836981324,6.242521120640144,2.7499505378839917
3.5022997329736136,2.3928852398130322,6.270020626018984,2.7977698061081453
3.526228585371744,2.4630259548672275,6.297998324080066,2.843443049138186
3.5508588449204166,2.534638928289789,6.326432754571448,2.886835372208901
3.5762052342033144,2.607679126634781,6.355301108293537,2.9278074768912608
3.602282025469662,2.6820973456454578,6.384579183062449,2.9662149191946634
3.6291029989261165,2.7578396273007737,6.414241332254396,3.001907152541842
3.6566813951991244,2.8348465136498415,6.444260403779815,3.0347263343522717
3.685029860335623,2.9130521214165763,6.474607667123338,3.064505878996368
3.714160381549789,2.99238302462483,6.5052527259133015,3.091068745541592
3.744084211796037,3.072756937026144,6.536163413368717,3.114225456260289
3.7748117811662985,3.1540811921056946,6.56730566793132,3.1337718515988024
3.806352593087355,3.236251026125605,6.598643386447308,3.1494865995445855
3.838715103348611,3.3191476793007713,6.6301382524427535,3.1611284924303313
3.871906580141619,3.4026363420845804,6.661749537367057,3.1684335825561227
3.9059329435624646,3.4865639879854764,6.693433873192618,3.1711122299544146
3.9407985834423194,3.570757151653635,6.725144995492163,3.168846161466788
3.9765061549588556,3.6550197314401,6.756833457106831,3.161285670200184
4.0130563522732565,3.739130919399366,6.788446313808833,3.1480471182756937
4.05044766146725,3.8228433887345297,6.81992678499159,3.128710943041254
4.088676095354595,3.9058818985841,6.851213894422002,3.1028204064177043
4.127734914340436,3.987942507916614,6.882242098486179,3.0698813667103706
4.167614339419602,4.06869262249812,6.9129409121532825,3.0293633887683478
4.208301265644583,4.147772128824842,6.943234546040966,2.9807025370255302
4.2497789869328315,4.224795892765002,6.973041571411221,2.923306210162919
4.292026945860481,4.299357913254116,7.00227463351285,2.856560367470476
4.3350205249930225,4.371037416163154,7.0308402371875545,2.779839455337878
4.378730899154654,4.439407142673739,7.0586386317409335,2.6925192564725147
4.423124970581391,4.504044021894885,7.085563824305659,2.5939927434379193
4.4681654108003395,4.564542311457177,7.111503751740038,2.483688813226292
4.513810833914912,4.620529137336055,7.136340639872301,2.361093507373236
4.560016125288272,4.67168216502789,7.159951574946033,2.225772988037482
4.606732946938551,4.717748895978846,7.182209304826408,2.077397162653395
4.653910435898339,4.758566823659208,7.202983276452942,1.915762462045841
4.7014961041349315,4.794083432402782,7.2221409010734,1.740811929490885
4.74943693845896,4.824374819524846,7.239549020368309,1.5526505345538293
4.797680686654208,4.849661614580202,7.255075525713847,1.3515535539878758
4.84617730280001,4.87032090527886,7.268591061253726,1.1379660221362609
4.894880511852799,4.886893092120192,7.279970721475089,0.912491678723796
4.943749442774001,4.900082994333697,7.289095638262327,0.6758705232351324
4.992750272717338,4.910755096790365,7.295854343494678,0.4289449588677414
5.041857823685241,4.919923504773257,7.300143793083356,0.17261545864274003
5.091057058732973,4.928737876515577,7.3018699476697835,-0.09221244271611423
5.140344437498129,4.938467236443538,7.300947823242622,-0.3646873981659477
5.189729109862564,4.9504840504174465,7.297300949260963,-0.6440750547929083
5.239233950366739,4.966251216555988,7.290860198713034,-0.9298219387708042
5.288896462532299,4.987314688177061,7.281561979325326,-1.2216186074264448
5.3387696094140695,5.015304346377212,7.269345793251061,-1.519461320138811
5.388922652877842,5.05194556616385,7.254151180049672,-1.8237128255082449
5.43944210853948,5.099083778001255,7.23591405179459,-2.135164360243328
5.490432946319492,5.158724313028079,7.214562408192156,-2.455102483066809
5.542020189449773,5.233089987488748,7.1900113833614885,-2.7853858094368453
5.594351089324661,5.3246991841334905,7.16215752526712,-3.1285379097367985
5.647598081165996,5.436467372805948,7.130872146169752,-3.4878632253772945
5.701962754894056,5.57183436959394,7.095993513915979,-3.8675919150217153
5.757681098589995,5.734916399343513,7.057317594765762,-4.273054704660425
5.81503026258343,5.930671949778144,7.014587047719158,-4.7108742588867
5.8743369820812115,6.165043349634842,6.967478305130291,-5.189121260371157
5.93598741557756,6.444968003627927,6.915587092526579,-5.717287865832341
6.000437095613839,6.777988863327153,6.858414213868255,-6.305701034109853
6.068216984247111,7.170812467493413,6.795357203527157,-6.963464604594065
6.1399251089220455,7.625345220831324,6.725722557481216,-7.69287410115261
6.216178561130358,8.129312637413525,6.64879381646969,-8.476250391710447
6.297471687504494,8.637648396389203,6.5640313125525855,-9.24985325545631
6.383848171468386,9.047574286785233,6.4715327799980225,-9.868994823850244
6.474323914336238,9.201677368117663,6.37284283175952,-10.112540431019656
6.566340688017415,8.986444139679554,6.271717427449324,-9.821411696265661
6.656205129414211,8.469686628222052,6.173503310486667,-9.091297330472077
6.740901995696431,7.844810275965463,6.082590337181946,-8.19411157137603
6.819350098456086,7.254936909252181,6.000649221468186,-7.331482334726064
6.891899467548607,6.750203741167627,5.927334398120926,-6.574976628738286
6.959401504960284,6.332292160467196,5.8615846318335425,-5.928263526256698
7.022724426564956,5.988409675611693,5.802301996570976,-5.374549641168913
7.082608523321073,5.704390191320638,5.748556500159287,-4.894906188080705
7.13965242523428,5.468223380179689,5.6996074382784805,-4.473258557841092
7.194334659036077,5.270457638295588,5.654874852700069,-4.097012401649691
7.247039235419033,5.103797224456736,5.613904728683572,-3.756547521639304
7.2980772076636,4.962597278164439,5.576339253467179,-3.4445611290211176
7.347703180445245,4.8424353881815705,5.541893642176968,-3.1555112073374287
7.396127534327061,4.73978366946276,5.510338530103593,-2.885194699199565
7.443525371021688,4.651766191034129,5.4814865831115975,-2.630439950318726
7.4900430329320296,4.575981337816506,5.45518218360841,-2.3888847189900972
7.535802846310195,4.51037204137707,5.431293336418509,-2.1588150256259167
7.580906566723965,4.453131351889231,5.40970518616225,-1.9390458783325397
7.625437880242858,4.402634625043962,5.390314727378924,-1.7288298414552177
7.6694642264932975,4.357392366823117,5.373026428964372,-1.5277831666096016
7.713038150161529,4.316019639651467,5.357748597298276,-1.3358220227926967
7.756198346558043,4.277219076312858,5.344390377070349,-1.1531035644909202
7.798970537321171,4.239775146325683,5.33285934142544,-0.9799684178971334
7.8413682887844285,4.202557523633164,5.323059657246469,-0.8168827984407572
7.88339386402076,4.1645313542078695,5.314890829262061,-0.664379951171062
7.925039177562838,4.124772054638199,5.30824702975035,-0.5230018985260647
7.96628689810922,4.082482119950963,5.30301701076509,-0.3932435008243875
8.00711171930873,4.0370073948268494,5.299084575756846,-0.2755014782618625
8.047481793256999,3.9878504448704755,5.296329560974228,-0.17003122799960796
8.087360297705704,3.934679079877789,5.294629248694232,-0.07691397488711056
8.126707088504482,3.8773286980743293,5.293860108945361,0.003963922664629374
8.165480375485226,3.815797859545251,5.293899748172007,0.07291869715783421
8.203638354080677,3.750237251859377,5.294628935143585,0.13046423067354343
8.241140726599271,3.680932874765842,5.29593357745032,0.17729579642756313
8.27795005534693,3.6082847622632928,5.297706535414596,0.21426465200665265
8.314032902969563,3.5327828374361947,5.299849181934663,0.24234615744439886
8.349360731343925,3.4549815582127086,5.302272643509107,0.26260425718985697
8.383910546926051,3.375474894030697,5.304898686081005,0.27615502827904426
8.417665295866358,3.2948729269733628,5.3076602363637955,0.28413163166415495
8.450614025136092,3.2137810536989764,5.310501552680437,0.28765249887957517
8.482751835673081,3.1327824276324123,5.313378077669233,0.2877940272212882
8.514079659949406,3.0524239632783914,5.316256017941446,0.2855685124607269
8.54460389958219,2.9732059511415243,5.319111703066053,0.28190756679738777
8.574335959093606,2.8955751151725604,5.321930778734027,0.27765087862302007
8.603291710245331,2.8199207879691865,5.324707287520257,0.2735398799337104
8.631490918125023,2.7465737787948727,5.327442686319594,0.27021569455794003
8.658956655912972,2.675807458706042,5.330144843265173,0.26822063532782336
8.685714730500033,2.607840576724279,5.3328270496184516,0.26800248600498305
8.711793136267275,2.542841341575325,5.335507074478501,0.269920827566612
8.737221549683028,2.4809323459127444,5.338206282754167,0.27425473196782424
8.762030873142155,2.42219596592272,5.340948830073845,0.2812112348289294
8.786252832801383,2.3666799317649243,5.343760942422135,0.2909340990174562
8.809919632119032,2.314402827832533,5.346670283412309,0.3035124837921747
8.833063660397357,2.265359342128464,5.349705408250231,0.31898923170574117
8.855717253818643,2.2195251383237005,5.352895300567289,0.33736857296264
8.87791250520188,2.1768612706512283,5.356268986296915,0.358623121680707
8.899681117908393,2.137318100044212,5.359855217513722,0.3827000995061595
8.921054298908835,2.1008386999486617,5.363682218508783,0.4095267695540899
8.942062685908322,2.067361762648954,5.367777486204324,0.4390150988126151
8.962736303534811,2.036824032675175,5.37216763719245,0.47106569157721934
8.983104543861563,2.009162303998001,5.376878294108222,0.5055710519996653
9.003196166901542,1.9843150233645377,5.381934004628219,0.5424182422728547
9.023039317135188,1.9622235443260538,5.387358187050947,0.5814910060245624
9.04266155257845,1.9428330761766055,5.393173097111193,0.6226714256422564
9.062089883340215,1.9260933699379736,5.399399811367616,0.6658411787363089
9.081350817039596,1.9119591803209368,5.406058223154979,0.7108824537611528
9.100470408842805,1.9003905387559652,5.41316704769259,0.7576785787163881
9.119474314230365,1.8913528684844554,5.4207438334797535,0.8061144104064067
9.13838784291521,1.8848169685967622,5.428804977583818,0.8560765253460008
9.157236012601176,1.8807588899731313,5.437365742837278,0.9074532473263569
9.176043601500908,1.8791597224399332,5.446440275310541,0.960134541064427
9.194835198725308,1.8800053091585351,5.4560416207211855,1.0140117963365982
9.213635251816893,1.8832859013441219,5.4661817386845515,1.0689775225783247
9.232468110830334,1.8889957638684134,5.476871513910335,1.1249249701112936
9.251358068469019,1.8971327401190072,5.488120763611447,1.1817476909113058
9.270329395870208,1.9076977826447563,5.49993824052056,1.2393390491117953
9.289406373696655,1.9206944545819997,5.512331631011678,1.2975916892012478
9.308613318242475,1.9361284055996715,5.52530754790369,1.3563969680670032
9.327974602298472,1.9540068250919649,5.538871517584361,1.4156443556133986
9.34751467054939,1.9743378745568478,5.5530279611404945,1.4752208075923667
9.367258049294959,1.9971301005015327,5.567780169216418,1.5350101134870322
9.387229350299974,2.022391828789312,5.583130270351288,1.5948922217458648
9.407453268587867,2.050130541066499,5.599079192568746,1.654742544343721
9.427954573998532,2.0803522337672344,5.615626618012183,1.714431242518646
9.448758096336205,2.113060760174441,5.63277093043737,1.7738224955763333
9.469888703937949,2.148257156106949,5.650509155393133,1.8327737548489824
9.491371275499018,2.1859389499986297,5.668836892941623,1.8911349852279296
9.513230664999005,2.2260994584310736,5.687748242793902,1.9487478971505123
9.535491659583316,2.2687270685761627,5.707235721765407,2.005445172506946
9.558178930269078,2.3138045095018533,5.727290173490477,2.061049688643735
9.581316975364096,2.361308114900859,5.747900670376914,2.1153737454836876
9.604930056513105,2.41120708053021,5.769054407831751,2.168218301773045
9.629042127318407,2.4634627205182147,5.790736590849481,2.21937222762516
9.65367675452359,2.5180277277293834,5.812930313125733,2.2686115818870216
9.678857031800883,2.57484544461029,5.835616428944603,2.3156989244471853
9.704605486246985,2.6338491524110292,5.858773418189076,2.360382675476016
9.730943977771096,2.694961388436982,5.882377244943836,2.4023965357918438
9.757893591655465,2.7580933030901207,5.9064012103017545,2.4414589851318356
9.785474524686366,2.8231440709690716,5.930815800153073,2.4772728781228044
9.813705965396057,2.8900003732744497,5.9555885289343005,2.5095251612312657
9.842605969128801,2.95853597226683,5.980683780546613,2.5378867379362933
9.87219132885147,3.028611402590565,6.006062647925976,2.562012513785305
9.902477442877375,3.100073808921556,6.031682773063829,2.581541657773347
9.93347818096659,3.172756964591411,6.057498189641563,2.596098121456522
9.965205750612505,3.246481511491156,6.083459170856128,2.6052914620811776
9.997670565727416,3.3210554674856207,6.10951208547694,2.608718020348118
10.030881120402272,3.3962750534852737,6.135599265680421,2.6059625066255316
10.064843870937125,3.4719258978027177,6.1616588907466765,2.596600050664908
10.099563129915152,3.5477846798921626,6.187624891253326,2.5801987681369476
10.135040976714073,3.6236212782995265,6.213426878934695,2.5563228913594416
10.171277189497069,3.6992014877590718,6.23899010784829,2.5245365000397646
10.208269204374659,3.774290366871551,6.2642354728486875,2.484407869219545
10.246012108043374,3.8486562696662876,6.289079551540883,2.435514424457219
10.284498670740037,3.9220756006472723,6.313434695785455,2.3774482574306477
10.323719426746509,3.9943383129643126,6.337209178359761,2.309822107903057
10.363662809876152,4.065254142911709,6.360307399438792,2.2322756604895195
10.404315351305268,4.134659541525225,6.382630156043687,2.1444819381224622
10.44566194672052,4.202425227068601,6.404074975424912,2.0461535011687304
10.487686198991206,4.268464243289088,6.4245365104365995,1.9370480859733372
10.530370841424096,4.3327403713798205,6.443906991296333,1.816973244876486
10.573698245137894,4.395276713763722,6.462076723745098,1.6857894883122801
10.617651012275532,4.456164251251924,6.478934618628221,1.5434113857441991
10.662212654788052,4.515570178478076,6.494368732485663,1.389806062581981
10.707368356572832,4.57374585221959,6.508266793111483,1.2249885394753692
10.753105815095028,4.631034248712178,6.520516678506237,1.049013399520449
10.799416157582149,4.687876922942653,6.531006812501441,0.8619623339459728
10.846294926811575,4.744820596373072,6.5396264358409,0.6639271977419565
10.893743132775306,4.802523668300642,6.54626570781832,0.45498828712781053
10.941768369458313,4.861763146744583,6.550815590689599,0.23518760880326559
10.990386000925758,4.923442723051134,6.553167466777631,0.0044969207568728575
11.039620428156269,4.988602966468793,6.553212435985199,-0.2372197410291692
11.089506457820956,5.058434888663636,6.550840238574907,-0.4902495010226718
11.140090806707592,5.1342984232559,6.54593774356468,-0.7550807814815833
11.19143379094015,5.217747680578203,6.538386935749864,-1.0324612746341573
11.243611267745933,5.310565160851581,6.528062323003523,-1.3234653790604323
11.296716919354449,5.414807393225145,6.514827669212918,-1.6295732226046433
11.3508649932867,5.532864578451267,6.498531936986872,-1.952763657688776
