th1 (rad),w1 (rad/s),th2 (rad),w2 (rad/s),a1 (rad/s^2),a2 (rad/s^2)
3.1209970559418383,-1.1337986634518744,1.3345726881827216,2.1378775468703517,-3.3968687989461013,-8.99890848676064
3.1096590693073196,-1.1677673514413354,1.3559514636514252,2.0478884620027453,-3.1762139069883704,-8.811492053880444
3.0979813957929063,-1.199529490511219,1.3764303482714526,1.9597735414639408,-2.974600893216571,-8.639656298338368
3.0859861008877942,-1.2292754994433848,1.396028083686092,1.8733769784805572,-2.7911674819841608,-8.482126552580551
3.07369334589336,-1.2571871742632263,1.4147618534708977,1.7885557129547516,-2.6251030273935982,-8.337622237462988
3.061121474150728,-1.2834382045371624,1.4326474106004452,1.7051794905801216,-2.475655636485087,-8.20486811731389
3.0482870921053564,-1.3081947609020133,1.4496992055062463,1.6231308094069827,-2.3421360405138003,-8.082602223183661
3.035205144496336,-1.3316161213071513,1.4659305136003162,1.542304787175146,-2.2239189767723118,-7.969581283204719
3.0218889832832647,-1.3538553110748746,1.4813535614720676,1.462608974343099,-2.120442682893019,-7.864584321506383
3.008350430172516,-1.3750597379038048,1.4959796512154986,1.3839631311280352,-2.03120697736195,-7.766414941325369
2.9945998327934777,-1.3953718076774242,1.5098192825267789,1.3062989817147814,-1.9557702987205152,-7.673902688682496
2.9806461147167034,-1.4149295106646294,1.5228822723439266,1.2295599548279565,-1.8937459968106836,-7.585903795712828
2.966496819610057,-1.4338669706327363,1.5351778718922062,1.1537009168708283,-1.8447981082305955,-7.501301523559394
2.9521581499037297,-1.4523149517150422,1.5467148810609146,1.0786879016352344,-1.8086368013141279,-7.419006260453974
2.9376350003865794,-1.4704013197281836,1.557501760077267,1.0044978390306947,-1.785013640388057,-7.337955478608354
2.9229309871892974,-1.488251456132064,1.5675467384675739,0.9311182842446111,-1.7737167922499664,-7.257113611761723
2.9080484726279767,-1.5059886240545637,1.57685792131002,0.8585471481269938,-1.774566277639443,-7.175471882062492
2.892988586387431,-1.523734286830958,1.5854433927912899,0.786792429306369,-1.7874093552129977,-7.092048079161436
2.8777512435191213,-1.541608380383088,1.5933113170843536,0.7158719485147546,-1.8121161137770072,-7.005886274998105
2.86233515971529,-1.559729541520858,1.600470036569501,0.6458130857647735,-1.8485753391675506,-6.916056444022915
2.846737864300082,-1.5782152949125337,1.6069281674271487,0.5766525213245444,-1.8966907143282403,-6.821653949906719
2.8309557113509562,-1.597182202055816,1.6126946926403942,0.5084359818254771,-1.9563774041866566,-6.721798855628452
2.814983889330398,-1.6167459760976826,1.617779052458649,0.4412179932691926,-2.0275590704209847,-6.615635013727305
2.7988164295694213,-1.6370215668018924,1.622191232391341,0.37506164313191953,-2.110165354864187,-6.502328897000893
2.7824462139014026,-1.6581232203505343,1.6259418488226602,0.3100383541619106,-2.2041298639770552,-6.381068136567906
2.7658649816978973,-1.6801645189903047,1.6290422323642793,0.24622767279623153,-2.309388680508988,-6.251059743531222
2.7490633365079944,-1.7032584057953946,1.6315045090922415,0.1837170753609193,-2.425879422210197,-6.111528002020299
2.7320307524500405,-1.7275172000174965,1.6333416798458507,0.1226017953407163,-2.553540861357771,-5.9617120347319155
2.7147555804498653,-1.7530526086310743,1.6345676977992578,0.06298467499339715,-2.692313113011837,-5.800863056857402
2.6972250543635545,-1.7799757397611926,1.6351975445491918,0.004976044424823127,-2.8421383943906027,-5.6282413502143065
2.6794252969659427,-1.8083971237050986,1.63524730499344,-0.05130636907731994,-3.0029623525258584,-5.443113006373249
2.6613413257288916,-1.8384267472303573,1.6347342413026666,-0.10573749914105243,-3.174735952285492,-5.244746505678503
2.642957058256588,-1.8701741067532123,1.6336768663112562,-0.15818496419783745,-3.3574179115950096,-5.032409218673681
2.6242553171890557,-1.9037482858691623,1.6320950166692778,-0.20850905638457426,-3.550977664681238,-4.805363938293454
2.605217834330364,-1.9392580625159748,1.6300099261054322,-0.2565626957675088,-3.7553988265062044,-4.562865576464518
2.585825253705204,-1.9768120507810367,1.6274442991477571,-0.302191351532154,-3.97068312095804,-4.304158189265227
2.566057133197394,-2.016518881990617,1.6244223856324356,-0.34523293342480627,-4.196854719989926,-4.028472533084261
2.5458919443774874,-2.0584874291905164,1.6209700562981875,-0.38551765875564886,-4.433964918229415,-3.7350244038577305
2.5253070700855824,-2.1028270783728105,1.617114879710631,-0.42286790279422615,-4.682097034190343,-3.423014077334055
2.5042787993018543,-2.149648048714714,1.6128862006826887,-0.45709804356756667,-4.941371380467394,-3.0916272570520813
2.4827823188147073,-2.199061762519388,1.608315220247013,-0.4880143161380875,-5.211950074914779,-2.740038057291432
2.4607917011895135,-2.2511812632685357,1.603435077085632,-0.5154146967110018,-5.494041364358676,-2.3674147127591203
2.438279888556828,-2.3061216769121224,1.5982809301185221,-0.539088843838593,-5.787902990491035,-1.9729289314705318
2.415218671787707,-2.364000706817033,1.5928900416801361,-0.5588181331532983,-6.093843928950762,-1.5557701139361741
2.3915786647195367,-2.4249391461065404,1.587301860348603,-0.57437583429266,-6.412223556753801,-1.1151660793657294
2.367329273258471,-2.4890613816740785,1.5815581020056766,-0.5855274950863173,-6.743446922991706,-0.6504125064090732
2.3424386594417306,-2.5564958509039957,1.5757028270548135,-0.592031620150408,-7.087954277345672,-0.16091406180528803
2.3168737009326907,-2.627375393677452,1.5697825108533094,-0.5936407607684608,-7.446202304315092,0.3537587811660942
2.290599946995916,-2.701837416720603,1.5638461032456248,-0.5901031729567999,-7.8186335601320875,0.8937918625746779
2.26358157282871,-2.7800237523219242,1.5579450715160568,-0.5811652543310531,-8.205629344285056,1.4590212180584654
2.2357813353054907,-2.862080045764775,1.5521334189727463,-0.5665750421504685,-8.607439580330281,2.048789209137276
2.207160534847843,-2.948154441568078,1.5464676685512415,-0.5460871500590957,-9.024081156098932,2.6617504265865777
2.1776789904321623,-3.038395253129067,1.5410067970506505,-0.51946964579323,-9.455193535262943,3.2956112720773607
2.1472950379008715,-3.1329471884816966,1.535812100592718,-0.4865135330724564,-9.899837336313173,3.9467829413665014
2.1159655660160546,-3.2319455618448285,1.5309469652619936,-0.44704570365879137,-10.35621819991063,4.609923168937486
2.0836461103976065,-3.3355077438439347,1.5264765082254057,-0.4009464719694165,-10.821315211935751,5.277338478186668
2.050291032959167,-3.4437208959632923,1.5224670435057115,-0.34817308718754986,-11.290391659699248,5.9382177272249175
2.0158538239995343,-3.5566248125602846,1.518985312633836,-0.28879090991530065,-11.75636834032068,6.5776730159160595
1.9802875758739313,-3.6741884959634916,1.516097403534683,-0.22301417975614007,-12.209050145663674,7.175581656363613
1.9435456909142965,-3.7962789974201283,1.5138672617371216,-0.15125836319250396,-12.63422182185155,7.705262585476506
1.9055829009400953,-3.9226212156386437,1.5123546781051966,-0.0742057373377389,-13.012678076552303,8.132095977692686
1.8663566887837089,-4.052747996404166,1.5116126207318192,0.007115222439187954,-13.31933779299084,8.412321888426815
1.8258292088196673,-4.1859413743340745,1.5116837729562111,0.09123844132345611,-13.522720416512001,8.492444032861748
1.7839697950763265,-4.3211685784991944,1.5125961573694457,0.1761628816520736,-13.585228910608297,8.309908736081736
1.7407581092913345,-4.457020867605277,1.5143577861859665,0.259261969012891,-13.464847460548937,7.795965904271754
1.6961879006152816,-4.591669342210767,1.5169504058760954,0.3372216280556085,-13.118920978180988,6.8816977474398335
1.650271207193174,-4.7228585519925765,1.5203226221566515,0.40603860553000687,-12.510460720522117,5.507863382614301
1.6030426216732483,-4.847963159197798,1.5243830082119516,0.4611172393561499,-11.616714312319615,3.6381593839289788
1.5545629900812703,-4.964130302320994,1.5289941806055132,0.4974988331954397,-10.43849112547576,1.2736532929295128
1.5049216870580604,-5.068515213575751,1.5339691689374675,0.5102353661247349,-9.007300067180221,-1.535975241063285
1.454236534922303,-5.158588214247554,1.5390715225987148,0.494875613714102,-7.386647661548262,-4.689825563371932
1.4026506527798275,-5.232454690863037,1.544020278735856,0.4479773580803827,-5.664943592596953,-8.0456778711266
1.350326105871197,-5.289104126789006,1.5485000523166597,0.3675205793691167,-3.9406078740779433,-11.441708372367966
1.297435064603307,-5.328510205529786,1.5521752581103507,0.25310349564543705,-2.303725941494611,-14.72378985835441
1.2441499625480092,-5.351547464944732,1.5547062930668052,0.10586559706189294,-0.8204721104183071,-17.769272348922996
1.190634487898562,-5.359752186048914,1.5557649490374241,-0.07182712642733702,0.4749180389276357,-20.500065996651895
1.1370369660380728,-5.355003005659638,1.5550466777731509,-0.27682778639385597,1.5795598254073582,-22.88316788739759
1.0834869359814765,-5.339207407405564,1.5522783999092122,-0.5056594652678319,2.515093913697558,-24.92183786136827
1.0300948619074208,-5.314056468268589,1.5472218052565339,-0.7548778438815146,3.3183816792030254,-26.6427867426474
0.9769542972247349,-5.2808726514765585,1.5396730268177188,-1.0213057113079886,4.032836773301838,-28.083958674466928
0.9241455707099694,-5.2405442837435405,1.529459969704639,-1.302145298052658,4.701990255858294,-29.28537154002521
0.871740127872534,-5.193524381184957,1.5164385167241123,-1.5949990134529102,5.365548650361769,-30.283547379770937
0.8198048840606844,-5.13986889468134,1.5004885265895833,-1.8978344872506194,6.057467135929055,-31.108956831703235
0.768406195113871,-5.079294223322049,1.481510181717077,-2.208924055567652,6.8053529281073475,-31.785547398612298
0.7176132528806505,-5.011240694040976,1.4594209411614005,-2.526779529553775,7.630600803286916,-32.331502680769624
0.6675008459402407,-4.9349346860081065,1.4341531458658627,-2.850094556361471,8.548846182270866,-32.760609155330584
0.6181514990801596,-4.849446224185398,1.405652200302248,-3.1777006479147767,9.570494552846029,-33.083833540916714
0.5696570368383057,-4.753741278656937,1.3738751938231002,-3.5085389833239438,10.701212136173657,-33.310880785006326
0.5221196240517363,-4.6467291572952005,1.3387898039898607,-3.8416477911740072,11.942339925086662,-33.45160580244429
0.4756523324787843,-4.527305758044334,1.3003733260781207,-4.17616384919845,13.291231810803055,-33.51720546718776
0.43037927489834094,-4.394393439936303,1.2586116875861362,-4.511335903870328,14.741528198038118,-33.52113697642964
0.3864353404989779,-4.2469781579559225,1.213498328547433,-4.8465472736346245,16.283366507086065,-33.47970592989271
0.34396555891941866,-4.084144492885062,1.1650328558110867,-5.181344332933552,17.903502344446846,-33.4122474904498
0.30312411399056804,-3.9051094694405935,1.1132194124817512,-5.51546680783805,19.58526910246155,-33.340785698135
0.2640730192961621,-3.709256778415978,1.0580647444033706,-5.8488746648194,21.308234864475118,-33.288991786871755
0.22698045151200233,-3.4961744297712265,0.9995759977551766,-6.181764582688118,23.047315529971893,-33.28015759055389
0.19201870721429007,-3.2657012744715077,0.9377583519282954,-6.514566158593657,24.770960385467337,-33.333733230970616
0.159361694469575,-3.0179916706168344,0.8726126903423588,-6.847903490903363,26.43782890764831,-33.459724228367875
0.12918177776340664,-2.7536133815403514,0.8041336554333252,-7.182500733187042,27.991124991955807,-33.64988877930579
0.10164564394800313,-2.473702131620793,0.7323086481014547,-7.5189996209801,29.349494149607,-33.86426706321818
0.0769086226317952,-2.1802071901247233,0.6571186518916536,-7.857642291612282,30.39330677097616,-34.011339167518884
0.05510655073054796,-1.8762741224149617,0.5785422289755309,-8.197755683287472,30.94577364551667,-33.92073341266673
0.036343809506398345,-1.566816385959795,0.49656467214265615,-8.53696301741414,30.750891810453503,-33.31053534618146
0.020675645646800394,-1.25930746785526,0.41119504196851475,-8.870068370875954,29.45694848543234,-31.759973005460992
0.008082570968247793,-0.9647379830009366,0.3224943582597552,-9.187668100930564,26.627718033825513,-28.716164171059305
-0.0015648088617615727,-0.6984608026626815,0.23061767725044957,-9.474829742641157,21.821313220762185,-23.588099238471088
-0.008549416888388388,-0.48024767045505967,0.13586937982403802,-9.710710735025868,14.779015753173407,-15.98578175871466
-0.013351893592938984,-0.3324575129233256,0.038762272473779336,-9.870568552613015,5.706302356148059,-6.084087893703011
-0.01667646872217224,-0.275394489361845,-0.05994341305235082,-9.931409431550046,-4.520732865297834,5.106876196679122
-0.01943041361579069,-0.32060181801482335,-0.15925750736785127,-9.880340669583255,-14.496396567317108,15.923373241955415
-0.022636431795938924,-0.4655657836879944,-0.2580609140636838,-9.7211069371637,-22.837654003385435,24.759265692071374
-0.02729208963281887,-0.6939423237218487,-0.35527198343532085,-9.473514280242986,-28.764760182649535,30.795463963822908
-0.03423151287003735,-0.981589925548344,-0.45000712623775074,-9.165559640604757,-32.253650330189714,34.15763654574772
-0.044047412125520796,-1.3041264288502412,-0.5416627226437983,-8.82398327514728,-33.76351251236365,35.533107915914776
-0.05708867641402321,-1.6417615539738777,-0.6299025553952711,-8.468652195988131,-33.87937109334375,35.70525881318265
-0.07350629195376199,-1.9805552649073153,-0.7145890773551524,-8.111599607856304,-33.099897570097475,35.29584141029496
-0.09331184460283515,-2.31155424060829,-0.7957050734337154,-7.758641193753355,-31.778451656873678,34.70914464480491
-0.11642738700891805,-2.6293387571770266,-0.873291485371249,-7.411549747305306,-30.141720733604323,34.171064985581204
-0.14272077458068833,-2.93075596451307,-0.947406982844302,-7.069839097449494,-28.328106040267386,33.787183059537966
-0.17202833422581904,-3.2140370249157435,-1.018105373818797,-6.731967266854114,-26.42131629293243,33.59023234850049
-0.20416870447497648,-3.478250187845068,-1.0854250464873383,-6.396064943369109,-24.473695649126206,33.57209921318408
-0.23895120635342715,-3.7229871443363303,-1.1493856959210293,-6.060343951237268,-22.52068662764095,33.70359178599896
-0.27618107779679046,-3.9481940106127396,-1.209989135433402,-5.723308033377278,-20.589130795278894,33.9461795515048
-0.31566301790291784,-4.154085318565529,-1.2672222157671749,-5.3838462378622305,-18.701668839423114,34.258876582811325
-0.35720387108857315,-4.34110200695976,-1.3210606781457972,-5.0412574720341174,-16.87879610591734,34.60228080038389
-0.4006148911581707,-4.509889968018934,-1.3714732528661384,-4.695234664030279,-15.139567238081714,34.94093795611537
-0.44571379083836005,-4.6612856403997505,-1.4184255995064412,-4.345825284469125,-13.501566351274995,35.244672013436535
-0.49232664724235753,-4.7963013039125,-1.4618838523511324,-3.9933785643347597,-11.980520229877053,35.48922008809241
-0.5402896602814825,-4.91610650621127,-1.5018176379944799,-3.6384863634538354,-10.58978070930807,35.65634561310322
-0.5894507253435952,-5.022004313304351,-1.5382025016290182,-3.2819229073228033,-9.339802845919179,35.73351908226175
-0.6396707684766387,-5.115402341763543,-1.5710217307022463,-2.9245877165001857,-8.237675785439855,35.713214094683224
-0.6908247918942741,-5.197779099617942,-1.6002676078672482,-2.5674555755533532,-7.2867110619333815,35.59184434115292
-0.7428025828904535,-5.270646210237276,-1.6259421636227818,-2.211537132141824,-6.486051795616697,35.36835086775957
-0.7955090449928263,-5.335506728193443,-1.6480575349442,-1.8578536234642282,-5.830232720560663,35.04243117506121
-0.8488641122747607,-5.39380905539905,-1.6666360711788422,-1.5074293117136162,-5.308594507996656,34.61238078140762
-0.9028022028287511,-5.446895000479016,-1.6817103642959783,-1.16130550389954,-4.904439006704271,34.072498570814744
-0.9572711528335413,-5.495939390546059,-1.6933234193349738,-0.8205805181913924,-4.593813097161135,33.41000400180774
-1.0122305467390018,-5.54187752151767,-1.7015292245168876,-0.486480478173315,-4.343846853693883,32.60145755549047
-1.0676493219541785,-5.585315990054609,-1.7063940292986208,-0.16046590261841032,-4.110683817955243,31.608821920425456
-1.1235024818547246,-5.626422828234162,-1.7079986883248048,0.15562231658584424,-3.8372904491348496,30.375642203519803
-1.1797667101370661,-5.66479573272551,-1.7064424651589465,0.4593787386210423,-3.451905003222552,28.824481933115177
-1.2364146674643213,-5.699314782757736,-1.701848677772736,0.747623557952194,-2.8686545688099727,26.857824590768466
-1.2934078152918986,-5.728001328445836,-1.694372442193214,1.0162018038598788,-1.992859532527908,24.366023317639286
-1.350687828576357,-5.747929923771115,-1.6842104241546152,1.2598620370362716,-0.7342654363475504,21.246839270518734
-1.4081671278140682,-5.755272578134591,-1.6716118037842524,1.472330429741459,0.9693571811716795,17.43986050632828
-1.4657198535954141,-5.745579006322874,-1.6568884994868378,1.6467290348047419,3.1200124031237806,12.972959104433713
-1.5231756436586428,-5.714378882291636,-1.6404212091387904,1.776458625849079,5.628899487274487,8.005787296956422
-1.580319432481559,-5.658089887418892,-1.6226566228802997,1.8565164988186433,8.30653556216021,2.842709396849837
-1.636900331355748,-5.57502453179729,-1.6040914578921133,1.8849435927871416,10.891721875673571,-2.1108381600659447
-1.6926505766737208,-5.466107313040554,-1.5852420219642418,1.8638352111864822,13.118367021740763,-6.446812777895288
-1.7473116498041263,-5.334923642823147,-1.5666036698523769,1.7993670834075293,14.791197910986542,-9.865691904273584
-1.8006608862323579,-5.187011663713281,-1.5486099990183015,1.7007101643647935,15.831035760076128,-12.243109824704632
-1.8525310028694908,-5.028701306112519,-1.5316028973746536,1.5782790661177473,16.27113947281663,-13.624893675984016
-1.902818015930616,-4.865989911384353,-1.5158201067134762,1.4420301293579072,16.218123881707523,-14.169800151524248
-1.9514779150444597,-4.703808672567278,-1.5013998054198971,1.3003321278426647,15.805334507892086,-14.080442504055318
-1.9985160017701324,-4.545755327488357,-1.4883964841414705,1.1595277028021116,15.158627414532383,-13.551772165320788
-2.043973555045016,-4.394169053343033,-1.4768012071134493,1.0240099811489036,14.37959620057552,-12.744946419410482
-2.087915245578446,-4.250373091337278,-1.4665611073019602,0.8965605169547988,13.542003513155137,-11.780761073581449
-2.130418976491819,-4.114953056205726,-1.4575955021324123,0.7787529062189843,12.695150787658147,-10.743647015891804
-2.1715685070538764,-3.988001548329145,-1.4498079730702225,0.6713164360600663,11.869548519701285,-9.689432472350022
-2.2114485225371676,-3.869306063132132,-1.4430948087096218,0.5744221113365661,11.082435664609967,-8.653188435420786
-2.250141583168489,-3.758481706486032,-1.4373505875962562,0.4878902269823582,10.342227091282076,-7.655702425603572
-2.2877264002333493,-3.6550594355732113,-1.4324716853264325,0.41133320272632246,9.651760978189659,-6.708306959109563
-2.3242769945890815,-3.558541825791315,-1.4283583532991693,0.34425013313522684,9.010530139270779,-5.8162733358606555
-2.3598624128469945,-3.468436524398607,-1.424915851967817,0.2860873997766203,8.416151534580106,-4.981107301687469
-2.3945467780909806,-3.3842750090528058,-1.4220549779700506,0.23627632675974558,7.865301673182182,-4.202060441024757
-2.4283895281815084,-3.305621992320984,-1.419692214702453,0.194255722349498,7.354292902295711,-3.4771041336170923
-2.461445748104718,-3.232079063298027,-1.417749657478958,0.15948468101332708,6.879415109759734,-2.8035448890681254
-2.4937665387376984,-3.16328491220043,-1.4161548106688249,0.1314492321226458,6.437127588055748,-2.178404761379234
-2.5253993878597027,-3.0989136363198724,-1.4148403183475984,0.10966518450885347,6.0241571324561844,-1.598650061434262
-2.5563885242229016,-3.0386720649953105,-1.4137436665025098,0.09367868389451085,5.637538763754824,-1.061323358303981
-2.5867752448728547,-2.982296677357762,-1.4128068796635647,0.08306545031147104,5.274622348694483,-0.5636146682012326
