th1 (rad),w1 (rad/s),th2 (rad),w2 (rad/s),a1 (rad/s^2),a2 (rad/s^2)
6.079541666763587,2.869666882184853,3.4495116263924372,2.8359272735636085,4.946510769196824,11.314767131578137
6.108238335585436,2.9191319898768215,3.477870899128073,2.94907494487939,4.528795790027815,11.352564518817324
6.137429655484204,2.9644199477771,3.507361648576867,3.062600590067563,4.084250753380045,11.368290388428054
6.167073854961975,3.0052624553109,3.5379876544775426,3.1762834939518436,3.6122622710036825,11.360652595382971
6.197126479515084,3.041385078020937,3.569750489417061,3.2898900199056733,3.1122491247822937,11.328336236653714
6.227540330295294,3.0725075692687596,3.602649389616118,3.4031733822722106,2.5836688643577204,11.270000329730676
6.258265405987982,3.098344257912337,3.6366811234388403,3.5158733855695172,2.0260296169042626,11.184280485347072
6.289248848567105,3.1186045540813794,3.6718398572945357,3.627716190422988,1.4389084377448598,11.069799748841538
6.320434894107919,3.132993638458828,3.7081170191987654,3.7384141879114035,0.8219774471656046,10.925189837613477
6.351764830492507,3.141213412930484,3.7455011610778794,3.8476660862875383,0.1750387875126147,10.74912490927845
6.3831769646218115,3.14296380080561,3.7839778219407547,3.955157335380323,-0.501930934139811,10.540369714500871
6.414606602629868,3.137944491464212,3.823529395294558,4.060561032525332,-1.2087266052086254,10.297843478856908
6.44598604754451,3.1258572254121257,3.8641350056198114,4.163539467313901,-1.944851610925018,10.020700084584616
6.477244619798632,3.1064087093028756,3.9057704002929503,4.263746468159747,-2.7094474834935536,9.708424065158033
6.50830870689166,3.0793142344679403,3.948407864974548,4.360830708811327,-3.501218942266118,9.3609405871988
6.5391018492363395,3.044302045045279,3.9920161720626615,4.454440114683315,-4.318358344429401,8.978736015177285
6.569544869686792,3.001118461600985,4.036560573209495,4.544227474835088,-5.158474878306326,8.562983921488446
6.599556054302802,2.9495337128179218,4.082002847957845,4.629857314049972,-6.01853504660534,8.115669659454563
6.629051391430981,2.8893483623518685,4.128301421098345,4.711014010644518,-6.894821929333313,7.639705057133193
6.6579448750545005,2.8204001430585355,4.175411561204791,4.78741106121585,-7.782921183169893,7.139023659387307
6.686148876485086,2.7425709312268367,4.223285671816949,4.858801297809723,-8.677741520866832,6.618646511584507
6.713574585797354,2.6557935160181683,4.271873684795047,4.924987762925569,-9.573576348726197,6.084708993045377
6.740132520957536,2.5600577525309065,4.321123562424303,4.985834852856023,-10.464211226775284,5.544440860289438
6.765733098482845,2.4554156402631535,4.370981910952863,5.041279261458917,-11.343078878955154,5.006094519247575
6.7902872548854765,2.341984851473602,4.421394703567452,5.091340206651393,-12.203459796036594,4.478820516689665
6.813707103400213,2.219950253513236,4.4723081056339655,5.136128411818289,-13.038722381272972,3.9724940382050598
6.835906605935345,2.089563029700506,4.523669389752149,5.17585335220034,-13.842592567477995,3.497501355646953
6.85680223623235,1.9511371040257262,4.575427923274152,5.21082836575681,-14.609439445562545,3.064500082979837
6.876313607272608,1.8050427095701007,4.62753620693172,5.241473366586608,-15.334561242878191,2.6841711377477666
6.894364034368309,1.6516970971413187,4.679950940597586,5.268315077964086,-16.014455419225246,2.3669829025729525
6.910881005339721,1.4915525429490664,4.732634091377228,5.291984906989816,-16.647057949315887,2.122988864094537
6.925796530769212,1.3250819634559075,4.785553940447126,5.313214795630762,-17.231940009011808,1.9616788800806944
6.93904735040377,1.1527625633657894,4.838686088403433,5.332831584431569,-17.77045498302751,1.891901406839587
6.950574976037428,0.9750580135355144,4.892014404247749,5.351750598499964,-18.265834445815482,1.9218700118290355
6.9603255561727835,0.7923996690773596,4.945531910232749,5.370969298618254,-18.7232378906128,2.059263003325381
6.968249552863557,0.6051672901712316,4.999241603218931,5.391561928651508,-19.149766842184118,2.3114208075601157
6.974301225765269,0.4136696217493904,5.053157222505447,5.414676136727109,-19.554459037062607,2.685642529185112
6.9784379219827635,0.21812503137876435,5.1073039838727174,5.44153256201896,-19.94828221423775,3.1895814718493276
6.980619172296551,0.018642209236386847,5.1617193094929075,5.473428376737453,-20.3441495311636,3.831739510284646
6.980805594388915,-0.18479928607524915,5.216453593260282,5.5117457718403,-20.75697960658427,4.622061942410432
6.978957601528163,-0.39236908214109184,5.271571050978685,5.5579663912644035,-21.203823505704662,5.572637119872737
6.975033910706752,-0.6044073171981384,5.327150714891329,5.613692762463131,-21.704077993692316,6.698507216822256
6.96898983753477,-0.8214480971350616,5.383287642515961,5.680677834631354,-22.279797368337103,8.018594859239402
6.96077535656342,-1.0442460708184327,5.440094420862274,5.760863783223748,-22.95610110388453,9.556738848104255
6.950332895855236,-1.273807081857278,5.497703058694512,5.8564311717047906,-23.761642630789094,11.342798456566634
6.937594825036663,-1.511423508165169,5.55626737041156,5.969859156270457,-24.729037482724536,13.413704428674768
6.922480589955011,-1.7587138829924145,5.615965961974265,6.103996200557204,-25.895008885612928,15.814153817446513
6.904893451125087,-2.0176639718485436,5.677005923979837,6.26213773873167,-27.299718052224904,18.596258194072668
6.8847168114066015,-2.2906611523707925,5.739627301367154,6.448100320672396,-28.984147396408083,21.816641966347948
6.8618101998828935,-2.5805026263348734,5.8041083045738775,6.6662667403358755,-30.983183814116344,25.527811471131184
6.836005173619545,-2.890334464476037,5.870770971977236,6.921544855047188,-33.30961032352088,29.75723826077774
6.807101828974784,-3.2234305677112456,5.939986420527708,7.219117237654965,-35.919553008730354,34.46109406612695
6.774867523297671,-3.582626097798549,6.012177592904258,7.563728178316234,-38.64189077440042,39.428252819347314
6.739041262319686,-3.9690450055425535,6.08781487468742,7.958010706509707,-41.04379279469248,44.095351799900754
6.699350812264261,-4.379482933489478,6.167394981752517,8.398964224508715,-42.20558232526271,47.234097906400514
6.655555982929366,-4.801538756742105,6.2513846239976045,8.871305203572721,-40.44750576127064,46.56663889769795
6.607540595361945,-5.206013814354812,6.340097676033332,9.3369715925497,-33.32751298973495,38.74756683010937
6.555480457218397,-5.539288944252161,6.433467391958828,9.724447260850793,-18.753466639256498,20.881352252165605
6.500087567775875,-5.7268236106447254,6.530711864567336,9.933260783372448,2.204803507005756,-5.609047959700367
6.442819331669428,-5.704775575574668,6.63004447240106,9.877170303775445,23.455684228798408,-32.43485944449627
6.385771575913681,-5.470218733286684,6.728816175438815,9.552821709330482,37.860497676478445,-49.943495885963635
6.331069388580814,-5.091613756521899,6.82434439253212,9.053386750470846,43.40039986986698,-55.5503749580042
6.280153251015595,-4.657609757823229,6.914878260036828,8.497883000890804,42.83596973522289,-53.143220793426465
6.233577153437363,-4.229250060471,6.999857090045737,7.966450792956539,39.54169033855355,-47.33062408329185
6.191284652832652,-3.8338331570854645,7.079521597975302,7.493144552123621,35.56525526574122,-40.8442047548114
6.152946321261798,-3.478180604428052,7.154453043496538,7.084702504575507,31.797949212688593,-34.82833361277293
6.118164515217517,-3.1602011123011664,7.2253000685422935,6.736419168447777,28.526643292926572,-29.61658368163003
6.0865625040945055,-2.8749346793719006,7.292664260226771,6.440253331631477,25.78562145059227,-25.214703828955635
6.057813157300786,-2.617078464865978,7.357066793543086,6.188106293341921,23.52101966981593,-21.521659123130558
6.031642372652127,-2.3818682681678185,7.418947856476505,5.972889702110615,21.657672741831945,-18.416966429903123
6.007823689970449,-2.1652915407494993,7.478676753497611,5.788720037811584,20.123381879135778,-15.790820941755515
5.986170774562954,-1.9640577219581414,7.536563953875727,5.6308118283940285,18.856096291427242,-13.551853588125242
5.966530197343372,-1.775496759043869,7.592872072159667,5.495293292512776,17.804711905909308,-11.626883473677344
5.9487752297529335,-1.597449639984776,7.647825005084795,5.379024457776002,16.927767280443117,-9.958272801712994
5.932800733353086,-1.4281719671803448,7.701615249662555,5.279441729758872,16.19167273389893,-8.50094718450617
5.918519013681283,-1.2662552398413556,7.754409666960144,5.19443225791381,15.569049626612003,-7.219754963202798
5.905856461282869,-1.1105647435752355,7.806353989539282,5.122234708281782,15.037344564347638,-6.087315742132461
5.894750813847116,-0.9601912979317591,7.8575763366221,5.0613615508604575,14.577731613200724,-5.082326533923775
5.885148900867798,-0.8144139817997518,7.908189952130704,5.0105382855212195,14.174266947317301,-4.188243381162741
5.8770047610498,-0.6726713123265787,7.958295334985916,4.968655851709592,13.813250845280617,-3.3922534669722357
5.870278047926535,-0.5345388038737726,8.007981893503011,4.9347333170398695,13.482755929708848,-2.684464931509362
5.864932659887797,-0.39971124457668417,8.05732922667341,4.907888667724776,13.172287927106833,-2.057256701023068
5.860935547442031,-0.26798836530561587,8.106408113350657,4.887316100714545,12.872552275384344,-1.5047445399262567
5.858255663788975,-0.13926284255177243,8.155281274357803,4.872268655315283,12.575305435978887,-1.0223312825958064
5.856863035363457,-0.013509788191983563,8.204003960910956,4.862045342489325,12.273273583019451,-0.6063188952014759
5.856727937481537,0.10922294763821096,8.25262441433585,4.85598215353731,11.960123626446618,-0.25356803262386673
5.857820166957919,0.22882418390267714,8.301184235871224,4.853446473211071,11.630472605399522,0.03880257733240176
5.860108408796946,0.34512890995667234,8.349718700603335,4.853834498984395,11.279921752612648,0.27367908919656403
5.8635596978965125,0.4579281274827988,8.398257045593178,4.856571289876361,10.905101408923473,0.45417565228982526
5.8681389791713405,0.5669791415720336,8.446822758491942,4.861113046399259,10.503712908818645,0.5838124250387073
5.873808770587061,0.67201627066022,8.495433888955935,4.866951170649646,10.074554001889217,0.6666416395041924
5.880528933293664,0.7727618106791121,8.544103400662431,4.873617587044688,9.617515697546391,0.7073149374949197
5.888256551400454,0.868936967654576,8.592839576532878,4.880690736419637,9.133540869202736,0.7110870287249453
5.896945921077,0.9602723763466033,8.641646483897075,4.887801606706886,8.624538581493546,0.6837541967449415
5.906548644840466,1.046517762161539,8.690524499964145,4.894639148674336,8.09325271957456,0.6315309335732513
5.917013822462081,1.1274502893572844,8.739470891450887,4.900954458010069,7.543088665287353,0.5608733926122536
5.928288325355655,1.2028811760101579,8.788480436030987,4.906563191936191,6.977906847852968,0.47826359159442355
5.940317137115756,1.2726602444886876,8.837546067950349,4.911345827852135,6.401796276702463,0.38997249300655357
5.953043739560643,1.3366782072557122,8.88665952622887,4.915245552782201,5.818843979966206,0.30182247253691374
5.9664105216332,1.3948666470553743,8.935811981756693,4.91826377750757,5.23291716950341,0.21896977365858572
5.980359188103754,1.4471958187504084,8.984994619531768,4.920453475244156,4.647473792525909,0.14572525425929628
5.994831146291258,1.4936705566756674,9.03419915428421,4.9219107277867495,4.065414122246244,0.08542739807585661
6.009767851858014,1.5343246978981298,9.083418261562077,4.922765001767508,3.4889817001661547,0.04037587480872136
6.025111098836995,1.5692145148997914,9.132645911579752,4.923168760515595,2.919716970900948,0.011827763800186247
6.0408032439859936,1.5984116846088008,9.181877599184908,4.923287038153597,2.358462080571649,5.278340753584343e-05
6.0567873608320815,1.6219963054145172,9.231110469566444,4.923287565987672,1.8054111650910067,0.004439198200371361
6.073007323886227,1.6400504170654273,9.28034334522632,4.923331957969676,1.2601974480838691,0.02363893565370782
6.089407828056881,1.652652391546266,9.329576664806018,4.9235683473262135,0.722006764541915,0.05573894925242958
6.105934351972344,1.6598724591916851,9.37881234827928,4.924125736818738,0.18970666412291318,0.09844586241665369
6.122533076564261,1.6617695258329144,9.428053605647467,4.925110195442905,-0.33801919717276385,0.14927208223278257
6.139150771822591,1.6583893338611868,9.477304707601895,4.9266029162652325,-0.8625404034940644,0.2057134699783412
6.155734665161202,1.649763929826246,9.526570736764548,4.928660050965016,-1.3851602308275035,0.26541089609047963
6.172232304459465,1.635912327517971,9.575857337274197,4.931314159925921,-1.9070127852656837,0.3262902656099733
6.188591427734645,1.6168421996653142,9.625170478873457,4.9345770625820204,-2.4289806909614686,0.38667765686876787
6.204759849731298,1.5925523927556995,9.674516249499277,4.938443839150708,-2.9516356529883363,0.44538795835457606
6.2206853736588545,1.5630360362258162,9.723900687890785,4.942897718734254,-3.4752029069923402,0.5017867909775278
6.236315734021113,1.5282840071558927,9.773329665078128,4.947915586644029,-3.9995494745764595,0.5558265993246454
6.251598574092672,1.4882885124101282,9.822808820944568,4.953473852637276,-4.524195240931772,0.6080586496481156
6.266481459216773,1.4430465600008104,9.87234355947094,4.959554439133758,-5.048345123422602,0.6596233529501206
6.280911924816781,1.3925631087665844,9.921939103862277,4.966150672663259,-5.570939978772567,0.7122218948481573
6.294837555904447,1.3368537089788588,9.97160061058891,4.973272891611741,-6.090723389843944,0.7680726346301987
6.308206092994236,1.2759464750804193,10.021333339505027,4.9809536179580425,-6.606321085346545,0.8298561454715835
6.32096555774504,1.2098832642269537,10.071142875684608,4.989252179412758,-7.116329495263005,0.9006530983940378
6.333064390387309,1.1387199692743237,10.121035397478735,4.998258710396699,-7.619409856432556,0.9838794249612903
6.344451590080053,1.0625258707099983,10.171017984582702,5.008097504646312,-8.11438438091318,1.0832233066510715
6.355076848787153,0.9813820269008665,10.221098959629165,5.018929737712822,-8.60033130071942,1.2025885181484142
6.3648906690561615,0.8953787138936723,10.271288257006294,5.030955622894306,-9.076676109221365,1.346048497712689
6.373844456195099,0.8046119528014586,10.321597813235236,5.044416107871434,-9.543277018992974,1.5178152493860775
6.381890575723113,0.7091791826115288,10.37204197431395,5.059594260365294,-10.000503520297595,1.7222268382683903
6.388982367549228,0.6091741474085528,10.422637916917603,5.076816528747978,-10.449307914492293,1.9637568786013728
6.395074109023313,0.5046810682636299,10.473406082205083,5.096454097533991,-10.891290767816068,2.2470491059378332
6.40012091970595,0.3957681605854692,10.524370623180422,5.118924588593369,-11.328762340088177,2.5769799480943707
6.404078601311805,0.28248053718458743,10.575559869066355,5.1446943880743135,-11.764803154257791,2.9587520453981426
6.406903406683651,0.16483250564200952,10.627006812947098,5.174281908528295,-12.203327962905659,3.3980219947661534
6.408551731740071,0.042799226012952926,10.67874963203238,5.2082621284759565,-12.649158425466632,3.901066268886633
6.408979724000201,-0.08369235824171341,10.73083225331714,5.247272791164823,-13.10811083072104,4.474990335295924
6.408142800417783,-0.21477346654892382,10.783304981228788,5.292022694517782,-13.58710617027312,5.127987477877557
6.405995065752294,-0.35064452825165504,10.836225208173966,5.343302569296558,-14.09431073766016,5.869655642654872
6.402488620469778,-0.4915876356282567,10.889658233866932,5.401999125723107,-14.63931604028566,6.711382588287809
6.3975727441134955,-0.6379807960311132,10.943678225124163,5.469112951605985,-15.233366793203535,7.666811232914704
6.3911929361531845,-0.7903144639631485,10.998369354640223,5.545781063935132,-15.88964429004374,8.752397288401545
6.383289791513553,-0.9492109068635859,11.053827165279575,5.633305036819147,-16.62360779055581,9.988067824355019
6.373797682444917,-1.115446984769144,11.110160215647767,5.733185715062697,-17.453385206470966,11.397977702604605
6.362643212597225,-1.2899808368338537,11.167492072798394,5.847165492088743,-18.400179218629074,13.011331481049508
6.349743404228887,-1.4739826290201443,11.225963727719282,5.977278806899237,-19.488601805817638,14.863172356022332
6.335003577938686,-1.6688686470783207,11.285736515788274,6.1259105304594605,-20.746740547145425,16.994898429816402
6.318314891467902,-1.876336052549775,11.34699562109287,6.295859514757624,-22.205537057605095,19.453972181373107
6.299551530942405,-2.098391423125826,11.409954216240445,6.490399236571355,-23.896608387267136,22.291685322392624
6.278567616711147,-2.3373575069984973,11.47485820860616,6.713316089795281,-25.8467450979249,25.556620592756715
6.255194041641162,-2.5958249579777464,11.541991369504112,6.968882295722849,-28.065561001378867,29.279033220507692
6.229235792061385,-2.876480567991535,11.61168019246134,7.261672627927926,-30.519449593148167,33.436763925580145
6.200470986381469,-3.181675063923017,11.68429691874062,7.596040267183727,-33.079251251196226,37.88522276561543
6.168654235742239,-3.5124675764349793,11.760257321412457,7.974892494839882,-35.421106700405986,42.2226543134081
6.133529559977889,-3.866678643439039,11.840006246360856,8.397119037973962,-36.85704518881296,45.55699579429751
6.094862773543499,-4.235249095327169,11.923977436740596,8.852688995916937,-36.10622498427171,46.1866625085989
6.052510282590227,-4.596311345169886,12.012504326699766,9.314555621002926,-31.178549905563703,41.42845259094303
6.0065471691385275,-4.908096844225523,12.105649882909795,9.728840146912356,-19.922851628397733,28.35270595572058
5.957466200696272,-5.1073253605095,12.202938284378918,10.012367206469563,-1.9692322918382803,6.435087417521756
5.906392947091177,-5.127017683427883,12.303061956443614,10.07671808064478,18.891036404627435,-19.195480707838943
5.855122770256899,-4.938107319381608,12.403829137250062,9.88476327356639,35.9451762803063,-39.49850212645341
5.805741697063083,-4.5786555565785445,12.502676769985726,9.489778252301857,45.073440866010365,-49.074868954849244
5.759955141497298,-4.127921147918441,12.597574552508744,8.999029562753364,47.225687640263544,-49.42773408862526
5.718675930018113,-3.655664271515805,12.687564848136278,8.504752221867111,45.50702673133131,-44.868286718416726
5.682119287302955,-3.2005940042024923,12.772612370354949,8.056069354682943,42.364495238961695,-38.70003862929566
5.65011334726093,-2.7769490518128754,12.853173063901778,7.669068968389987,39.06105012600013,-32.57481649076552
5.622343856742802,-2.3863385505528742,12.929863753585678,7.343320803482332,36.0938566236044,-27.106406532583108
5.5984804712372735,-2.02539998431683,13.003296961620501,7.072256738156501,33.59545755303782,-22.429883287648344
5.578226471394105,-1.6894454087864519,13.074019529002067,6.847957905280017,31.552174809390667,-18.498602429163164
5.56133201730624,-1.3739236606925451,13.142499108054867,6.662971880988386,29.901854897405993,-15.21355586279024
5.547592780699315,-1.0749051117184851,13.20912882686475,6.5108363223604835,28.57308121159326,-12.47315014703584
5.53684372958213,-0.7891742996025526,13.274237190088355,6.386104820890125,27.49916219127585,-10.189487796122833
5.5289519865861045,-0.5141826776897941,13.338098238297256,6.2842099429288965,26.621975443464063,-8.291594614623913
5.523810159809207,-0.24796292325515346,13.400940337726546,6.201293996782657,25.8920435466834,-6.724034537952647
5.521330530576655,0.010957512211680565,13.462953277694373,6.13405365140313,25.267431058818236,-5.444228880961111
5.5214401056987725,0.2636318227998629,13.524293814208404,6.0796113625935195,24.712466424120223,-4.4196987369723955
5.524076423926771,0.5107564870410651,13.585089927834339,6.035414375223795,24.19664217950705,-3.6256179958287005
5.529183988797182,0.7527229088361357,13.645444071586578,5.999158195265508,23.69378622001371,-3.0427519751960306
5.536711217885543,0.9896607710362728,13.705435653539233,5.968730675513548,23.181496334732664,-2.6557528657721705
