th1 (rad),w1 (rad/s),th2 (rad),w2 (rad/s)
3.7984594415042325,-2.665237568905395,1.9912419638914944,1.1988328841357336
3.7718070658151786,-2.6133475062536533,2.0032302927328516,1.1905808224098071
3.745673590752642,-2.5637489495805466,2.0151361009569495,1.178312106450136
3.7200361012568366,-2.5162130692891367,2.026919222021451,1.1622808818583512
3.694873970563945,-2.470532150844528,2.0385420308400346,1.1427137237375438
3.6701686490555,-2.4265182774371654,2.04996916807741,1.1198125157889653
3.645903466281128,-2.3840020616295745,2.0611672932353,1.093757262274605
3.6220634456648324,-2.342831456000365,2.0721048658580457,1.0647087872261358
3.5986351311048286,-2.3028706595626938,2.082751953730307,1.0328112931870743
3.5756064245092016,-2.263999127011053,2.093080066662178,0.998194764001477
3.552966433239091,-2.2261106807903843,2.1030620143021928,0.9609772041710071
3.530705326431187,-2.1891127209286436,2.1126717863439026,0.9212667122417222
3.508814199221901,-2.1529255240333525,2.1218844534663197,0.8791633884482289
3.4872849439815674,-2.117481620460945,2.130676087350802,0.8347610781314598
3.466110127776958,-2.082725237165065,2.1390236981321165,0.7881489527967407
3.445282875405307,-2.0486117929360383,2.1469051876600838,0.7394129305091085
3.4247967574759466,-2.01510743253679,2.154299316965175,0.6886369369558197
3.4046456831505787,-1.9821885865392435,2.161185686334733,0.6359040081875896
3.3848237972851862,-1.9498415444139465,2.167544726416609,0.5812972359618099
3.3653253818410467,-1.918062029580744,2.1733576987762273,0.5249005568774863
3.346144761545239,-1.8868547666481599,2.178606704345002,0.46679938718540775
3.3272762138787577,-1.8562330329055974,2.1832746982168563,0.40708110630138195
3.308713883549702,-1.8262181882253337,2.18734550927987,0.34583539362199706
3.2904517016674486,-1.7968391798053271,2.19080386321609,0.28315442517521217
3.2724833098693953,-1.7681320205486197,2.193635407467842,0.21913293882865115
3.254801989663909,-1.7401392422276578,2.195826736856129,0.1538681790937239
3.2374005972416326,-1.7129093268117577,2.197365418647066,0.08745973485114122
3.2202715039735152,-1.6864961213324534,2.1982400159955775,0.020009285423262385
3.2034065427601908,-1.660958243321609,2.1984401088498102,-0.04837972782280414
3.1867969603269746,-1.6363584850941748,2.1979563115715823,-0.117602485875047
3.170433375476033,-1.6127632258982356,2.1967802867128317,-0.18755321331057614
3.1543057432170505,-1.5902418611858915,2.194904754579726,-0.25812561713627646
3.1384033246051914,-1.5688662579685224,2.192323498408363,-0.3292133246117437
3.122714662025506,-1.5487102444409948,2.1890313651622457,-0.4007103026669536
3.107227559581096,-1.529849140853367,2.185024262135576,-0.4725112433256349
3.0919290681725626,-1.5123593370623554,2.18029914970232,-0.5445119017972562
3.076805474801939,-1.496317920412206,2.1748540306843474,-0.6166093764712988
3.061842295597817,-1.4818023556883981,2.1686879369196346,-0.6887023227880108
3.047024272040933,-1.4688902169704534,2.1618009136917546,-0.760691095719003
3.032335369871228,-1.457658969386672,2.1541940027345645,-0.8324778182271316
3.0177587801773615,-1.4481857971338208,2.145869224552293,-0.9039663754655076
3.003276922206023,-1.4405474727392535,2.1368295607976378,-0.9750623365236797
2.9888714474786306,-1.4348202614603,2.127078937432401,-1.0456728071689136
2.9745232448640277,-1.4310798539621927,2.116622209360712,-1.115706218227422
2.9602124463244057,-1.4294013199962792,2.1054651471784376,-1.18507205500011
2.945918433124443,-1.4298590757012455,2.0936144266284367,-1.2536805334325585
2.9316198423674305,-1.4325268573431522,2.081077621294111,-1.3214422287045045
2.917294573793999,-1.437477694756089,2.067863199007066,-1.3882676615316678
2.902919796846438,-1.4447838783985378,2.053980522391749,-1.4540668468551416
2.8884719580624525,-1.454516914752964,2.0394398539231977,-1.5187488088089922
2.8739267889149227,-1.4667474657206434,2.0242523658351077,-1.5822210649841906
2.859259314257716,-1.4815452686573085,2.0084301551852657,-1.6443890821220362
2.844443861571143,-1.4989790347212268,1.9919862643640454,-1.7051557045416652
2.8294540712239304,-1.5191163242353176,1.9749347073186287,-1.76442055589375
2.8142629079815773,-1.5420233987794838,1.9572905017596913,-1.8220794142850574
2.7988426739937826,-1.5677650507187673,1.9390697076168408,-1.878023560473516
2.783165023486595,-1.5964044118371297,1.9202894720121058,-1.9321390987162639
2.7672009793682233,-1.6280027436946836,1.9009680810249432,-1.9843062499775346
2.7509209519312763,-1.6626192132753999,1.8811250185251678,-2.0343986175717075
2.734294759798522,-1.7003106584671372,1.8607810323494507,-2.0822824259215014
2.717291653213851,-1.7411313489462898,1.8399582080902357,-2.127815733934719
2.699880339724388,-1.7851327491592126,1.8186800507508885,-2.170847625519195
2.682029012232796,-1.8323632913374706,1.7969715744956964,-2.211217380931011
2.6637053793194214,-1.8828681678890191,1.7748594006863863,-2.24875363394512
2.644876697640531,-1.9366891541050477,1.752371864346935,-2.2832735212036024
2.6255098060994806,-1.9938644739393956,1.729539129134899,-2.3145818314827187
2.6055711613600865,-2.054428723673002,1.7063933108200717,-2.342470163968864
2.5850268741233564,-2.1184128705773797,1.682968609180383,-2.366716105885005
2.5638427454175825,-2.185844346231496,1.659301448121533,-2.387082440901084
2.5419843019552677,-2.2567472568998888,1.635430623712522,-2.4033164006336003
2.5194168293862687,-2.3311427362968087,1.611397459706186,-2.4151489721377115
2.4961054020233004,-2.4090494690621087,1.587245969984809,-2.4222942745824283
2.4720149073326794,-2.4904844162413813,1.5630230272389847,-2.4244490182691085
2.4471100631702654,-2.5754637768266493,1.5387785370562936,-2.4212920588516114
2.4213554254019987,-2.6640042217378617,1.5145656164677774,-2.4124840591759336
2.39471538318462,-2.756124438178351,1.490440775876018,-2.397667270848148
2.3671541388028365,-2.8518470226142285,1.4664641031675365,-2.376465447944933
2.3386356685766945,-2.951200759048725,1.442699448688087,-2.348483907008224
2.309123660986207,-3.0542233148395663,1.419214609618005,-2.3133097519109502
2.2785814278378114,-3.1609643776589,1.3960815120988954,-2.2705122913737177
2.2469717840612224,-3.2714892422816377,1.3733763891851583,-2.2196436939759043
2.214256891638406,-3.3858828316663723,1.351179952245399,-2.160239955191847
2.1803980633217424,-3.5042540986860007,1.3295775526934805,-2.0918223004718786
2.1453555223348824,-3.6267406959522437,1.3086593296887619,-2.0138992284616584
2.10908811537536,-3.753513710974465,1.2885203374041452,-1.925969525236767
2.0715529782656152,-3.8847821265348825,1.2692606421517776,-1.8275267779203672
2.0327051570002665,-4.020796457773436,1.2509853743725738,-1.7180662197208663
1.992497192422532,-4.161850702491214,1.2338047121753652,-1.5970952001390384
1.9508786853976199,-4.308281267554739,1.2178337601739748,-1.4641492683353983
1.9077958727220725,-4.460460828063844,1.2031922674906208,-1.318816888166885
1.8631912644414341,-4.618784037253012,1.190004098608952,-1.1607773070620688
1.817003424068904,-4.783640511262139,1.1783963255383312,-0.9898582400359438
1.7691670189562825,-4.955368442908007,1.1684977431379717,-0.8061229525596916
1.7196133345272024,-5.134179509950501,1.1604365136123749,-0.6100000473111741
1.6682715394276975,-5.320042664205918,1.154336513139263,-0.40247337823115076
1.6150711127856383,-5.51251183366255,1.1503117793569515,-0.1853526033609385
1.5599459944490128,-5.710482932005337,1.148458253323342,0.03835664329252472
1.5028411651289595,-5.911873936415881,1.1488418197562673,0.26397761374905215
1.4437224257648007,-6.113247105719576,1.1514815958937579,0.4846156918463592
1.382589954707605,-6.30944636272063,1.1563277528122216,0.690653825483885
1.3194954910803987,-6.49341110189974,1.1632342910670603,0.8695336360718138
1.2545613800614013,-6.656425928344421,1.1719296274277784,1.006208260968844
1.1879971207779572,-6.789085813673396,1.1819917100374668,1.0846791642793856
1.1201062626412233,-6.883051134690445,1.1928385016802607,1.090725208069231
1.0512757512943187,-6.933171816229895,1.203745753760953,1.0152026623213428
0.9819440331320197,-6.939039320152111,1.2138977803841664,0.8565229183748857
0.9125536399304987,-6.905049825119509,1.2224630095679152,0.6209316361229835
0.8435031416793035,-6.838869724865472,1.228672325929145,0.3203799408912093
0.7751144444306488,-6.749151402588329,1.231876125338057,-0.0308083542734936
0.7076229304047655,-6.643586756376189,1.231568041795322,-0.41887646650535854
0.6411870628410037,-6.527865566600165,1.2273792771302685,-0.8323076571132441
0.575908407175002,-6.405474789437311,1.219056200559136,-1.2622756956760814
0.5118536592806289,-6.2779886986073885,1.2064334436023754,-1.7023561547403636
0.449073772294555,-6.145528967544602,1.1894098820549717,-2.147963170246739
0.387618482619109,-6.007211084243896,1.1679302503525042,-2.595789465413146
0.32754637177667,-5.86150805550091,1.1419723556983727,-3.0433634933917983
0.26893129122166093,-5.706524293479548,1.1115387207644547,-3.4887446988976376
0.21186604828686545,-5.540195906343844,1.0766512737754783,-3.9303394364451925
0.156464089223427,-5.360437298278337,1.0373478794110265,-4.36681023418196
0.10285971624064363,-5.165250271653234,0.9936797770692068,-4.797052661690431
0.0512072135241113,-4.952806653401296,0.9457092504523026,-5.220218572877363
0.0016791469900983291,-4.721511176435884,0.8935070647235289,-5.635768629717363
-0.045535964774260515,-4.470048674315264,0.8371493784263553,-6.043539805715878
-0.09023645151741316,-4.197418794786284,0.7767139803691965,-6.443814862034154
-0.132210639465276,-3.90296256069919,0.7122758317488549,-6.837380463722085
-0.17124026507226792,-3.5863885595694702,0.643902027111634,-7.225558160343
-0.20710415066796262,-3.2478130645204955,0.571646445508204,-7.610186705973603
-0.23958228131316756,-2.8878393015149393,0.49554457844846794,-7.993522941360485
-0.26846067432831694,-2.5077184305614044,0.4156093490348631,-8.378008252216697
-0.293537858633931,-2.1096610608105175,0.3318292665126961,-8.765814081148536
-0.3146344692420362,-1.6974040209358965,0.24417112570121074,-9.158030514650129
-0.33160850945139514,-1.2771741838176751,0.15259082055470946,-9.553305726296578
-0.3443802512895719,-0.8591910258671598,0.05705776329174367,-9.945729910516317
-0.3529721615482435,-0.4597005395538925,-0.0423995358134195,-10.321934048162033
-0.35756916694378243,-0.10300182431349936,-0.14561887629503983,-10.658059750179524
-0.3585991851869174,0.1782363297431951,-0.25219947379683505,-10.918806546568284
-0.35681682188948544,0.3474450242843159,-0.3613875392625179,-11.062637707902395
-0.3533423716466423,0.37565695391893245,-0.47201391634154183,-11.056193721422966
-0.34958580210745294,0.2560224478407553,-0.5825758535557715,-10.892674826261477
-0.3470255776290454,0.009726983763880703,-0.6915026018183862,-10.598965512380799
-0.3469283077914066,-0.3237729497804788,-0.7974922569421942,-10.22256350598016
-0.35016603728921136,-0.7036977298971036,-0.8997178920019958,-9.80996863180911
-0.3572030145881824,-1.098934301049533,-0.9978175783200869,-9.39359196256848
-0.3681923575986777,-1.4899311194499696,-1.0917534979457717,-8.990552210360311
-0.3830916687931774,-1.8659175539843622,-1.1816590200493748,-8.60710235769914
-0.40175084433302105,-2.221528121846671,-1.2677300436263663,-8.243366639863293
-0.42396612555148777,-2.554348317580894,-1.3501637100249992,-7.896607714837843
-0.44950960872729673,-2.8634538230448596,-1.4291297871733777,-7.563094133407353
-0.4781441469577453,-3.148633069450207,-1.5047607285074511,-7.2390564933013675
-0.5096304776522473,-3.4100087415575144,-1.5771512934404648,-6.921133083881048
-0.5437305650678225,-3.6478731945982052,-1.6463626242792753,-6.606550083827316
-0.5802092970138045,-3.8626313348304078,-1.7124281251175484,-6.2931691567109995
-0.6188356103621087,-4.054792920072395,-1.7753598166846585,-5.979470132385964
-0.6593835395628326,-4.224983500171766,-1.835154518008518,-5.664502061589611
-0.7016333745645502,-4.3739581184324114,-1.8917995386244142,-5.347818776758774
-0.7453729557488743,-4.502610047321583,-1.945277726392002,-5.0294069555824406
-0.7903990562220902,-4.611971374311862,-1.9955717959478265,-4.709611052856334
-0.8365187699652088,-4.70320483964985,-2.0426679064763897,-4.389057972409277
-0.8835508183617073,-4.777587803957295,-2.0865584862004827,-4.068583780114684
-0.9313266964012803,-4.836490022800031,-2.1272443240016297,-3.7491645065106765
-0.9796915966292806,-4.8813472577336565,-2.1647359690667365,-3.4318528716415857
-1.028505069206617,-4.913632794056823,-2.1990544977831523,-3.117722476798065
-1.0776413971471854,-4.9348287573202,-2.230231722551133,-2.8078206313666936
-1.1269896847203875,-4.946398796832798,-2.2583099288648,-2.5031305475205317
-1.1764536726887156,-4.949763296952365,-2.2833412343400052,-2.2045431888751796
-1.2259513056582392,-4.946277837901978,-2.305386666228757,-1.9128386507582706
-1.275414084037259,-4.937215198430935,-2.3245150527363396,-1.6286766199706972
-1.3247862360215683,-4.923750802299981,-2.3408018189360464,-1.3525952376123593
-1.3740237440445682,-4.906951177300906,-2.35432777131217,-1.085017580956211
-1.4230932558175773,-4.887764727644307,-2.3651779471217322,-0.8262649856210376
-1.4719709030940205,-4.867013920196698,-2.3734405969779426,-0.5765765294625097
-1.5206410422959875,-4.845387853241905,-2.379206362272568,-0.3361341627554504
-1.5690949208284066,-4.823434119917883,-2.3825677039001225,-0.10509314721220228
-1.6173292620275854,-4.801548918460116,-2.3836186353722444,0.11638241124140383
-1.6653447512121866,-4.7799645443370755,-2.3824548112598305,0.32807918718794005
-1.7131443966555573,-4.758733808715215,-2.379174019387951,0.529690012596608
-1.7607317347427094,-4.737711692344459,-2.373877119261985,0.7207664554582438
-1.8081088516661539,-4.7165358329623,-2.3666694547074023,0.9006716672828354
-1.8552742099957769,-4.694609425755675,-2.357662738034574,1.068539185073689
-1.9022203042533337,-4.671092844826392,-2.346977346183837,1.2232470584671153
-1.9489312327015975,-4.64491348670012,-2.3347448755991658,1.3634210008914303
-1.9953803675685988,-4.614806042649294,-2.3211106655902514,1.4874838537066575
-2.041528427995092,-4.5793957002126415,-2.3062358270531846,1.5937687458408807
-2.0873223849972184,-4.537331888160485,-2.2902981395947757,1.6807059960393156
-2.1326957038788232,-4.487467701044706,-2.2734910796343826,1.7470756609641944
-2.17757038088927,-4.4290606074767505,-2.2560203230247406,1.7922895571338922
-2.2218609869640376,-4.361949793358289,-2.238097427453402,1.8166377404551377
-2.2654804848976204,-4.286656441299728,-2.2199310500488503,1.8214219097067617
-2.3083470493106177,-4.204366478329297,-2.2017168309517827,1.8089177910937069
-2.3503907140939106,-4.116790733109828,-2.183627653040846,1.782159955333375
-2.391558621425009,-4.025939225580005,-2.165806053487512,1.7446029094062403
-2.431818013680809,-3.9338721284073417,-2.1483600243934498,1.6997495595427297
-2.4711567349648824,-3.842487594645069,-2.1313625287980225,1.6508347105116286
-2.509581610911333,-3.753382161066101,-2.1148541816929063,1.6006157884328387
-2.547115432521994,-3.6677895718713653,-2.098848023808578,1.551279588716534
-2.5837933282407075,-3.5865826656623363,-2.083335227921413,1.5044428728779335
-2.619659154897331,-3.510314858946569,-2.0682907991926336,1.4612125821672914
-2.6547623034867964,-3.4392795748897633,-2.053678673370961,1.422273833992498
-2.689155099235694,-3.3735722586926467,-2.039455935031036,1.3879828850324578
-2.72289082182262,-3.3131462629052204,-2.0255761061807114,1.358451890331459
-2.7560222844516726,-3.257858946610213,-2.0119915872773966,1.3336197159217371
-2.788600873917775,-3.207507466833801,-1.9986553901181792,1.3133077255509389
-2.820675948586113,-3.161855333192877,-1.9855223128626698,1.2972618841903356
-2.8522945019180415,-3.1206513904782045,-1.9725496940207665,1.285183473180244
-2.8835010158228234,-3.083642938192514,-1.959697859288964,1.2767508421677254
-2.9143374452047484,-3.0505844897152086,-1.9469303508672868,1.2716343671525625
-2.9448432901019004,-3.0212433878314835,-1.9342140071957612,1.2695063950504568
-2.975055723980215,-2.9954032130148245,-1.9215189432452566,1.2700475618110454
-3.0050097561103635,-2.972865680943138,-1.9088184676271462,1.2729505280790083
-3.0347384129197947,-2.953451534877401,-1.8960889623463562,1.2779218993194237
-3.0642729282685686,-2.937000793391679,-1.8833097433531618,1.2846828835865876
-3.0936429362024853,-2.9233726068528574,-1.870462914517296,1.292969080030198
-3.122876662271014,-2.912444898725187,-1.857533223716994,1.3025296736995622
-3.1520011112582655,-2.9041139128586475,-1.8445079269799982,1.3131262271005921
-3.181042250386852,-2.8982937494376477,-1.8313766647089922,1.3245311979452359
-3.2100251878812283,-2.8949159456085773,-1.8181313527295397,1.3365262691248387
-3.238974347337314,-2.893929138519985,-1.8047660900382914,1.3489005462767951
-3.2679136387225136,-2.8952988360566434,-1.7912770845755235,1.3614486568514474
-3.29686662708308,-2.899007312068531,-1.777662598007009,1.373968769800769
-3.3258567002037656,-2.905053637017388,-1.7639229103090015,1.3862605451621879
-3.3549072365739394,-2.9134538506534464,-1.7500603048573797,1.3981230167605965
-3.384041775080474,-2.9242412797762145,-1.7360790746897738,1.4093524083303963
-3.413284187878236,-2.937467000629894,-1.7219855506064699,1.4197398832851311
-3.442658857884535,-2.9532004413825814,-1.7077881517736186,1.4290692311930053
-3.472190862298361,-2.9715301147592097,-1.6934974594616885,1.4371145001365078
-3.501906163445953,-2.9925644634730024,-1.6791263144603235,1.4436375942659292
-3.531831808080683,-3.016432790711473,-1.6646899385176641,1.4483858710950734
-3.561996135987798,-3.0432862334553534,-1.6502060798067133,1.4510897949519213
-3.5924289983223514,-3.0732987164546812,-1.635695181857194,1.45146073348868
-3.6231619854868984,-3.106667797564233,-1.6211805745223073,1.4491890258086895
-3.6542286634625407,-3.143615278842855,-1.6066886842642205,1.443942506664716
-3.685664816250969,-3.18438741007014,-1.5922492591975734,1.435365744889983
-3.7175086903516705,-3.2292544497342806,-1.5778956017486736,1.4230803495672175
-3.7498012348490133,-3.2785092709195083,-1.5636647982530014,1.4066868180176308
-3.7825863275582083,-3.332464604536393,-1.549597930072825,1.3857685479296122
-3.815910973603572,-3.3914484005652463,-1.5357402445935289,1.3598988114986639
-3.849825457609225,-3.4557966635752244,-1.5221412564785421,1.3286516866260814
-3.884383424244977,-3.5258429919330987,-1.5088547396122813,1.2916181441787373
-3.919641854164308,-3.601903940385252,-1.495938558170494,1.2484286718144115
-3.9556608935681608,-3.6842592660271167,-1.48345427145235,1.1987839238570646
-3.992503486228432,-3.773126158403612,-1.4714664322137794,1.1424948455735697
-4.030234747812468,-3.868626765735906,-1.4600414837580438,1.0795334193189694
-4.068921015469827,-3.9707487988061603,-1.449246149564854,1.0100944797852502
-4.108628503457888,-4.079299816202932,-1.4391452047670017,0.9346677920272287
-4.149421501619917,-4.193857045282378,-1.4297985268467295,0.8541176481702252
-4.191360072072741,-4.313716286866603,-1.4212573503650272,0.7697645751586152
-4.234497234941407,-4.437845483226698,-1.4135597046134412,0.6834604977568446
-4.278875689773674,-4.56485061341749,-1.4067250996358727,0.5976452935734353
-4.324524195907848,-4.692963221174586,-1.4007486467001382,0.5153698839627353
-4.371453828119594,-4.820059409038787,-1.3955949478605107,0.44026990856913095
-4.419654422209982,-4.943718850599474,-1.3911922487748194,0.37647581423972926
-4.469091610715977,-5.061328802873067,-1.3874274906324222,0.32845074496017285
-4.519704898744708,-5.1702322649069865,-1.3841429831828205,0.30075707856648354
-4.571407221393778,-5.26791202965632,-1.3811354123971555,0.29776482159341294
-4.624086341690341,-5.352194751811818,-1.3781577641812215,0.3233281935203499
-4.677608289208459,-5.421452976469484,-1.374924482246018,0.3804677037579671
-4.731822818973154,-5.474779910631306,-1.3711198052084383,0.47110091984791436
-4.786570618079468,-5.512112651529927,-1.3664087960099591,0.5958637590470851
