th1 (rad),w1 (rad/s),th2 (rad),w2 (rad/s)
3.9199511341504043,1.312974773918086,0.419596642989699,-2.0786619479187323
3.9330808818895853,1.4106661229677806,0.3988100235105117,-2.0331676962208145
3.947187543119263,1.5092838062874134,0.37847834654830353,-1.9877265435115015
3.962280381182137,1.6084503021264074,0.3586010811131885,-1.9431167622411911
3.978364884203401,1.7078183204983677,0.3391699134907766,-1.9000983648176242
3.995443067408385,1.8070789623073091,0.3201689298426003,-1.8594018602555507
4.013513857031458,1.9059679822536404,0.3015749112400448,-1.8217195529809191
4.032573536853994,2.0042701979530344,0.2833577157102356,-1.7876994670929447
4.052616238833525,2.101822209303428,0.26548072103930614,-1.7579418225059154
4.073634460926559,2.198513678597011,0.247901302814247,-1.7329978743709407
4.095619597712529,2.29428747337677,0.2305713240705376,-1.7133708561469592
4.118562472446297,2.3891389949510873,0.213437615509068,-1.6995187363940167
4.142453862395808,2.483115012660281,0.19644242814512783,-1.691858503180936
4.16728501252241,2.576312305225912,0.17952384311331848,-1.6907717198881487
4.19304813557467,2.6688763833579943,0.162616125914437,-1.6966111442237137
4.219736899408249,2.7610005388322225,0.14565001447219986,-1.7097082617125046
4.247346904796571,2.8529254397852988,0.12855293185507483,-1.7303816507726124
4.275876159194424,2.9449394740447006,0.1112491153473487,-1.7589461657139072
4.305325553934871,3.0373800348847295,0.09365965369020962,-1.7957229954277434
4.335699354283719,3.1306359489245574,0.0757024237359322,-1.841050729729518
4.367005713772964,3.2251512658171237,0.057291916438637014,-1.8952976442671983
4.399257226431136,3.3214306657218984,0.038338939995965035,-1.9588755018157322
4.432471533088354,3.4200467952819142,0.018750184977807713,-2.032255266745476
4.466672001041173,3.521649918133088,-0.0015723676896470494,-2.1159852450845786
4.501888500222504,3.6269803640054583,-0.022732220140492837,-2.21071229921896
4.538158303862559,3.736884382386907,-0.04483934313268244,-2.3172069463336538
4.5755271476864285,3.852334150409094,-0.06801141259601898,-2.4363933303207026
4.61405048919052,3.9744528397251666,-0.092375345899226,-2.569385242595721
4.653795017587772,4.104545784436714,-0.1180691983251832,-2.7175295148015084
4.694840475432139,4.244138841207674,-0.1452444934731983,-2.882458112994661
4.737281863844216,4.395024835667504,-0.1740690746031449,-3.066149900729566
4.781232112200891,4.559318204055585,-0.20473057361044056,-3.27100181807385
4.826825294241448,4.739515838577068,-0.23744059179117905,-3.499906110644752
4.874220452627219,4.938557198782112,-0.27243965289762656,-3.75632306987588
4.92360602461504,5.159865766376923,-0.31000288359638534,-4.0443230044857765
4.975204682278809,5.407330321920239,-0.3504461136412431,-4.368537590046161
5.029277985498012,5.6851351403519494,-0.39413148954170474,-4.73389081754541
5.086129336901531,5.997248294661161,-0.44147039771715885,-5.144838734018807
5.146101819848143,6.346187291744791,-0.49291878505734693,-5.603579639884063
5.209563692765591,6.7303675497470365,-0.5489545814561876,-6.106255602015854
5.276867368263061,7.139006387325979,-0.6100171374763461,-6.63570094533545
5.348257432136321,7.543927623944349,-0.6763741469297007,-7.1498272869931165
5.423696708375764,7.891004520925497,-0.7478724197996318,-7.569533740435847
5.5026067535850185,8.103354815283293,-0.8235677572039903,-7.783271660671739
5.5836403017378515,8.115203976610031,-0.9014004738107078,-7.694999616726845
5.664792341503952,7.925662188582092,-0.9783504699779763,-7.300420856882065
5.744048963389773,7.607826597630639,-1.0513546785467969,-6.700396166446979
5.820127229366079,7.252376719559441,-1.1183586402112666,-6.0218193787627605
5.892650996561674,6.918806497563508,-1.1785768339988942,-5.34867899852385
5.961839061537309,6.631697335427004,-1.2320636239841327,-4.716256452669248
6.028156034891579,6.395550266783099,-1.2792261885108251,-4.131612047381555
6.0921115375594095,6.206626861939687,-1.3205423089846406,-3.590115032064612
6.154177806178806,6.058817636069245,-1.3564434593052868,-3.0837202569385385
6.2147659825394985,5.9459552846006325,-1.3872806618746722,-2.6043025529499904
6.274225535385505,5.862538086879259,-1.4133236874041721,-2.14477091954445
6.332850916254298,5.803835409451439,-1.4347713965996167,-1.6993141147249529
6.390889270348812,5.76578414930762,-1.4517645377468662,-1.263347604749692
6.448547111841888,5.744834598385423,-1.464398013794363,-0.8333823980676467
6.505995457825742,5.73780265908059,-1.4727318377750396,-0.4068932687836787
6.563373484416548,5.741746285531782,-1.4768007704628763,0.01779207746717576
6.620790947271866,5.753869887325474,-1.4766228496882046,0.44158221059186603
6.67832964614512,5.771455832159261,-1.4722070275822858,0.8646958493849717
6.736044204466713,5.791820965983438,-1.463560069088436,1.2867281756798554
6.793962414126547,5.812295812052827,-1.4506927873316375,1.7067166058718015
6.852085372247076,5.830223917069574,-1.4336256212729195,2.1232112965675345
6.910387611417772,5.842978431976935,-1.412393508307244,2.5343534718336453
6.968817395737541,5.847992485339657,-1.3870499735889077,2.9379623403657145
7.027297320590938,5.842799394154168,-1.3576703501852505,3.3316292116539
7.085725314532479,5.825078456445793,-1.3243540580687114,3.71281570888909
7.143976099096937,5.792702135692297,-1.2872259009798206,4.078951953479666
7.20190312045386,5.743780936610922,-1.2464363814450239,4.427530386998302
7.259340929819969,5.676703123031572,-1.2021610775750409,4.756191462076792
7.316107961050285,5.590167473253759,-1.154599162954273,5.062798567057319
7.372009635782823,5.48320828049956,-1.1039711772836998,5.345500923973011
7.426841718587819,5.355212569670995,-1.0505161680439696,5.6027844579919
7.480393844284529,5.205929874739385,-0.9944883234640506,5.833511486181489
7.532453143031923,5.035474877305407,-0.9361532086022357,6.03695036155119
7.582807891804976,4.844322841587024,-0.8757837049867239,6.21279595373659
7.631251120220846,4.633297283368212,-0.8136557454493579,6.361181224346904
7.677584093054529,4.403548909555711,-0.7500439332058889,6.482679435244433
7.721619582150086,4.15652476661176,-0.6852171388534446,6.578296003698732
7.763184829816203,3.893926864282683,-0.6194341788164572,6.64944892053282
7.80212409845903,3.617660300710215,-0.552939689611129,6.697937084573197
7.838300701466133,3.329771985944689,-0.4859603187653971,6.725896836850975
7.871598421325579,3.0323822258669626,-0.41870135039688733,6.735748221478453
7.901922243584249,2.7276124297082016,-0.3513438681821028,6.73013379059106
7.92919836788133,2.417512811764147,-0.2840425302761922,6.7118538288205425
7.953373495998972,2.1039940294128945,-0.2169239919879868,6.683802480367684
7.9744134362931005,1.7887662138552323,-0.15008596718430994,6.648909314474552
7.9923010984316525,1.4732879037996351,-0.08359687403956442,6.6100903883533135
8.007033977469648,1.158726165842333,-0.017495970156031285,6.570211994242192
8.018621239128072,0.8459278908251964,0.04820614978639064,6.532069203851325
8.027080518036323,0.5354010873739685,0.11352684182490388,6.4983802480129285
8.032434528910063,0.22730409563210235,0.17851064430503316,6.4717968458377175
8.034707569866384,-0.07855989935492041,0.24322861276341035,6.454929900752926
8.033921970872836,-0.3827458196548155,0.3077779117709396,6.450389483861538
8.030094512676287,-0.6861695746466512,0.372281806609555,6.460837577470983
8.02323281692982,-0.9901124603737915,0.43689018238426486,6.489051330830307
8.013331692326082,-1.2962269140740545,0.5017806956925679,6.537992979480019
8.000369423185342,-1.6065401179360337,0.5671606254873681,6.610878965931189
7.984304022005982,-1.9234455605737666,0.63326941514668,6.71123302427842
7.965069566400244,-2.249660366080639,0.7003817453894642,6.842891965340575
7.942572962739438,-2.5881025756934015,0.7688106650428699,7.009900979263251
7.916691936982503,-2.9415980635546606,0.8389096748355024,7.216173949382969
7.887275956346957,-3.3122468377902776,0.911071414329332,7.464682782468203
7.854153487969055,-3.700149614839701,0.985718242154014,7.755758143403242
7.817151991820658,-4.101040369734482,1.0632758235880464,8.083861448519388
7.776141588123313,-4.502370953887669,1.1441144380732402,8.432174495777277
7.731117878584436,-4.878178224901605,1.2284361830310129,8.765422298011915
7.68233609633542,-5.185879960253355,1.316090406011132,9.025243169170587
7.630477296732886,-5.3730145587003735,1.406342837702838,9.139206391230545
7.576747151145883,-5.401230274799835,1.4977349016151433,9.053657493900793
7.522734848397884,-5.275102882277698,1.5882714765541512,8.773260319531426
7.469983819575107,-5.043085643339365,1.6760040797494655,8.36214009673737
7.419552963141713,-4.765902088179084,1.7596254807168392,7.900495625447547
7.371893942259923,-4.488179785972702,1.8386304369713147,7.446155463721535
7.327012144400196,-4.232905963479746,1.91309199160853,7.027558766281435
7.2846830847653985,-4.008247380829985,1.9833675792713443,6.653388472787169
7.244600610957098,-3.814868804230752,2.049901463999216,6.322600427159805
7.206451922914791,-3.6503915913801444,2.113127468270814,6.030414721346963
7.16994800700099,-3.5115647697229324,2.173431615484284,5.771161059080114
7.13483235930376,-3.395184102941611,2.231143226075085,5.539433527952447
7.100880518274344,-3.298422278942763,2.2865375613546095,5.330467351405428
7.067896295484917,-3.218905742640853,2.3398422348686636,5.140191930015234
7.035707238058508,-3.1546920656490025,2.391244154168816,4.965164926865427
7.004160317402018,-3.104214442246524,2.44089580343747,4.8024741272517
6.973118172979553,-3.0662203754852984,2.488920544709987,4.649641437020433
6.942455969224699,-3.039714285659395,2.5354169590801914,4.504541136704376
6.9120588263681055,-3.023906376183951,2.5804623704472354,4.365335573531102
6.881819762606266,-3.0181670495863466,2.6241157261825463,4.230428289691746
6.851638092110403,-3.0219849977259408,2.666420009079464,4.098433814514156
6.821418242133144,-3.0349267179792956,2.7074043472246054,3.968163514843593
6.791068974953351,-3.056595193558281,2.7470859823730414,3.8386273236656483
6.760503023017768,-3.0865856886716596,2.785472255609698,3.709051490908246
6.7296371661310515,-3.1244370744924765,2.8225627705187804,3.578912460594388
6.698392795386127,-3.169577939052492,2.8583518951247244,3.4479863174245464
6.666697015995602,-3.2212681099671063,2.89283175829897,3.3164116893511495
6.634484334895931,-3.278538288187784,2.9259958751924815,3.1847612983367886
6.601698952014053,-3.340133297904195,2.9578434881758495,3.054113438006639
6.568297619035011,-3.404467787862072,2.988384622555916,2.9261098198575892
6.5342529411563905,-3.469606429750304,3.017645720754492,2.802981402264244
6.499556876858888,-3.5332825736435054,3.0456755347771343,2.6875207460949326
6.464224051122453,-3.5929683426360204,3.0725507422380836,2.582980549891564
6.428294367696092,-3.6460037534586474,3.098380547736999,2.492885698575303
6.391834330161506,-3.689782064782815,3.123309404722752,2.4207614538314797
6.354936509513678,-3.7219745246206517,3.147517019261067,2.3698015108762163
6.317716764267471,-3.740763665126279,3.1712150343698293,2.342521178919004
6.280309127616208,-3.7450454002484377,3.1946402461590195,2.340455124524753
6.242858673613724,-3.7345609097564694,3.218044797404267,2.363958875974734
6.205513064516159,-3.7099310841329745,3.2416843861640143,2.41215604271165
6.168413753674829,-3.6725863269089545,3.2658059465911307,2.483042971693035
6.13168789040574,-3.6246065791631805,3.290636376308061,2.5737287555323243
6.095441824614108,-3.568503662239057,3.3163736638633843,2.6807618931537234
6.059756787991717,-3.506985733630821,3.3431812827949217,2.800482992678595
6.024686930655409,-3.4427409130053075,3.3711861127217078,2.9293472543368897
5.990259521525355,-3.378266582368584,3.4004795852650767,3.0641769896272777
5.95647685570167,-3.3157569892724625,3.4311213551613493,3.202326019674835
5.923319285808946,-3.2570489418231907,3.4631446153580976,3.3417575840666394
5.890748796390714,-3.2036163838320313,3.496562191198764,3.481051033306055
5.858712632552393,-3.156600316529347,3.5313727015318244,3.6193588742298965
5.8271466293871,-3.1168601918551984,3.567566290274123,3.756335902958548
5.795978027468547,-3.085035104414822,3.605129649303709,3.8920585204072378
5.765127676424399,-3.061606394983547,3.644050234507781,4.026947181506901
5.734511612474563,-3.046956573740263,3.6843197063228503,4.161699931821006
5.70404204673716,-3.0414221878247085,3.72593670564106,4.29724100402227
5.673627824858913,-3.0453402027656256,3.768909115681283,4.434685731007959
5.643174422831257,-3.059088689399657,3.813255972991363,4.575321459078701
5.612583535937261,-3.083123256998774,3.8590091875821497,4.720603428498266
5.581752303367273,-3.1180109038820034,3.906215221867132,4.872164411245196
5.550572194328454,-3.164462869069131,3.954936865979584,5.031836952542611
5.518927565637762,-3.2233676676520093,4.00525523550501,5.2016870462609806
5.486693888961242,-3.2958246382034484,4.05727210596762,5.384057596173308
5.453735642579208,-3.3831766421877534,4.111112681929352,5.581618449295322
5.41990387615733,-3.4870372182689082,4.166928866422306,5.797415974247697
5.3850335039746415,-3.6093008716621267,4.224903026164783,6.0349068403389845
5.34894049525802,-3.7521120669217494,4.285252094568173,6.2979434214617465
5.3114193745888025,-3.917742795575684,4.34823152878279,6.59064365681029
5.272241946633046,-4.1082793247001135,4.414137965350893,6.917010908244078
5.231159153386045,-4.324928528430957,4.483308074433333,7.280044837998945
5.187909868101736,-4.566605050602489,4.5561085228133225,7.679876431515639
5.142243817595711,-4.827272860490692,4.632907287128479,8.110194781781978
5.093971088990804,-5.0914945020135045,4.714009234946299,8.55219176546521
5.043056143970669,-5.328547609229382,4.7995311526009505,8.966483531206919
4.989770667878376,-5.488893452412997,4.88919598791302,9.288190019569482
4.934881733354246,-5.512845859106923,4.982077888108715,9.438743629420909
4.879753274763177,-5.360016136635775,5.076465324402924,9.36620348228453
4.826153113396819,-5.042181468324404,5.170127359225769,9.089923666627712
4.775731298713574,-4.618981395519191,5.261026595892046,8.693688893652284
4.729541484758382,-4.157223579403171,5.347963484828569,8.269342786254175
4.68796924896435,-3.700826301751847,5.430656912691111,7.876141131635969
4.650960985946832,-3.2689917078840858,5.509418324007471,7.539194634688088
4.618271068867991,-2.8659455702902914,5.584810270354351,7.26336941453675
4.589611613165088,-2.4891987851654704,5.657443964499719,7.0447397600661485
4.564719625313433,-2.134011398253243,5.72789136210038,6.876641449904346
4.543379511330901,-1.7953521412423614,5.796657776599424,6.75224307010652
4.525425989918477,-1.4686287023075382,5.864180207300489,6.665435984595506
4.5107397028954015,-1.149892904597249,5.930834567146444,6.611018628237516
4.499240773849429,-0.8358457791656296,5.99694475342882,6.584617830152178
4.490882316057773,-0.5237802081524527,6.0627909317303414,6.582530881202494
4.485644513976248,-0.21151557658015674,6.1286162405423665,6.60155897289734
4.483529358210446,0.10265634832782672,6.19463183027134,6.638856074650963
4.484555921693724,0.4200095303185207,6.2610203910178495,6.69179928507803
4.488756016996909,0.741406744505174,6.32793838386863,6.757880513569057
4.496170084441961,1.067310847821458,6.3955171890043205,6.834617939333565
4.506843192920176,1.39778836148502,6.463863368397656,6.9194860782289185
4.520821076535026,1.732509886623077,6.533058229179946,7.009864194050521
4.538146175401256,2.0707520461337423,6.603156871120451,7.103003645517714
4.558853695862594,2.4114056023211896,6.674186907575628,7.196015261963701
4.582967751885806,2.7529940385227127,6.7461470601952644,7.285877803614648
4.610497692271033,3.0937060821968223,6.819005838231411,7.3694678757598835
4.641434753093002,3.4314442926612827,6.89270051698901,7.44361031250422
4.6757491960196145,3.7638899429366495,6.9671366201140525,7.505146138650347
4.713388095448981,4.088582141196118,7.042188081500556,7.551013030916058
4.754273916860942,4.403006772586704,7.117698211809716,7.57833115684865
4.798303984586809,4.70468883074739,7.193481523378203,7.58448588222322
4.845350872894283,4.991280516533399,7.269326382200435,7.567198580406376
4.895263678059617,5.260637475870573,7.344998368004499,7.5245779396202055
4.947870052818323,5.5108768664610475,7.420244147400702,7.455146725477919
5.002978821482934,5.740413417118976,7.494795614655481,7.357842542788948
5.0603829556541235,5.947972821206487,7.568374040083371,7.231995096425138
5.119862683866188,6.132585062948018,7.640693991047622,7.0772860063703975
5.181188534495668,6.293562985876049,7.711466851111326,6.893699709275081
5.244124164354428,6.43047310664287,7.7804038482040765,6.681474956983155
5.308428895420857,6.543106134886973,7.847218597773908,6.441065805592389
5.373859956769726,6.631453914635358,7.9116292558298325,6.173118968817078
5.44017449591608,6.695697776630846,7.973360445518003,5.878471362929995
5.507131473682388,6.736210900876673,8.032145159147303,5.558168044278432
5.574493582691154,6.753574570803514,8.087726839590088,5.213496977623388
5.64202932839919,6.748605475948395,8.139861809366321,4.8460335959676115
5.709515383158673,6.722388799552411,8.188322145325998,4.45768534114559
5.776739271154198,6.676310030300973,8.232898998737454,4.050724749614348
5.843502371457207,6.6120775913025955,8.273406246233598,3.6277996033615456
5.909623147370233,6.531728774179305,8.309684242267213,3.191910530047314
5.9749404351120265,6.437613256856723,8.341603347567686,2.7463502723340265
6.0393165676805936,6.332351572377792,8.369066850291025,2.2946042891182645
6.1026400834043715,6.218769852109895,8.392012893182208,1.8402185390966723
6.16482778192547,6.099816250833041,8.410415078573175,1.3866459803563829
6.2258259444338,5.978467786371026,8.42428153837674,0.9370871706341545
6.2856106222975106,5.857638120149754,8.43365241008308,0.49434138635687985
6.344187003499008,5.740096671636072,8.438595823946649,0.06068261105179751
6.401587970215369,5.628407521342323,8.439202650057167,-0.36222988472789014
6.4578720454287915,5.524893403400119,8.435580351209888,-0.7734026615690203
6.5131209794627924,5.431626556806231,8.427846324594197,-1.1725232084366812
6.567437245030855,5.350445095639667,8.416121092509831,-1.5599460884443686
6.620941695987252,5.282991411789951,8.400521631625388,-1.9366601230465763
6.673771610105152,5.230768118966427,8.381155030394922,-2.3042475649612415
6.726079291294816,5.195207034678811,8.35811255474531,-2.664845536703951
6.778031361641604,5.177747293566156,8.33146409937827,-3.021118180247301
6.829808834577266,5.179919349912736,8.301252917575797,-3.3762453067882836
6.881608028076394,5.203431644503098,8.267490464507913,-3.733929747625219
6.933642344521425,5.250255001807583,8.23015116703166,-4.098420165136903
6.986144894539501,5.322694457596739,8.189166965380291,-4.47453638307363
7.039371839115468,5.423425390767141,8.144421601549555,-4.867665105001844
7.093606093023139,5.555442864974061,8.095744950499537,-5.283654437510026
7.149160521672879,5.721814821973267,8.042908406124436,-5.728454645335674
7.2063786698926116,5.925013576062845,7.98562385967108,-6.207191237040543
7.26562880565324,6.165385472238454,7.923551947300674,-6.722057811970295
7.327282660375624,6.437988917510823,7.856331369180971,-7.26795568459274
7.391662549550732,6.72678567976611,7.7836518123350436,-7.824461734507841
7.458930406348394,6.9960472202891575,7.705407194989965,-8.3439238829809
7.528890878551286,7.183645161888267,7.621967956160156,-8.74219209948468
7.6007273301701685,7.211420278335215,7.5345460351653095,-8.913183991476522
7.6728415329535204,7.028455080700666,7.445414195250544,-8.789269606139413
7.743126083760527,6.659351083368039,7.35752149918915,-8.408222613539081
7.809719594594207,6.190292123124023,7.273439273053759,-7.89297744859357
7.871622515825448,5.704998530566325,7.1945094985678235,-7.3619643746806425
7.9286725011311106,5.249637388940512,7.120889854821017,-6.880591934107532
7.981168875020516,4.839127418981559,7.052083935479941,-6.470529803029949
8.029560149210331,4.472862396377281,6.987378637449642,-6.131850881446533
