th1 (rad),w1 (rad/s),th2 (rad),w2 (rad/s)
1.2920254503974509,-2.962404953598708,2.04450051849055,1.5464618026221781
1.2624014008614637,-3.0064659506345177,2.0599651365167717,1.4314393255316415
1.2323367413551185,-3.05043431874373,2.074279529772088,1.3109551704884788
1.2018323981676813,-3.094549613238628,2.087389081476973,1.185087008828725
1.170886902035295,-3.1389917502748292,2.09923995156526,1.0538552130986683
1.1394969845325467,-3.1838840379284945,2.109778503696247,0.9172318348734556
1.1076581441532618,-3.2292960838624927,2.1189508220449813,0.7751502422013127
1.075365183314637,-3.2752462062579517,2.1267023244669945,0.627514953126806
1.0426127212520575,-3.3217031428679844,2.1329774739982623,0.4742114134606966
1.0093956898233776,-3.3685869750473705,2.137719588132869,0.31511561022717494
0.9757098200729039,-3.4157692691925563,2.140870744235141,0.1501034990219315
0.9415521273809783,-3.463072497419121,2.1423717792253605,-0.020939733357799445
0.9069214024067871,-3.510268841365601,2.1421623818917825,-0.1981105390224489
0.871818713993131,-3.5570785145838544,2.140181276501558,-0.38147799289970363
0.8362479288472925,-3.603167764848873,2.136366496572561,-0.5710749016347141
0.8002162511988038,-3.6481467408598274,2.130655747556214,-0.7668890910058166
0.7637347837902055,-3.6915674296309864,2.122986856646156,-0.9688549761779308
0.7268191094938957,-3.7329218915295397,2.1132983068843765,-1.1768455752124243
0.6894898905786003,-3.7716410384937884,2.1015298511322524,-1.3906651846173188
0.6517734801936624,-3.8070942156778185,2.0876231992860794,-1.6100429931361715
0.6137025380368842,-3.8385898551432645,2.0715227693547176,-1.834627962845214
0.5753166394854516,-3.8653774692757485,2.0531764897262654,-2.0639853509415063
0.5366628647926942,-3.8866512380759364,2.03253663621685,-2.2975952770083254
0.4977963524119348,-3.9015554150668836,2.0095606834467667,-2.534853754560444
0.458780798261266,-3.9091917282485573,1.9842121459011623,-2.7750765980191296
0.41968888097878043,-3.9086288829113354,1.9564613799209711,-3.0175065832631884
0.3806025921496671,-3.8989141807731285,1.9262863140883393,-3.2613241789277705
0.3416134503419358,-3.879087154778617,1.8936730722990616,-3.505662075599879
0.30282257879414964,-3.848194982690159,1.8586164515430628,-3.749623621929682
0.2643406289672481,-3.8053092891024756,1.821120215323766,-3.9923051338420317
0.22628753607622332,-3.749543780908978,1.7811971639853457,-4.23282188174207
0.18879209826713353,-3.680071994277568,1.738868945167925,-4.470337390249653
0.15199137832435786,-3.5961442731286732,1.6941655712654284,-4.704095518221549
0.11602993559307112,-3.497102963406494,1.647124616083213,-4.933454639388742
0.08105890595900618,-3.3823947089772712,1.5977900696893255,-5.1579231341045295
0.04723495886923347,-3.251578688834486,1.5462108383482802,-5.377195349935111
0.01471917198088861,-3.104329655033066,1.4924388848489292,-5.591187211637928
-0.01632412456944205,-2.9404347268274287,1.4365270127325498,-5.800070773775221
-0.04572847183771634,-2.7597830749980363,1.3785263049947976,-6.004307217429211
-0.0733263025876967,-2.562347893897018,1.3184832328205054,-6.204678087124997
-0.09894978152666689,-2.348160410628789,1.2564364519492555,-6.402314912843279
-0.12243138563295478,-2.117276135666255,1.1924133028208226,-6.598727696292385
-0.14360414698961732,-1.8697341645268273,1.1264260258578986,-6.795832932357443
-0.16230148863488558,-1.605511216183591,1.0584676965343243,-6.995981654293195
-0.1783566007967215,-1.3244735072921023,0.9885078799913923,-7.201987012528819
-0.1916013358696425,-1.026332060294346,0.9164880098661041,-7.417148336234877
-0.20186465647258597,-0.7106117080534307,0.8423165265037553,-7.64526299781476
-0.20897077355312027,-0.3766529579451731,0.7658638965256077,-7.890605877199132
-0.212737303132572,-0.023682877329917362,0.6869578377536164,-8.1578334914184
-0.21297413190587117,0.3489768377160466,0.6053795028394324,-8.451726282022536
-0.2094843635287107,0.7414382151220973,0.5208622400192071,-8.776602137416358
-0.20206998137748972,1.1522867342963419,0.43309621864504355,-9.13509592743942
-0.1905471140345263,1.5767661825846366,0.34174525937064937,-9.525797192054089
-0.1747794522086799,2.0036312958913363,0.24648728745010848,-9.939064378784497
-0.15474313924976654,2.4104407625272026,0.1470966436622635,-10.35063519355712
-0.13063873162449452,2.758578997347217,0.04359029172669229,-10.714670531153768
-0.10305294165102236,2.993268343244233,-0.06355641358484539,-10.96326871955329
-0.07312025821858002,3.0581053117869392,-0.17318910078037827,-11.025368619324565
-0.04253920510071063,2.926201620400915,-0.2834427869736239,-10.867894156620434
-0.013277188896701483,2.6235213525407866,-0.39212172853982824,-10.526118700413512
0.012958024628706384,2.2139181259229477,-0.49738291554396336,-10.082652597450492
0.035097205887935856,1.7611399517101665,-0.5982094415184682,-9.616867584986712
0.05270860540503752,1.3067813057463942,-0.6943781173683353,-9.177074624352322
0.06577641846250147,0.8709141814616257,-0.7861488636118585,-8.782976616878937
0.07448556027711772,0.4605078472078666,-0.8739786297806479,-8.437652986390777
0.07909063874919639,0.07629497981086825,-0.9583551596445556,-8.136804986818774
0.07985358854730508,-0.28339316297177625,-1.0397232095127433,-7.873693511454066
0.07701965691758732,-0.6208254239692337,-1.118460144627284,-7.641327058310133
0.07081140267789499,-0.9381236583788788,-1.1948734152103853,-7.433286037396015
0.061430166094106196,-1.2370041769998235,-1.2692062755843454,-7.243951604534198
0.04906012432410796,-1.518730697108146,-1.3416457916296873,-7.068501279420091
0.033872817353026496,-1.7841525403953784,-1.4123308044238883,-6.902828656364296
0.016031291949072712,-2.033772859225378,-1.4813590909875312,-6.7434508173668215
-0.004306436643181068,-2.2678236150361273,-1.5487935991611994,-6.587426285407622
-0.02698467279354234,-2.486337951411745,-1.6146678620152757,-6.432289298717646
-0.05184805230765979,-2.6892164470562956,-1.678990755002452,-6.275999462891912
-0.07874021677822275,-2.876286040024982,-1.7417507496313713,-6.1169035378108
-0.10750307717847257,-3.047351232610071,-1.8029197850094794,-5.95370567626634
-0.13797658950457328,-3.202237434337893,-1.8624568417721428,-5.78544275011187
-0.1699989638479522,-3.3408263813730668,-1.9203112692732616,-5.6114620071952785
-0.20340722766168287,-3.4630836483739933,-1.9764258893452145,-5.431398994188106
-0.2380380641454228,-3.569078395221221,-2.0307398792870957,-5.245154362279313
-0.27372884809763504,-3.6589956651312763,-2.0831914229098887,-5.052868794850776
-0.3103188047489478,-3.733141749106267,-2.1337201108583965,-4.854895828878725
-0.34765022224001046,-3.791943325068775,-2.1822690691471838,-4.651772767095254
-0.3855696554906982,-3.8359412422334516,-2.2287867968181363,-4.4441901882747965
-0.42392906791303275,-3.8657799340974672,-2.2732286987008843,-4.232960760364346
-0.46258686725400744,-3.882193498263097,-2.3155583063045277,-4.018988155862686
-0.5014088022366384,-3.885989478334441,-2.3557481878631545,-3.8032368772243847
-0.5402686970199828,-3.8780313292616024,-2.3937805566353982,-3.5867037416562937
-0.5790490103125988,-3.859220453682155,-2.429647594051961,-3.3703916694438276
-0.6176412148494204,-3.8304785754815156,-2.4633515107463992,-3.1552862861273674
-0.6559460006042355,-3.792731079972174,-2.494904373607673,-2.94233570170985
-0.6938733114039572,-3.746891808153384,-2.5243277306247713,-2.732433681512608
-0.7313422294854911,-3.693849653696555,-2.5516520674398975,-2.5264062820668287
-0.7682807260224567,-3.634457181703752,-2.5769161302605657,-2.3250018976986926
-0.8046252978394942,-3.5695213721290884,-2.6001661492375527,-2.1288845534019396
-0.8403205115607851,-3.499796490730146,-2.621454994771572,-1.9386301898243008
-0.8753184764680866,-3.425979008006391,-2.6408412966698154,-1.7547256181128146
-0.9095782665481504,-3.3487044222724522,-2.6583885528509437,-1.5775697762558856
-0.943065310770875,-3.2685457964615634,-2.6741642506135026,-1.4074768936853048
-0.9757507687354906,-3.186013788399665,-2.688239019550356,-1.2446811655642758
-1.0076109066194872,-3.101557939477942,-2.7006858312059987,-1.0893425498733982
-1.0386264860142667,-3.015568984766367,-2.7115792567047325,-0.9415533259886922
-1.0687821758619303,-2.928381956242017,-2.7209947899646196,-0.8013450894476686
-1.0980659954243503,-2.8402798674215552,-2.729008240859096,-0.668695900478427
-1.1264687940985658,-2.7514977898051933,-2.7356951998638803,-0.5435373502773413
-1.1539837719966177,-2.6622271568738194,-2.7411305733666538,-0.4257613560259714
-1.1806060435653558,-2.5726201579518064,-2.7453881869269137,-0.3152265408481515
-1.206332245144874,-2.4827941104462488,-2.748540452335395,-0.21176409654567052
-1.2311601862493364,-2.3928357235840334,-2.750658093300852,-0.1151830638440314
-1.2550885434851768,-2.302805188957146,-2.7518099239392924,-0.025274996406236358
-1.2781165953747482,-2.212740052461342,-2.752062673903355,0.05818199913136256
-1.3002439958993617,-2.12265883836761,-2.7514808539120414,0.13541983419335585
-1.3214705842830379,-2.0325644093182653,-2.750126655570108,0.20667759171815553
-1.3417962283762206,-1.942447056172739,-2.748059879652926,0.272199221965255
-1.361220698937948,-1.8522873191344436,-2.7453378874332737,0.33223173288744184
-1.3797435721292926,-1.7620585468253915,-2.742015570104399,0.3870238225952487
-1.3973641575975464,-1.6717292033227968,-2.7381453318784468,0.43682489919659967
-1.4140814496307743,-1.5812649350153576,-2.7337770828864807,0.4818844329562449
-1.429894098980928,-1.4906304098412262,-2.728958238556918,0.52245158683747
-1.4448004030793402,-1.3997909413684295,-2.7237337226885434,0.5587750736985692
-1.4587983124930246,-1.3087139095661087,-2.7181459719515577,0.5911031914342553
-1.4718854515886857,-1.2173699892421976,-2.712234940037215,0.6196839909616458
-1.4840591514811077,-1.1257341961950251,-2.7060381001275986,0.6447655359901288
-1.4953164934430578,-1.0337867603014201,-2.6995904447676975,0.6665962178617133
-1.505654361046072,-0.9415138341550352,-2.6929244825890803,0.6854250933052133
-1.5150694993876224,-0.8489080455444882,-2.686070231656028,0.7015022176271182
-1.5235585798430673,-0.7559689020490367,-2.679055209479757,0.7150789505792704
-1.5311182688635576,-0.6627030563202687,-2.6719044199739646,0.7264082168087764
-1.5377452994267604,-0.5691244411707687,-2.664640337805877,0.7357447073121028
-1.543436543838468,-0.47525428433968553,-2.657282890732756,0.7433450125804728
-1.5481890866818648,-0.38112101366944134,-2.649849440606951,0.7494676820338187
-1.5520002968185593,-0.2867600643194973,-2.6423547637866127,0.7543732077981014
-1.5548678974617542,-0.1922136004765867,-2.6348110317086317,0.7583239338027044
-1.5567900334665201,-0.09753016472150017,-2.6272277923706047,0.7615838935006526
-1.557765335113735,-0.0027642687237256908,-2.619611953435598,0.7644185812142112
-1.5577929778009723,0.09202406077689398,-2.611967767623456,0.7670946631857946
-1.5568727371932034,0.18676976668695616,-2.604296820991598,0.7698796349079889
-1.5550050395263337,0.2814032631226541,-2.596598024642518,0.7730414312881115
-1.5521910068951073,0.3758509403127184,-2.588867610329637,0.776847995769263
-1.54843249749198,0.47003565981444123,-2.5810991303719444,0.7815668137951028
-1.5437321408938356,0.5638772275751969,-2.5732834622339933,0.7874644150890076
-1.5380933686180835,0.6572928329568071,-2.565408818083103,0.7948058482334376
-1.5315204402885154,0.7501974424067993,-2.557460759600769,0.803854130079557
-1.5240184658644473,0.8425041369805575,-2.549422218299973,0.814869671663323
-1.5155934244946418,0.9341243833827482,-2.54127352158334,0.8281096815960907
-1.5062521806608145,1.024968228617649,-2.532992424767379,0.8438275473487409
-1.496002498374638,1.1149444087487606,-2.5245541492938917,0.8622721944446329
-1.4848530542871505,1.2039603627178472,-2.5159314273494453,0.8836874232836128
-1.4728134506599722,1.2919221427235,-2.5070945531166093,0.9083112230904079
-1.4598942292327373,1.3787342133760414,-2.4980114408857053,0.9363750622683626
-1.4461068870989768,1.4642991327946115,-2.4886476902630217,0.9681031542057662
-1.4314638957710306,1.5485171100520574,-2.4789666587209642,1.0037116973088733
-1.41597872467051,1.6312854349505008,-2.4689295417478756,1.043408087732654
-1.399665870321005,1.7124977780569095,-2.458495460870549,1.0873901029895436
-1.3825408925404359,1.7920433612591773,-2.4476215598406537,1.1358450544145433
-1.3646204589278441,1.8698060018186682,-2.436263109296508,1.1889489064610061
-1.3459223989096574,1.9456630359801372,-2.424373620231898,1.2468653611318927
-1.326465768549856,2.01948413162755,-2.411904966620579,1.309744906672405
-1.3062709272335804,2.091130003207901,-2.398807517553855,1.3777238311277875
-1.2853596272015013,2.1604510461396136,-2.385030279242577,1.4509232036694109
-1.263755116740105,2.2272859121241613,-2.370521047205883,1.5294478298644825
-1.2414822576188635,2.2914600511257976,-2.3552265689072382,1.6133851914360702
-1.2185676571076056,2.3527842501974403,-2.3390927169928775,1.702804386619705
-1.1950398146056311,2.411053203714002,-2.3220646731266803,1.7977550940113944
-1.1709292825684912,2.466044153803984,-2.304087122186566,1.8982665908009302
-1.1462688410304513,2.5175156436872874,-2.2851044562785567,2.004346865405924
-1.1210936845935784,2.565206430030667,-2.2650609876244974,2.115981874599206
-1.0954416202932717,2.6088346030722374,-2.243901168878505,2.2331350060008193
-1.0693532742625493,2.648096964842324,-2.221569818818497,2.3557468179375682
-1.0428723046141262,2.682668715971196,-2.1980123506391216,2.4837351397111087
-1.0160456174544141,2.712203499939676,-2.1731749992420104,2.6169956257135936
-0.9889235824550173,2.7363338497955287,-2.1470050429848744,2.755402865945136
-0.9615602439570621,2.7546720759454053,-2.119451014325423,2.8988121625883303
-0.934013523197608,2.766811624327425,-2.0904628926995397,3.0470620865732325
-0.9063454069543337,2.7723289219025737,-2.0599922718338073,3.1999779286488597
-0.878622117735308,2.7707857110389638,-2.0279924925473187,3.357376155436093
-0.8509142606249184,2.761731856427033,-1.9944187309929577,3.5190699712806373
-0.8232969420606481,2.744708588604511,-1.9592280312801513,3.6848760703573205
-0.7958498561746029,2.7192521286738702,-1.922379270576578,3.854622639089622
-0.7686573348878643,2.6848976220756424,-1.8838330441856819,4.028158634796108
-0.7418083586671078,2.6411832994828175,-1.8435514578377208,4.205364319961705
-0.7153965256722796,2.5876547861646415,-1.8014978146381038,4.386162968480692
-0.6895199778106332,2.523869506587071,-1.7576361849532969,4.570533573651375
-0.6642812827447625,2.4494011918784753,-1.711930849216783,4.758524265835119
-0.6397872708259777,2.3638446137822635,-1.664345606558432,4.950265970714852
-0.6161488246881551,2.2668208692737153,-1.6148429468512833,5.145985574068687
-0.593480615995418,2.157983869561352,-1.5633830911105964,5.3460174519154116
-0.5719007772998045,2.0370292131848196,-1.5099229165914423,5.550811588594025
-0.5515304851679563,1.9037074476827676,-1.454414800705502,5.760935501503191
-0.5324934106911287,1.757845001117788,-1.3968054456904702,5.977065605593582
-0.5149149606799508,1.5993780163805078,-1.3370347896345343,6.199961162947265
-0.4989211805161457,1.4284072516566797,-1.2750351780050617,6.430410122083464
-0.48463710799957893,1.2452864809935849,-1.210731076784227,6.669130395086204
-0.4721842431896431,1.0507627213929354,-1.1440397728333649,6.916601936274299
-0.46167661597571374,0.8461938975891998,-1.0748737534706219,7.172794467720712
-0.45321467699982176,0.6338763794528492,-1.0031458087934149,7.436745019750136
-0.4468759132052933,0.41751525671241735,-0.9287783585959135,7.705936205450209
-0.4427007606381691,0.20284976311727226,-0.8517189965414114,7.9754495095011135
-0.44067226300699636,-0.0016235378711475512,-0.7719645014464003,8.23695636183189
-0.44068849838570784,-0.1840466463089845,-0.6895949378280813,8.477819157980681
-0.44252896484879767,-0.3291973451166128,-0.6048167462482745,8.680930127560423
-0.4458209382999638,-0.41982510299748843,-0.5180074449726703,8.826266069241152
-0.4500191893299387,-0.43991735777589425,-0.42974478428025875,8.894957815528713
-0.4544183629076976,-0.3794285068820521,-0.3407952061249716,8.875272765446201
-0.4582126479765181,-0.23828346981631604,-0.2520424784705096,8.767629822240327
-0.46059548267468126,-0.02688555574089685,-0.16436618024810631,8.585032114511685
-0.4608643382320902,0.237516899032079,-0.07851585910298946,8.3481793142412
-0.4584891692417694,0.5361910568706311,0.00496593403942254,8.078548294619136
-0.4531272586730631,0.8529698371773238,0.08575141698561389,7.793413566001673
-0.44459756030128983,1.1758430848427845,0.16368555264563062,7.5041694329753925
-0.43283912945286196,1.496740051753724,0.23872724697538455,7.21696095479298
-0.4178717289353247,1.810579758550934,0.31089685652331434,6.934159475261963
-0.39976593134981536,2.11428579507464,0.380238451275934,6.655785628428703
-0.378623073399069,2.406028940025986,0.446796307560221,6.380572303081886
-0.35456278399880914,2.684723886850227,0.5106020305910398,6.106664818140283
-0.3277155451303069,2.9497249220060286,0.5716686787724427,5.832049417078529
-0.29821829591024657,3.2006564781097704,0.629989172943228,5.554802314276074
-0.26621173112914887,3.437328078317514,0.6855371960859887,5.273227154684429
-0.23183845034597372,3.659698969962266,0.738269467632833,4.985924676995807
-0.19524146064635106,3.86786999456783,0.7881287144027911,4.691820963678371
-0.15656276070067277,4.0620885658306936,0.8350469240395748,4.390169611960637
-0.11594187504236583,4.242757997581985,0.8789486201591812,4.080536689485176
-0.07351429506654597,4.410445843185792,0.919753987054033,3.7627738233515506
-0.029409836634688054,4.56588809843232,0.9573817252875485,3.436983059497458
0.01624904434963515,4.709987528136429,0.9917515558825231,3.103476480709105
0.06334891963099944,4.843805246776649,1.0227863206896142,2.7627335397752972
0.11178697209876592,4.968545125951759,1.0504136560873671,2.4153594044937345
0.16147242335828352,5.085530639220174,1.0745672501323045,2.0620482227425647
0.21232772975048525,5.196173351056561,1.09518773235973,1.7035561117238742
0.26428946326105085,5.301931328078738,1.112223293476969,1.3406899665796561
0.31730877654183826,5.404254177376766,1.1256301931427655,0.97432006252674
0.3713513183156059,5.504509063368744,1.1353733937680328,0.6054271263012273
0.42639640894929337,5.603878839660284,1.141427665031045,0.235198241344999
0.48243519734589624,5.703219520430859,1.143779647444495,-0.13480956946984107
0.5394673925502048,5.802860578107212,1.1424315517497965,-0.5024151964391033
0.597495998331277,5.902330534982919,1.1374073997854055,-0.8644458720711875
0.6565193036811061,5.999997944427493,1.1287629410646935,-1.216245870145195
0.716519283125381,6.092645614072953,1.1166004823632416,-1.5510925158180304
0.7774457392661106,6.175061020257713,1.1010895572050614,-1.8596448482185834
0.8391963494686877,6.239841607074261,1.0824931087228755,-2.1297155881826018
0.9015947655394303,6.277755807726694,1.0611959528410495,-2.346857249807473
0.9643723236166972,6.279047442927036,1.0377273803429747,-2.496313024954457
1.0271627980459677,6.235788692976673,1.0127642500934302,-2.5664686167646313
1.0895206849757344,6.144642138341525,0.9870995639257839,-2.552866102228806
1.1509671063591496,6.008610303670392,0.9615709029034959,-2.4607181911061407
1.2110532093958535,5.8365083231974255,0.9369637209924345,-2.3040922926282916
1.2694182926278277,5.64031455183431,0.9139227980661516,-2.101983415541952
1.3258214381461708,5.431961138739462,0.8929029639107321,-1.87353696519103
1.3801410495335655,5.22111962411081,0.8741675942588218,-1.6346933990534547
1.4323522457746736,5.014449804540447,0.8578206602682873,-1.3969670933587406
1.482496743820078,4.81588219075697,0.8438509893346999,-1.167762358353054
1.5306555657276477,4.6273132057730955,0.8321733657511694,-0.9513321717118424
1.5769286977853787,4.449306139604823,0.822660044034051,-0.7497804635496974
1.6214217591814268,4.281636730231683,0.815162239398554,-0.5638609878773617
1.6642381264837436,4.123664891329617,0.8095236295197804,-0.3935348677620054
