th1 (rad),w1 (rad/s),th2 (rad),w2 (rad/s),a1 (rad/s^2),a2 (rad/s^2)
2.8127269394194476,-0.0627376415408759,2.354949873031261,-0.2523440018505849,-0.11379979933793066,-6.834443654760633
2.812099563004039,-0.06387563953425521,2.3524264330127553,-0.3206884383981913,-0.12984504280180936,-6.8375315362529
2.811460806608696,-0.06517408996227331,2.3492195486287732,-0.3890637537607203,-0.14793970643839177,-6.843502902946059
2.810809065709073,-0.06665348702665723,2.345328911091166,-0.45749878279018086,-0.16830112042864034,-6.852141514909737
2.8101425308388066,-0.06833649823094363,2.340753923263264,-0.5260201979392782,-0.19119463164660142,-6.863185482056601
2.8094591658564974,-0.07024844454740965,2.3354937212838713,-0.5946520527598442,-0.2169314865244136,-6.876330040498607
2.8087566814110234,-0.07241775941265378,2.3295472007562728,-0.6634153531648304,-0.2458663199957019,-6.891230841544962
2.808032503816897,-0.07487642261261081,2.3229130472246244,-0.73232766158028,-0.27839421182558877,-6.907507783649145
2.807283739590771,-0.0776603647308667,2.3155897706088218,-0.8014027394167714,-0.3149472738578385,-6.9247494113928285
2.806507135943462,-0.08080983746944508,2.307575743214654,-0.8706502335306997,-0.35599073827257477,-6.942517893633041
2.805699037568768,-0.08436974485217083,2.2988692408793474,-0.9400754124670301,-0.40201852803168686,-6.960354575047317
2.804855340120246,-0.08838993013248769,2.2894684867546773,-1.0096789582175032,-0.4535483062424509,-6.977786071624524
2.803971440818921,-0.0929254131949122,2.279371697172502,-1.0794568189337483,-0.511116020854615,-6.9943308516941745
2.803042186686972,-0.09803657340345835,2.2685771289831647,-1.14940012745069,-0.5752699842480283,-7.0095062108455615
2.8020618209529378,-0.10378927324593863,2.2570831277086576,-1.2194951895591455,-0.6465645528258088,-7.022835513027724
2.8010239282204785,-0.11025491877419671,2.2448881758130663,-1.2897235446894226,-0.7255534982914503,-7.033855533191843
2.7999213790327366,-0.11751045375711122,2.231990940366172,-1.360062100021341,-0.8127831881114892,-7.042123701413865
2.7987462744951657,-0.1256382856382261,2.218390319365959,-1.4304833370354797,-0.908785715747869,-7.047225017198902
2.7974898916387834,-0.1347261427957048,2.2040854859956043,-1.5009555872074687,-1.0140721394576335,-7.048778378429672
2.7961426302108263,-0.14486686419028114,2.1890759301235296,-1.5714433709917655,-1.1291259997160745,-7.046442054881761
2.7946939615689237,-0.15615812418744188,2.173361496413612,-1.641907791540583,-1.254397287781206,-7.039918033712226
2.7931323803270494,-0.16870209706525394,2.1569424184982062,-1.7123069718777053,-1.3902970301970332,-7.028954975498801
2.791445359356397,-0.18260506736722426,2.139819348779429,-1.7825965216326933,-1.537192635401352,-7.013349545013029
2.789619308682725,-0.19797699372123778,2.121993383563102,-1.8527300170828236,-1.6954041191423666,-6.992945920597442
2.7876395387455126,-0.21493103491266144,2.1034660833922736,-1.922659476288798,-1.8652012860960911,-6.967633338238713
2.785490228396386,-0.23358304777362235,2.0842394886293856,-1.9923358096711852,-2.0468018977831055,-6.937341588490608
2.7831543979186497,-0.2540510667514534,2.064316130532674,-2.061709225556091,-2.2403708042636667,-6.902034452639823
2.780613887251135,-0.2764547747940901,2.0436990382771127,-2.1307295700824893,-2.446019962382985,-6.861701134601378
2.7778493395031942,-0.3009149744179199,2.022391742576288,-2.199346581428503,-2.6638092100877384,-6.816345812404498
2.774840189759015,-0.3275530665187973,2.0003982767620028,-2.267510039552548,-2.89374761807199,-6.765975493417621
2.7715646590938268,-0.3564905426995172,1.9777231763664773,-2.3351697944867245,-3.1357951999323643,-6.7105864069529195
2.7679997536668317,-0.38784849469884086,1.95437147842161,-2.4022756585562535,-3.3898647327037525,-6.650149203917824
2.764121268719843,-0.4217471420258784,1.9303487218360473,-2.468777150595432,-3.655823422879646,-6.584593254384783
2.759903797299584,-0.4583053762546748,1.905660950330093,-2.5346230831392798,-3.933494149658698,-6.513790340399434
2.7553207435370375,-0.49764031775126183,1.8803147194987002,-2.599760986543274,-4.2226560271703,-6.4375380345002435
2.7503443403595247,-0.5398668780229648,1.8543171096332676,-2.6641363668882763,-4.523044050010042,-6.355543036944599
2.7449456715792953,-0.5850973185230652,1.8276757459643849,-2.727691797257722,-4.834347620179363,-6.2674047201022045
2.7390946983940645,-0.6334407947248588,1.8003988279918077,-2.7903658444587442,-5.156207796761584,-6.172599101009016
2.732760290446816,-0.6850028726924746,1.7724951695472202,-2.8520918354688343,-5.488213160598337,-6.070463436958712
2.725910261719891,-0.7398850042984579,1.7439742511925318,-2.912796469838421,-5.829894243241426,-5.960181618329901
2.7185114116769062,-0.7981839467308722,1.7148462864941476,-2.97239828602172,-6.180716531277527,-5.840770521187567
2.7105295722095977,-0.8599911120436475,1.6851223036339305,-3.030805991233596,-6.5400721229515595,-5.711067482395806
2.701929661089161,-0.9253918332731631,1.6548142437215945,-3.0879166660575543,-6.907270183535278,-5.569719073975539
2.692675742756429,-0.9944645351085158,1.623935077061019,-3.1436138567973098,-7.281526419235975,-5.4151713821749325
2.682731097405344,-1.0672797993008756,1.592498938493046,-3.197765570619059,-7.661951867078092,-5.245662040082521
2.6720582994123356,-1.1438993179716566,1.5605212827868553,-3.2502221910198843,-8.047541380729953,-5.0592143194141075
2.660619306232619,-1.2243747317789562,1.5280190608766564,-3.3008143342140253,-8.43716228022289,-4.85363365504878
2.6483755589148292,-1.308746354581185,1.495010917534516,-3.349350670764513,-8.829543727118038,-4.626507051529739
2.635288095369017,-1.3970417918523654,1.461517410826871,-3.3956157412798107,-9.223267485501776,-4.3752058994167555
2.6213176774504934,-1.4892744667073832,1.427561253414073,-3.439367800273978,-9.616760831925818,-4.09689280510432
2.6064249327834195,-1.5854420750266414,1.393167575411333,-3.480336728325021,-10.008292481587821,-3.7885331031169085
2.5905705120331532,-1.6855249998425195,1.358364208128083,-3.51822205935619,-10.395972499821974,-3.4469117660766515
2.573715262034728,-1.7894847248407393,1.323181987534521,-3.5526911770169565,-10.777757261932592,-3.0686564440840596
2.5558204147863206,-1.8972622974600653,1.2876550757643515,-3.583377741457797,-11.15146060352462,-2.6502673402431776
2.53684779181172,-2.0087769034953116,1.2518212983497734,-3.609880414860229,-11.51477235915773,-2.1881545492755947
2.516760022776767,-2.123924627086889,1.215722494201171,-3.6317619603529847,-11.86528550942522,-1.6786833374491716
2.4955207765058978,-2.242577482181141,1.1794048745976413,-3.6485487937274765,-12.20053313458361,-1.118227609923348
2.4730950016840865,-2.3645828135269773,1.1429193866603666,-3.65973106982671,-12.518036295579615,-0.5032314821782464
2.4494491735488166,-2.4897631764827732,1.1063220759620995,-3.6647633846484924,-12.815363820466882,0.16972156670004215
2.424551541783989,-2.617916814687442,1.0696744421156146,-3.663066168981492,-13.090204757567916,0.9038330383689482
2.3983723736371143,-2.7488188622631213,1.0330437804257997,-3.6540278385978024,-13.340453961742732,1.7020090162537258
2.370884185014483,-2.8822234018805486,0.9965035020398216,-3.637007748435265,-13.564310907640385,2.566777581099958
2.3420619509956775,-3.0178665109569525,0.960133424555469,-3.611339972624265,-13.760391382104645,3.5002075049984773
2.311883285886108,-3.1554704247779988,0.9240200248292264,-3.5763378975742803,-13.92785121464972,4.503832678288324
2.280328581638328,-3.294748936924496,0.8882566458534836,-3.531299570791397,-14.066520689016293,5.578587763072327
2.2473810922690833,-3.435414143814659,0.8529436501455696,-3.4755136931606736,-14.177047781809257,6.72476160600852
2.213026950830937,-3.5771846216327514,0.8181885132139629,-3.4082660771005884,-14.261047950944326,7.941975918116333
2.177255104614609,-3.7197951011421946,0.784105852442957,-3.328846317919425,-14.321257914576758,9.229197563425616
2.140057153603187,-3.863007680287962,0.7508173892637628,-3.236554342285169,-14.36169079782088,10.584793401978278
2.1014270768003076,-4.00662458826617,0.7184518458409112,-3.1307064082653864,-14.38779026152964,12.006636905994247
2.061360830917646,-4.1505024908814665,0.6871447817582573,-3.0106400392054438,-14.40658183980778,13.49227560088447
2.0198558060088314,-4.294568309279544,0.6570383813662029,-2.875717283196599,-14.42682075102162,15.039167650583716
1.976910122916036,-4.4388365167897605,0.6282812085342369,-2.725325606690762,-14.459136905459431,16.644994453054082
1.9325217577481384,-4.583427885844355,0.6010279524673292,-2.558875662160221,-14.516179598905959,18.30805370445246
1.8866874788896948,-4.728589681833414,0.575439195845727,-2.375795125115696,-14.61276614731118,20.02773362226627
1.8394015820713607,-4.874717343306526,0.55168124459457,-2.1755177888930333,-14.766039825290271,21.805063103352953
1.7906544086382954,-5.022377741559429,0.5299260667056397,-1.9574671578595038,-14.995641631221002,23.64332296802817
1.7404306312227011,-5.172334157871639,0.5103513951270446,-1.7210339281792222,-15.323895171932252,25.548686993239333
1.6887072896439848,-5.3255731095909615,0.4931410558452524,-1.4655470582468288,-15.775989756261234,27.5308320431622
1.6354515585480751,-5.483333007153574,0.4784855852627841,-1.1902387378152068,-16.380114992692153,29.603402367929604
1.5806182284765393,-5.647134157080496,0.46658319788463204,-0.8942047141359108,-17.16743453617929,31.784111187543928
1.5241468869057344,-5.818808502442288,0.45764115074327294,-0.5763636022604716,-18.171656352063426,34.0940694411097
1.4659588018813114,-6.000525065962923,0.4518775147206682,-0.23542290784937453,-19.4277040079546,36.55556506497565
1.4059535512216823,-6.194802106042469,0.4495232856421745,0.130132742800382,-20.9685107499782,39.18682529520306
1.3440055301612577,-6.404487213542251,0.4508246130701783,0.5220009957524125,-22.818054678179536,41.99101284633821
1.2799606580258351,-6.632667760324046,0.45604462302770243,0.9419111242157947,-24.977120490827907,44.9344086078678
1.2136339804225946,-6.882438965232325,0.4654637342698604,1.3912552102944726,-27.395524981491693,47.904901562456864
1.1448095907702713,-7.156394215047242,0.4793762863728051,1.8703042259190412,-29.92063573994422,50.63654752515118
1.073245648619799,-7.455600572446684,0.4980793286319955,2.376669701170553,-32.20901557418602,52.58214869122438
0.9986896428953321,-7.777690728188545,0.521846025643701,2.902491188082797,-33.59561016366294,52.727502623062385
0.9209127356134467,-8.113646829825175,0.550870937524529,3.4297662143134207,-32.961902477839516,49.40934212287184
0.839776267315195,-8.44326585460357,0.5851685996676632,3.923859635542139,-28.782067938732055,40.39645665237107
0.7553436087691592,-8.73108653399089,0.6244071960230846,4.32782420206585,-19.733257447305885,23.788132288661917
0.6680327434292502,-8.928419108463949,0.6676854380437431,4.565705524952469,-6.1081373149535265,0.06795578357421588
0.5787485523446108,-8.989500481613485,0.7133424932932678,4.566385082788211,9.015570855485693,-26.190686807198297
0.4888535475284759,-8.899344773058628,0.75900634412115,4.304478214716228,21.10662015177864,-48.22180316131996
0.3998600997978896,-8.688278571540842,0.8020511262683123,3.8222601831030287,27.540998636176873,-61.935429936977556
0.3129773140824812,-8.412868585179073,0.8402737280993426,3.202905883733253,28.89568345970062,-67.88467486848602
0.22884862823069047,-8.123911750582067,0.8723027869366752,2.524059135048393,27.249595705995578,-68.90168622274538
0.14760951072486977,-7.851415793522111,0.8975433782871591,1.8350422728209392,24.419292869188375,-67.54649520849355
0.06909535278964866,-7.607222864830228,0.9158938010153685,1.1595773207360036,21.469728055928925,-65.34765463039297
-0.006976875858653614,-7.392525584270938,0.9274895742227286,0.5061007744320739,18.897447540458113,-63.0244698806131
-0.080902131701363,-7.203551108866357,0.9325505819670493,-0.12414392437405708,16.88926000247718,-60.84219765805779
-0.15293764279002658,-7.034658508841585,0.9313091427233088,-0.732565900954635,15.488455907569575,-58.849204206126394
-0.22328422787844243,-6.879773949765889,0.9239834837137624,-1.3210579430158989,14.678999015197506,-57.00256330447173
-0.2920819673761013,-6.7329839596139145,0.9107729042836034,-1.8910835760606162,14.423035820045161,-55.22860324942756
-0.35941180697224046,-6.588753601413463,0.8918620685229972,-2.4433696085548915,14.67566880760318,-53.45101234084027
-0.42529934298637506,-6.441996913337431,0.8674283724374483,-2.977879731963294,15.389577415633562,-51.6037980923445
-0.4897193121197494,-6.288101139181095,0.8376495751178153,-3.493917712886739,16.515537334702255,-49.637328865068
-0.5526003235115604,-6.122945765834073,0.8027103979889479,-3.990291001537419,18.001659407767008,-47.52112816016871
-0.6138297811699012,-5.942929171756403,0.7628074879735738,-4.465502283139106,19.79265150137922,-45.24495311191947
-0.6732590728874652,-5.745002656742611,0.7181524651421827,-4.9179518142583,21.829690185643404,-42.818737952746865
-0.7307090994548914,-5.526705754886176,0.6689729469995996,-5.346139193785769,24.05112959886123,-40.27160157973681
-0.7859761570037531,-5.2861944588975645,0.6155115550617419,-5.7488552095831364,26.394070734638664,-37.65000860018036
-0.8388381015927288,-5.022253751551178,0.5580230029659106,-6.12535529558494,28.796679806349434,-35.015190741861616
-0.8890606391082405,-4.7342869534876835,0.4967694500100612,-6.4755072030035565,31.20104729719945,-32.440005384323996
-0.9364035086431174,-4.422276480515689,0.4320143779800256,-6.799907256846796,33.55631186039262,-30.005486820195976
-0.9806262734482742,-4.086713361911762,0.3640153054115577,-7.099962125048756,35.821736572617034,-27.797404686029523
-1.0214934070673918,-3.728495996185592,0.29301568416107016,-7.3779361719090515,37.969420326489626,-25.90316057860993
-1.0587783670292477,-3.3488017929206957,0.21923632244197966,-7.636967777695151,39.986348169447226,-24.409308746815906
-1.0922663849584546,-2.9489383112262235,0.14286664466502813,-7.8810608651633105,41.87551022398217,-23.399858501066756
-1.1217557680707169,-2.5301832089864016,0.06405603601339502,-8.115059450173979,43.65580485769647,-22.955270624535824
-1.1470576001605808,-2.093625160409437,-0.017094558488344763,-8.344612156419338,45.36030572257334,-23.15162735496951
-1.167993851764675,-1.640022103183704,-0.10054068005253815,-8.576128429969033,47.03206725810838,-24.058681015820166
-1.184394072796512,-1.16970143060262,-0.18630196435222848,-8.816715240127236,48.71570478974138,-25.734042887917692
-1.1960910871025383,-0.6825443827052062,-0.27446911675350083,-9.074055669006412,50.441040564887956,-28.208016930723076
-1.2029165309295904,-0.1781339770563266,-0.365209673443565,-9.356135838313643,52.191378273912974,-31.44839146071494
-1.2046978707001537,0.3437798056828032,-0.4587710318267014,-9.670619752920793,53.84253640675259,-35.285457155562284
-1.2012600726433256,0.8822051697503291,-0.5554772293559094,-10.023474324476416,55.05017607461452,-39.265032775307375
-1.1924380209458223,1.4327069304964744,-0.6557119726006735,-10.41612465222949,55.06124136487545,-42.39321233416304
-1.1781109516408577,1.9833193441452288,-0.7598732191229683,-10.84005677557112,52.46956569909593,-42.794096356864664
-1.1582777581994055,2.5080150011361884,-0.8682737868786795,-11.267997739139767,45.12919579287482,-37.56392350719638
-1.1331976081880435,2.9593069590649366,-0.9809537642700772,-11.64363697421173,30.866801944933332,-23.693827715516647
-1.103604538597394,3.2679749785142698,-1.0973901340121945,-11.880575251366897,9.720700495639507,-1.0646791878921584
-1.0709247888122513,3.3651819834706647,-1.2161958865258635,-11.891222043245818,-13.69605215596966,24.38141843222641
-1.0372729689775446,3.228221461910968,-1.3351081069583217,-11.647407858923554,-32.194885210117185,43.364719285178005
-1.0049907543584349,2.9062726098097964,-1.4515821855475572,-11.213760666071774,-41.99699872277958,51.256521203125665
-0.9759280282603369,2.4863026225820004,-1.563719792208275,-10.701195454040517,-44.57078165049419,50.31800454695348
-0.9510650020345168,2.0405948060770585,-1.6707317467486802,-10.198015408570983,-43.2161055605872,44.9953666482378
-0.9306590539737463,1.6084337504711863,-1.7727119008343901,-9.748061742088606,-40.377460227298926,38.41955623247913
-0.9145747164690344,1.204659148198197,-1.870192518255276,-9.363866179763814,-37.293327813335,32.07134056937745
-0.9025281249870525,0.831725870064847,-1.9638311800529142,-9.04315277407004,-34.45745721677531,26.462773192712604
-0.894210866286404,0.4871512978970939,-2.0542627077936144,-8.778525042142913,-32.01285893023371,21.6768669610263
-0.8893393533074331,0.16702270859475676,-2.1420479582150436,-8.56175637253265,-29.960547566159505,17.640685888631964
-0.8876691262214855,-0.1325827670668383,-2.22766552194037,-8.38534951364633,-28.252740824171916,14.24080248172688
-0.8889949538921539,-0.4151101753085575,-2.3115190170768334,-8.24294148882906,-26.830754988984737,11.366336217013915
-0.8931460556452394,-0.6834177251984048,-2.393948431965124,-8.129278126658921,-25.638997351561173,8.92217500807852
-0.8999802328972235,-0.9398076987140165,-2.475241213231713,-8.040056376578136,-24.62919916922604,6.8308652238890115
-0.9093783098843636,-1.1860996904062768,-2.5556417769974944,-7.971747724339245,-23.760900309243407,5.0306831570530175
-0.9212393067884264,-1.4237086934987109,-2.635359254240887,-7.9214408927687145,-23.000657978875587,3.4727883425256207
-0.9354763937234135,-1.6537152732874667,-2.714573663168574,-7.886713009343459,-22.32095879876559,2.118493078599597
-0.9520135464562882,-1.8769248612751226,-2.7934407932620084,-7.865528078557463,-21.6991937355738,0.9369524785314427
-0.9707827950690394,-2.0939167986308607,-2.872096074047583,-7.856158553772149,-21.116803273725036,-0.09669049291307345
-0.991721963055348,-2.305084831368111,-2.9506576595853047,-7.8571254587012795,-20.558601723967747,-1.002757888842467
-1.014772811369029,-2.5106708486077887,-3.0292289141723177,-7.867153037589704,-20.01225463272638,-1.7981582154528242
-1.039879519855107,-2.7107933949350524,-3.1079004445482146,-7.885134619744232,-19.4678739962204,-2.497240738126918
-1.0669874538044575,-2.9054721348972565,-3.186751790745657,-7.910107027125501,-18.91769661081637,-3.112434336348874
-1.09604217515343,-3.0946491010054205,-3.265852861016912,-7.94123137048899,-18.355814986324418,-3.6547103048328786
-1.1269886661634843,-3.2782072508686646,-3.3452651747218023,-7.9777784735373185,-17.77793534161558,-4.133898670430288
-1.159770738672171,-3.4559866042848206,-3.4250429594571754,-8.019117460241622,-17.181142441697908,-4.558880561263462
-1.194330604715019,-3.6277980287018,-3.5052341340595916,-8.064706265854257,-16.56365618466065,-4.9376746144505885
-1.230608585002037,-3.7934345905484066,-3.5858811967181343,-8.114083011998764,-15.924569850395129,-5.277432816260476
-1.2685429309075211,-3.952680289052358,-3.667022026838122,-8.166857340161368,-15.263564736576406,-5.584359968541141
-1.3080697337980447,-4.105315936418122,-3.748690600239736,-8.22270093984678,-14.580600448642105,-5.863570640314386
-1.349122893162226,-4.251121940904543,-3.830917609638204,-8.281336646249924,-13.875584269052016,-6.118897550590796
-1.3916341125712712,-4.389877783595063,-3.913730976100703,-8.342525621755833,-13.148026706859008,-6.352665518550484
-1.4355328904072218,-4.521358050663653,-3.9971562323182614,-8.406052276941338,-12.396693478227217,-6.5654452484119545
-1.4807464709138582,-4.645324985445925,-4.081216755087675,-8.471706729425458,-11.619266845101544,-6.755801306309247
-1.5271997207683174,-4.761517653896941,-4.1659338223819296,-8.53926474248855,-10.812031613189356,-6.920048895764086
-1.5748148973072869,-4.869637970028834,-4.251326469806815,-8.608465231446191,-9.969603442441231,-7.052034807574816
-1.6235112770075752,-4.969334004453247,-4.337411122121277,-8.678985579521939,-9.08471980295161,-7.142959677331444
-1.6732046170521078,-5.060181202482763,-4.424200977916496,-8.750415176295252,-8.148117255646783,-7.1812619178906285
