th1 (rad),w1 (rad/s),th2 (rad),w2 (rad/s),a1 (rad/s^2),a2 (rad/s^2)
0.03786757069822632,-2.368630017415679,1.7597740478733699,-1.1264691716632977,-0.895892323108191,-15.306867471983795
0.014181270524069527,-2.377588940646761,1.7485093561567369,-1.2795378463831357,-0.5781416298573294,-15.317289480691935
-0.009594618882398084,-2.3833703569453344,1.7357139776929056,-1.432710741190055,-0.22348668158499524,-15.30001168122385
-0.03342832245185143,-2.3856052237611842,1.7213868702810051,-1.5857108580022936,0.16800229294571722,-15.253373610249877
-0.05728437468946327,-2.383925200831727,1.7055297617009821,-1.7382445941047924,0.5959575028139069,-15.176102322842464
-0.08112362669778053,-2.3779656258035877,1.6881473157599343,-1.890005617333217,1.0596901786911994,-15.067364560218268
-0.10490328295581641,-2.367368724016676,1.6692472595866021,-2.0406792629353996,1.558172660954542,-14.92681658110358
-0.1285769701959832,-2.3517869974071304,1.648840466957248,-2.1899474287464353,2.0900271665056986,-14.754650339444193
-0.15209484017005448,-2.3308867257420736,1.6269409926697838,-2.337493932140877,2.6535223999201736,-14.551634695085657
-0.17540370742747521,-2.3043515017428717,1.6035660533483749,-2.483010279091734,3.2465791349771904,-14.319150386988145
-0.19844722244490393,-2.2718857103930996,1.5787359505574576,-2.6262017829616155,3.866785815756414,-14.059217587709414
-0.22116607954883494,-2.2332178522355353,1.5524739327278414,-2.7667939588387096,4.511425104942683,-13.774515003008789
-0.2434982580711903,-2.1881036011861084,1.5248059931394542,-2.9045391088687973,5.177512133421545,-13.46838969331243
-0.2653792940830514,-2.136328479851893,1.4957606020507663,-3.0392230058019214,5.861844973999381,-13.144857087112726
-0.28674257888157034,-2.0777100301118994,1.465368371992747,-3.1706715766730484,6.561067571225106,-12.808591041629013
-0.30751967918268935,-2.0120993543996484,1.4336616562260165,-3.298757487089339,7.2717450129723655,-12.464904290803617
-0.32764067272668584,-1.9393819042699247,1.400674081355123,-3.423406529997375,7.990450639927099,-12.119720205641183
-0.3470344917693851,-1.8594773978706538,1.3664400160551493,-3.544603732053787,8.713864078046534,-11.779537468111519
-0.3656292657480916,-1.7723387570901885,1.3309939787346114,-3.662399106734902,9.438878877265683,-11.4513900068976
-0.3833526533189935,-1.6779499683175316,1.2943699876672625,-3.776913006803878,10.162718085247969,-11.142805328542334
-0.4001321530021688,-1.576322787465052,1.2566008575992238,-3.888341060089301,10.883055818673032,-10.861765156833362
-0.4158953808768193,-1.4674922292783217,1.2177174469983307,-3.996958711657635,11.598142753355564,-10.616673012354351
-0.43057030316960254,-1.3515108017447661,1.1777478598817543,-4.103125441781178,12.30693346204818,-10.416333959997761
-0.4440854111870502,-1.2284414671242843,1.1367166054639426,-4.2072887813811555,13.009213683319004,-10.269952151612271
-0.45636982585829305,-1.0983493302910943,1.0946437176501311,-4.3099883028972785,13.70572586325148,-10.18715190254321
-0.467353319161204,-0.9612920716585794,1.0515438346211583,-4.411859821922711,14.398291567149931,-10.178027735244994
-0.4769662398777898,-0.8173091559870801,1.0074252364019312,-4.513640099275161,15.08992940676593,-10.253227891306969
-0.4851393314376606,-0.6664098619194208,0.9622888354091795,-4.616172378188231,15.784966612103233,-10.424073887520576
-0.4918034300568548,-0.5085601957983884,0.9161271116272972,-4.720413117063436,16.48914068669519,-10.702715103186625
-0.4968890320148387,-0.3436687889314365,0.8689229804566628,-4.827440268095303,17.209683686897186,-11.102310910893502
-0.5003257199041531,-0.17157195206246462,0.8206485777757098,-4.938463377204237,17.955373786533357,-11.637221273801265
-0.5020414394247777,0.007981785802868957,0.7712639440036674,-5.0548355899422495,18.73652385875759,-12.32316600440363
-0.5019616215667491,0.19534702439044485,0.7207155881042449,-5.178067249986285,19.564849472252035,-13.177275794595348
-0.5000081513228446,0.3909955191129652,0.668934915604382,-5.309840007932239,20.453109596586657,-14.217891839887505
-0.49609819613171496,0.5955266150788318,0.6158365155250596,-5.452018926331114,21.414326163100785,-15.46385278923892
-0.4901429299809266,0.8096698767098396,0.5613163262617484,-5.6066574542235035,22.46023560732865,-16.93279885480258
-0.4820462312138282,1.0342722327831262,0.5052497517195134,-5.775985442771529,23.598360803616185,-18.637658383019655
-0.47170350888599694,1.270255840819288,0.44748989729179806,-5.962362026601726,24.82664569138283,-20.579862185024076
-0.45900095047780404,1.5185222977331163,0.3878662770257808,-6.168160648451966,26.12388010361094,-22.73682732597312
-0.4438157275004729,1.7797610987692258,0.32618467054126116,-6.395528921711698,27.433112804710905,-25.039786472883247
-0.4260181165127806,2.054092226816335,0.2622293813241442,-6.64592678644053,28.634131312129547,-27.336395915760786
-0.40547719424461726,2.34043353993763,0.19577011345973888,-6.919290745598138,29.501063141763474,-29.3323362130091
-0.38207285884524095,2.6354441713552648,0.1265772060037575,-7.212614107728229,29.646020652361507,-30.51254323636233
-0.3557184171316883,2.93190437787888,0.054451064926475196,-7.517739540091853,28.468457908243764,-30.0682557962012
-0.3263993733528995,3.2165889569613175,-0.020726330474443333,-7.818422098053865,25.175555298705245,-26.919037711521153
-0.2942334837832863,3.46834450994837,-0.09891055145498198,-8.087612475169076,19.004132112487504,-20.009734486278095
-0.2595500386838026,3.658385831073245,-0.17978667620667274,-8.287709820031857,9.75729114875979,-9.040239956176167
-0.22296618037307014,3.7559587425608427,-0.2626637744069913,-8.37811221959362,-1.551329043507477,4.654590730705241
-0.1854065929474617,3.7404454521257677,-0.3464448966029275,-8.331566312286567,-12.689702380520082,18.096514413530294
-0.14800213842620402,3.6135484283205668,-0.4297605597257932,-8.150601168151264,-21.340749761917962,28.213081489807756
-0.11186665414299835,3.400140930701387,-0.5112665714073058,-7.868470353253186,-26.447807887639424,33.65684481349881
-0.07786524483598448,3.1356628518249927,-0.5899512749398377,-7.531901905118198,-28.405112439888253,35.031201814011126
-0.04650861631773455,2.85161172742611,-0.6652702939910197,-7.181589886978086,-28.264548440730156,33.79008812862782
-0.01799249904347345,2.5689662430188087,-0.7370861928608006,-6.843689005691808,-27.007143391499667,31.254331044132407
0.007697163386714639,2.298894809103812,-0.8055230829177187,-6.531145695250484,-25.28821535154262,28.284317490361254
0.030686111477752763,2.046012655588386,-0.8708345398702235,-6.248302520346872,-23.47105480787378,25.340652575992028
0.05114623803363662,1.8113021075096483,-0.9333175650736922,-5.994895994586952,-21.730236258453033,22.6316612807092
0.0692592591087331,1.593999744925118,-0.9932665250195618,-5.76857938177986,-20.13571106260969,20.229606274168926
0.08519925655798427,1.392642634299021,-1.0509523188373604,-5.56628331903817,-18.704717989707515,18.140846194170262
0.09912568290097448,1.2055954544019458,-1.106615152027742,-5.3848748570964675,-17.43018315490645,16.343324958306226
0.11118163744499394,1.0312936228528813,-1.1604639005987067,-5.221441607513405,-16.295245203758714,14.805167901324833
0.12149457367352276,0.8683411708152942,-1.2126783166738409,-5.073389928500157,-15.280311413380202,13.493308976969509
0.1301779853816757,0.7155380566814922,-1.2634122159588423,-4.938456838730462,-14.366282379326796,12.37712463706895
0.1373333659484906,0.5718752328882242,-1.312796784346147,-4.814685592359773,-13.535874850619072,11.429667550559213
0.14305211827737285,0.43651648438203344,-1.3609436402697448,-4.70038891685418,-12.774031869275001,10.627803571783687
0.14741728312119318,0.30877616568928345,-1.4079475294382866,-4.594110881136343,-12.067916675476829,9.951890450246038
0.15050504477808602,0.18809699893451515,-1.45388863824965,-4.494591976633883,-11.406734678501019,9.385302423982553
0.15238601476743116,0.07402965214950495,-1.498834558015989,-4.400738952394057,-10.781500362133047,8.913939388755491
0.1531263112889262,-0.033785351471825514,-1.5428419475399295,-4.311599558506503,-10.184802255659774,8.525778758817522
0.15278845777420794,-0.13563337402842324,-1.5859579431249946,-4.226341770918327,-9.610587677500774,8.210489803176118
0.1514321240339237,-0.231739250803431,-1.6282213608341778,-4.144236872886566,-9.053973867048686,7.959112749117049
0.1491147315258894,-0.32227898947391787,-1.6696637295630434,-4.064645745395396,-8.511085242619844,7.76379759400765
0.1458919416311502,-0.4073898419001163,-1.7103101870169974,-3.987007769455319,-7.978913734401216,7.617595030947765
0.14181804321214905,-0.48717897924412845,-1.7501802647115505,-3.9108318191458418,-7.455198344586153,7.514291541015352
0.13694625341970776,-0.56173096268999,-1.789288582903009,-3.8356889037356883,-6.938320219011529,7.448281252956273
0.13132894379280785,-0.6311141648801053,-1.8276454719403659,-3.7612060912061254,-6.42721003874031,7.41446801507767
0.1250178021440068,-0.6953862652675085,-1.865257532852427,-3.687061411055349,-5.921265188043137,7.408191995352258
0.1180639394913317,-0.7545989171479398,-1.9021281469629805,-3.612979491101826,-5.420274795830141,7.425175920553298
0.1105179503198523,-0.8088016651062412,-1.9382579418739987,-3.538727731896293,-4.924351319056422,7.4614867574095625
0.10242993366878989,-0.8580451782968054,-1.9736452191929617,-3.4641128643221974,-4.433867812727574,7.51350923560684
0.09384948188582183,-0.9023838564240811,-2.0082863478361834,-3.388977771966129,-3.94940040399385,7.577928132777337
0.08482564332158102,-0.9418778604640197,-2.042176125555845,-3.3131984906383556,-3.47167575949188,7.651716705065234
0.07540686471694082,-0.9765946180589384,-2.0753081104622284,-3.236681323587703,-3.001523513366061,7.732129069226019
0.06564091853635143,-1.006609853192599,-2.1076749236981054,-3.159360032895443,-2.539833719649921,7.816694733860861
0.055574820004425436,-1.0320081903890983,-2.13926852402706,-3.081193085556835,-2.0875194205500107,7.903213843326763
0.04525473810053445,-1.0528833845945984,-2.1700804548826285,-3.002160947123567,-1.6454843965500012,7.989752038751189
0.03472590425458846,-1.0693382285600985,-2.2001020643538642,-2.922263426736055,-1.2145961003833243,8.074634154049367
0.024032521968987478,-1.0814841895639318,-2.229324698621225,-2.8415170851955613,-0.7956636895217855,8.156436246928168
0.01321768007334816,-1.0894408264591495,-2.2577398694731805,-2.7599527227262795,-0.3894209742891823,8.233975711295123
0.002323271808756664,-1.0933350362020413,-2.285339396700443,-2.6776129656133283,0.003485997538835119,8.306299424746898
-0.00861007855326375,-1.093300176226653,-2.3121155263565765,-2.5945499713658595,0.38250708472372835,8.372670050815922
-0.01954308031553028,-1.0894751053794156,-2.338061026070235,-2.5108232708577005,0.7471923594421584,8.432550740167995
-0.030437831369324438,-1.082003181784994,-2.3631692587788122,-2.4264977634560205,1.0971930600698152,8.48558855962761
-0.04125786318717438,-1.0710312511842959,-2.3874342364133723,-2.3416418778597445,1.4322596996785333,8.531597026132404
-0.051968175699017335,-1.0567086541875106,-2.4108506551919695,-2.2563259075984203,1.752237845513347,8.570538139199394
-0.06253526224089244,-1.039186275732377,-2.4334139142679536,-2.1706205262064264,2.0570620709808467,8.602504295822566
-0.07292712499821621,-1.0186156550225687,-2.455120119530018,-2.0845954832482008,2.34674855193607,8.627700441910138
-0.0831132815484419,-0.995148169503208,-2.4759660743625,-1.9983184788290993,2.6213867370569566,8.646426770356166
-0.09306476324347399,-0.9689343021326384,-2.495949259150791,-1.9118542111255377,2.881130471751391,8.659062223150746
-0.10275410626480037,-0.9401229974151245,-2.515067801262046,-1.8252635888940303,3.126188900077157,8.666048998400854
-0.11215533623895162,-0.908861108414353,-2.5333204371509863,-1.7386030989100218,3.356817412875539,8.667878206742657
-0.12124394732309515,-0.8752929342855976,-2.5507064681400866,-1.6519243168425952,3.5733088554612427,8.665076768439363
-0.12999687666595114,-0.8395598457309852,-2.5672257113085126,-1.5652735491582015,3.775985156880419,8.658195594639176
-0.138392475123261,-0.801799994162181,-2.5828784468000947,-1.4786915932118097,3.9651894964176795,8.64779905515345
-0.1464104750648828,-0.7621480991980042,-2.597665362732213,-1.3922136026602752,4.1412790825958075,8.63445570133833
-0.15403195605686285,-0.7207353083720461,-2.6115874987588157,-1.3058690456468918,4.304618585760951,8.618730186286781
-0.16123930914058332,-0.6776891225144366,-2.6246461892152846,-1.219681743784024,4.455574237470805,8.601176305197368
-0.16801620036572767,-0.6331333801397285,-2.636843006653125,-1.1336699807320503,4.594508587990029,8.582331065822702
-0.17434753416712495,-0.5871882942598282,-2.6481797064604455,-1.0478466700738234,4.7217758967225,8.562709691477416
-0.18021941710972322,-0.5399705352926032,-2.6586581731611836,-0.9622195731590493,4.837718118724968,8.542801456286476
-0.18561912246264925,-0.4915933541053535,-2.668280368892774,-0.8767915585961845,4.9426614428449955,8.523066253257113
-0.1905350560037028,-0.4421667396769035,-2.6770482844787358,-0.7915608960636134,5.036913332797404,8.503931799489528
-0.19495672340047182,-0.39179760634892946,-2.684963893439372,-0.7065215780687181,5.120760020963662,8.48579138861623
-0.1988746994639611,-0.34059000613929286,-2.692029109220059,-0.6216636641825558,5.194464405254004,8.469002107697058
-0.20228059952535404,-0.28864536208675284,-2.6982457458618847,-0.5369736431055853,5.258264301476727,8.453883443732659
-0.20516705314622158,-0.23606271907198556,-2.7036154822929404,-0.4524348086682587,5.31237100685996,8.440716213243855
-0.20752768033694144,-0.18293900900338594,-2.708139830379623,-0.36802764653582015,5.356968134299248,8.429741756657187
-0.2093570704269753,-0.12936932766039347,-2.711820106844981,-0.28373022896924827,5.392210681270347,8.421161347296213
-0.21065076370357924,-0.07544722084769,-2.7146574091346736,-0.19951861549628613,5.418224301933921,8.415135772446739
-0.21140523591205615,-0.021264977828350788,-2.7166525952896365,-0.11536725777181875,5.43510475561503,8.411785051159663
-0.21161788569033965,0.03308606972779951,-2.717806267867355,-0.031249407260222115,5.442917509467892,8.411188260153839
-0.21128702499306165,0.08751524482247844,-2.718118761939957,0.05286247534131627,5.441697477683613,8.413383445409593
-0.21041187254483687,0.14193221959931457,-2.717590137186544,0.13699630979541222,5.431448884050942,8.418367602865315
-0.20899255034884373,0.196246708439824,-2.7162201740885896,0.22117998582406537,5.412145239051573,8.42609671713782
-0.2070300832644455,0.25036816083033975,-2.714008374230349,0.3054409529954436,5.383729426998125,8.43648585249714
-0.2045264016561421,0.304205455100321,-2.7109539647003946,0.38980581152041505,5.346113903054225,8.449409295566246
-0.2014843471051389,0.3576665941308632,-2.7070559065851905,0.4742999044760775,5.299181004370339,8.464700754523232
-0.19790768116383028,0.4106584041745666,-2.7023129075404295,0.5589469120213099,5.242783384084959,8.482153625096482
-0.19380109712208463,0.4630862380154162,-2.6967234384202166,0.6437684482722746,5.176744581632229,8.50152133949642
-0.18917023474193045,0.5148536838317385,-2.690285753937494,0.7287836616672388,5.100859747705404,8.522517820744683
-0.18402169790361306,0.5658622813087925,-2.682997917320822,0.8140088398746856,5.01489654737128,8.544818071746466
-0.17836307509052512,0.6160112467825053,-2.674857828922075,0.8994570205921503,4.918596270206432,8.568058935981842
-0.17220296262270007,0.6651972094845696,-2.6658632587161533,0.9851376099519686,4.811675181884273,8.591840074903354
-0.16555099052785438,0.7133139613034123,-2.6560118826166335,1.071056010701002,4.693826157286837,8.615725216006904
-0.15841785091482025,0.7602522228762807,-2.6453013225096234,1.1572132628610712,4.564720640788843,8.639243735010087
-0.15081532868605743,0.8058994292841691,-2.6337291898810125,1.243605700211172,4.424010984632965,8.661892645465565
-0.14275633439321575,0.8501395391304988,-2.621293132878901,1.3302246266658277,4.271333220967251,8.68313907919503
-0.13425493900191077,0.8928528713401713,-2.6079908866122428,1.417056017457778,4.106310326734349,8.702423350776005
-0.12532641028850905,0.9339159746075149,-2.593820326437665,1.504080250965538,3.9285560426684407,8.719162708441102
-0.1159872505424339,0.9732015350341993,-2.5787795239280094,1.591271878049949,3.7376793075396613,8.732755881506113
-0.10625523519209192,1.010578328109596,-2.56286680514751,1.6785994368650101,3.5332893657507496,8.742588540029567
-0.09614945191099596,1.0459112217671034,-2.54608081077886,1.7660253222653057,3.315001599603573,8.748039784876319
-0.08569033969332493,1.0790612377631392,-2.528420557556207,1.853505720114069,3.0824441261089928,8.748489784636543
-0.07489972731569354,1.109885679024229,-2.5098855003550664,1.9409906179604344,2.8352651811757603,8.743328668771216
-0.06380087052545125,1.1382383308359867,-2.490475594175462,2.0284239046481467,2.5731412904714817,8.73196677270803
-0.05241848721709138,1.1639697437407015,-2.4701913551289807,2.115743572375227,2.295786195395982,8.7138463092357
-0.04077878977968436,1.1869276056946614,-2.4490339194052284,2.2028820354675838,2.0029604638441545,8.688454510430043
-0.02890951372273775,1.206957210333103,-2.4270050990505525,2.289766580571884,1.6944816684875852,8.65533824477592
-0.016839941619406718,1.2239020270179788,-2.4041074332448336,2.376319963019643,1.3702349603589254,8.614120064865952
-0.0046009213492269295,1.237604376621568,-2.380344233614637,2.4624611636683027,1.0301838033702222,8.564515582441084
0.0077751224169887515,1.2479062146552704,-2.355719621977954,2.5481063194927134,0.6743805675646244,8.506352000800574
0.020254184563541458,1.2546500203309165,-2.330238558783027,2.6331698395007193,0.3029766077648288,8.439587561967647
0.03280068476685062,1.257679786408565,-2.30390686038802,2.717565715120396,-0.08376861687570114,8.364331590815576
0.04537748263093627,1.256842100239808,-2.276731203236816,2.8012090310285513,-0.48547989391646096,8.280864745220887
0.05794590363333435,1.2519873013006435,-2.2487191129265307,2.88401767848076,-0.9016606486630281,8.18965901599441
0.07046577664634078,1.2429706948140131,-2.2198789361417233,2.965914268640704,-1.3316899878841628,8.091396969669075
0.08289548359448091,1.2296537949351716,-2.190219793455316,3.046828238337395,-1.7748230319607936,7.986989698759284
0.09519202154383263,1.2119055646155636,-2.159751511071942,3.126698135324988,-2.230195168728668,7.877592945697482
0.10731107718998827,1.189603612928277,-2.1284845297186923,3.2054740647819626,-2.6968308299476664,7.764620905823916
0.11920711331927103,1.1626353046288003,-2.0964297890708727,3.283120273840202,-3.1736573265561585,7.649757298047387
0.13083346636555904,1.1308987313632386,-2.063598586332471,3.359617846820676,-3.6595241814563026,7.534963423817249
0.14214245367919143,1.0943034895486756,-2.0300024078642642,3.434967481058848,-4.1532282713816135,7.422483118076018
0.15308548857467819,1.0527712068348596,-1.9956527330536757,3.5091923122396085,-4.653544938769041,7.31484472911277
0.16361320064302678,1.0062357574471692,-1.9605608099312797,3.5823407595307364,-5.159265070504047,7.214860543660738
0.17367555821749847,0.9546431067421287,-1.9247374023359722,3.654489364967344,-5.6692379764007,7.125624391999654
0.18322198928491976,0.8979507269781217,-1.8881925086862987,3.7257456088873404,-6.182419752647405,7.050508515505785
0.19220149655470098,0.8361265294516477,-1.8509350525974253,3.7962506940423983,-6.697926702362795,6.9931611447917605
0.20056276184921745,0.7691472624280197,-1.8129725456570014,3.866182305490316,-7.215093325512477,6.9575066089311415
0.20825423447349764,0.6969963291728949,-1.7743107226020982,3.9357573715796272,-7.73353440124213,6.947750165404179
0.21522419776522658,0.6196609851604736,-1.734953148886302,4.005234873233669,-8.25321078179106,6.968390099516941
0.2214208076168313,0.5371288773425631,-1.6949008001539652,4.074918774228839,-8.774498708436324,7.024239988483695
0.22679209639025694,0.44938389025819986,-1.6541516124116769,4.145161174113675,-9.298262749574667,7.120464360780725
