th1 (rad),w1 (rad/s),th2 (rad),w2 (rad/s),a1 (rad/s^2),a2 (rad/s^2)
2.7971016962613997,1.8118996832458578,2.8441463961695495,-1.0730463375927115,-3.534079201523728,0.5035995277848867
2.8152206930938584,1.7765588912306205,2.8334159327936224,-1.0680103423148626,-3.2326301048784427,0.2021178137566317
2.8329862820061646,1.744232590181836,2.822735829370474,-1.0659891641772963,-2.9236996750212323,-0.11738491291149913
2.850428607907983,1.7149955934316237,2.812075937728701,-1.0671630133064112,-2.61023553606255,-0.45004903797933976
2.8675785638422995,1.6888932380709982,2.8014043075956367,-1.0716635036862046,-2.295072915819001,-0.7912488255684962
2.8844674962230092,1.6659425089128082,2.7906876725587746,-1.0795759919418895,-1.9808976044944766,-1.1366430734704345
2.9011269213121373,1.6461335328678635,2.7798919126393558,-1.0909424226765938,-1.6702246735283341,-1.4822029607424603
2.917588256640816,1.6294312861325801,2.7689824884125898,-1.1057644522840184,-1.3653889790397225,-1.8242228157805445
2.933882569502142,1.6157773963421829,2.7579248438897497,-1.1240066804418238,-1.0685433636314037,-2.1593196876240524
2.950040343465564,1.6050919627058688,2.7466847770853313,-1.1455998773180645,-0.7816608094805758,-2.4844271105988103
2.966091263092623,1.5972753546110632,2.7352287783121505,-1.1704441484240526,-0.5065374320433677,-2.7967875330305967
2.9820640166387333,1.5922099802906295,2.72352433682791,-1.1984120237543585,-0.24479400700369075,-3.093946723409641
2.9979861164416395,1.5897620402205925,2.7115402165903664,-1.2293514909884549,0.0021254087601821586,-3.37375222015897
3.0138837368438454,1.5897832943081944,2.6992467016804818,-1.2630890131900445,0.23295834518836236,-3.6343566654486423
3.0297815697869273,1.5921128777600781,2.6866158115485814,-1.299432579844531,0.44663207294556173,-3.8742257434942546
3.045702698564528,1.5965791984895337,2.673621485750136,-1.3381748372794735,0.6422741705805692,-4.092149495873513
3.0616684905494234,1.6030019401953393,2.660239737377341,-1.3790963322382086,0.819224117883423,-4.287255064983145
3.077698509951377,1.6111941813741735,2.646448774054959,-1.4219688828880401,0.9770442004756772,-4.459018465068109
3.0938104517651186,1.6209646233789303,2.632229085226079,-1.4665590675387212,1.115527890695594,-4.607272826684133
3.110020097998908,1.6321199022858863,2.6175634945506916,-1.5126317958055626,1.234703964710832,-4.732210712315648
3.1263412970217668,1.6444669419329947,2.602437176592636,-1.559953902928719,1.3348349133536435,-4.834378538267709
3.142785966441097,1.6578152910665311,2.586837637563349,-1.6082976883113962,1.4164086707498125,-4.914661810646615
3.1593641193517623,1.6719793777740293,2.570754660680235,-1.6574443064178623,1.4801232663764285,-4.974260712691646
3.1760839131295024,1.6867806104377936,2.5541802176160564,-1.7071869135447788,1.5268646337985259,-5.014656468061028
3.1929517192338803,1.7020492567757788,2.5371083484806087,-1.757333478225389,1.5576784082371513,-5.037569743786982
3.209972211801638,1.7176260408581503,2.5195350136983548,-1.8077091756632588,1.573737045734837,-5.044913049728776
3.2271484722102195,1.7333634113154988,2.5014579219417223,-1.8581583061605467,1.5763039451524605,-5.038739563822261
3.2444821063233746,1.7491264507670234,2.482876338880117,-1.9085457017987693,1.5666964201117741,-5.02119102332671
3.2619733708310448,1.7647934149681412,2.4637908818621295,-1.9587576120320365,1.5462493474635233,-4.994447268561303
3.279621304980726,1.7802559084427765,2.444203305741809,-2.0087020847176493,1.516281132935685,-4.960679739253855
3.297423864065154,1.7954187197721334,2.4241162848946325,-2.058308882110188,1.4780633232130578,-4.922010762763627
3.315378051262875,1.810199353004264,2.4035331960735307,-2.107528989737824,1.4327948071425438,-4.880479910252425
3.333480044792918,1.8245273010756893,2.3824579061761524,-2.156333788840348,1.3815811388297117,-4.838018104747803
3.351725317803675,1.8383431124639864,2.360894568287749,-2.2047139698878264,1.325419127721247,-4.796429607814655
3.370108748928315,1.8515973037411988,2.3388474285888705,-2.2526782659659728,1.2651865097458272,-4.757381536427445
3.388624721965727,1.864249168838657,2.3163206459292107,-2.3002520813302474,1.2016362601995358,-4.722400196227529
3.4072672136541136,1.8762655314406524,2.293318125115908,-2.3474760832925226,1.1353949413441544,-4.692873270425586
3.42602986896852,1.887619480854094,2.2698433642829827,-2.3944048159967783,1.0669643930411055,-4.670056768427658
3.444906063777061,1.898289124784505,2.245899316123015,-2.441105383681055,0.9967260632468319,-4.655085597208115
3.463888955024906,1.9082563854169734,2.221488262286204,-2.487656239653136,0.9249473230627397,-4.64898664779241
3.4829715188790757,1.9175058586476008,2.1966116998896728,-2.53414610613106,0.8517892036801784,-4.652693363164038
3.5021465774655516,1.9260237506844027,2.1712702388283622,-2.5806730397627007,0.7773151169405906,-4.667060847554684
3.5214068149723956,1.9337969018538086,2.145463508430735,-2.6273436482382477,0.7015002673865435,-4.692880668021056
3.5407447839909336,1.940811904527674,2.1191900719483527,-2.674272454918458,0.6242416256074074,-4.73089456811388
3.5601529030362102,1.947054320783748,2.092447347399168,-2.721581400599597,0.5453685086935222,-4.781806343642682
3.5796234462440477,1.9525080058706832,2.065231533393172,-2.7693994640360238,0.46465400639026455,-4.846291107058096
3.5991485263027547,1.9571545459345858,2.037537538752812,-2.8178623751066048,0.3818277080972867,-4.925001075147789
3.6187200717621004,1.9609728230155588,2.009358915001746,-2.8671123858580825,0.29659043747923935,-5.018566838669576
3.638329799992256,1.9639387273903512,1.9806877911431653,-2.917298054244778,0.2086320037344016,-5.127592793535961
3.6579691872661595,1.9660250474276952,1.9515148106007174,-2.968573982180138,0.11765335142986053,-5.252645008387388
3.6776294377404364,1.9672015809419938,1.921829070778916,-3.021100432264012,0.023394958361522458,-5.394229245008443
3.6973014535498563,1.967435530525609,1.891618066456276,-3.075042724714096,-0.07432607931221334,-5.552756103354351
3.7169758088551124,1.966692269732487,1.860867639209135,-3.13057028574764,-0.17556709444940113,-5.728489296515164
3.736642731552437,1.964936598787993,1.8295619363516586,-3.1878551787127916,-0.2801949308783604,-5.921471840326792
3.756292097540317,1.9621346494792093,1.7976833845645308,-3.2470698971160594,-0.38779985488069335,-6.1314234505037435
3.775913444035109,1.9582566509304025,1.7652126855933703,-3.308384131621097,-0.49758181314259675,-6.357600699258706
3.7954960105444133,1.9532808327989766,1.7321288442771594,-3.371960138613684,-0.6082011871303222,-6.598609597587367
3.815028818872403,1.9471988209276734,1.6984092428910225,-3.4379462345895577,-0.7175849383043293,-6.852158498380251
3.83450080708168,1.94002297154463,1.664029780545127,-3.50646781957336,-0.822678302418555,-7.114738093918802
3.8539010367971263,1.9317961885204444,1.6289651023493934,-3.577615200512548,-0.9191327259686641,-7.381215802693342
3.8732189986823307,1.9226048612607578,1.593188950344268,-3.6514273585394816,-1.0009238315329558,-7.644335719474818
3.892445047294938,1.9125956229454282,1.5566746767588733,-3.72787071573423,-1.0599009154954344,-7.894125305269765
3.9115710035243922,1.9019966137904738,1.519395969601531,-3.8068119687869277,-1.0852848901955583,-8.117230259724314
3.930590969662297,1.8911437648885183,1.4813278499136615,-3.887984271384171,-1.0631588017117557,-8.296235148072924
3.9495024073111824,1.8805121768714008,1.4424480071998198,-3.9709466228649,-0.9760387363244255,-8.409085753283858
3.9683075290798966,1.8707517895081565,1.4027385409711708,-4.055037480397739,-0.8026764796767547,-8.428814657566189
3.987015046974978,1.862725024711389,1.3621881661671933,-4.139325626973401,-0.5183267967483234,-8.323882105114675
4.005642297222092,1.8575417567439056,1.3207949098974592,-4.2225644480245474,-0.09579704941453318,-8.05956071498871
4.024217714789531,1.8565837862497603,1.2785692654172136,-4.303160055174435,0.49235253338074175,-7.6008651156895715
4.042783552652028,1.8615073115835676,1.2355376648654692,-4.37916870633133,1.2701424973420754,-6.917463101481175
4.061398625767864,1.8742087365569884,1.191745977802156,-4.448343337346142,2.252977979220358,-5.990674289005778
4.080140713133433,1.8967385163491919,1.1472625444286946,-4.508250080236199,3.4413904923246528,-4.8219537932446705
4.0991080982969255,1.9311524212724385,1.1021800436263325,-4.556469618168646,4.814972371209869,-3.4412004469261435
4.118419622509649,1.9793021449845372,1.056615347444646,-4.590881622637907,6.3285537861003345,-1.9121486539819652
4.138212643959495,2.0425876828455407,1.010706531218267,-4.610003109177726,7.912968673677768,-0.3316795922270029
4.15863852078795,2.1217173695823184,0.9646065001264897,-4.6133199050999965,9.481986667612599,1.1791122287463631
4.1798556944837735,2.2165372362584446,0.9184733010754897,-4.601528782812533,10.945000242553487,2.4916183472243127
4.202021066846358,2.3259872386839793,0.8724580132473644,-4.57661259934029,12.222548259804338,3.4903381023721045
4.225280939233198,2.448212721282023,0.8266918872539615,-4.541709218316569,13.260122460855623,4.091351168746082
4.249763066446018,2.580813945890579,0.7812747950707958,-4.500795706629108,14.036099252926459,4.253036279908927
4.275571205904924,2.7211749384198436,0.7362668380045047,-4.458265343830019,14.561984589385643,3.976510397066365
4.302782955289122,2.8667947843137,0.6916841845662045,-4.418500239859355,14.876098828071672,3.2971665637929277
4.331450903132259,3.0155557725944164,0.6474991821676109,-4.385528574221426,15.033778761931059,2.2713128051453855
4.361606460858203,3.165893560213727,0.6036438964253967,-4.362815446169972,15.097439681646936,0.9623147669403714
4.3932653964603405,3.316867957030196,0.560015741963697,-4.353192298500569,15.12882389185374,-0.5706690522910546
4.426434076030643,3.4681561959487337,0.5164838189786913,-4.35889898902348,15.184356226438377,-2.2801299907822155
4.46111563799013,3.6199997582131176,0.47289482908845654,-4.381700288931302,15.313431482197203,-4.134078703080471
4.497315635572261,3.7731340730350897,0.42907782619914353,-4.423041075962107,15.558918839734401,-6.117354183802901
4.5350469763026116,3.9287232614324337,0.38484741543952244,-4.484214617800136,15.95909191565436,-8.231548132749154
4.574334208916936,4.088314180588977,0.3400052692615211,-4.566530099127627,16.55037206995892,-10.494554116786578
4.615217350722825,4.253817901288566,0.2943399682702448,-4.671475640295493,17.370531037191725,-12.94048885359928
4.657755529735711,4.427523211660484,0.24762521186728986,-4.8008805288314855,18.462237599433504,-15.62050708432629
4.702030761852316,4.612145587654819,0.199616406578975,-4.957085599674748,19.87701299882517,-18.60488371382577
4.748152217728864,4.810915717643071,0.15004555058222752,-5.143134436813006,21.679765895691556,-21.9866439178489
4.796261374905295,5.027713376599986,0.09861420621409744,-5.363000875991495,23.954074403066297,-25.88689508965376
4.846538508671294,5.267254120630649,0.044984197454182494,-5.621869826888032,26.808145893778214,-30.46163794967536
4.899211049877601,5.535335579568431,-0.011234500814697825,-5.926486206384785,30.380549995942474,-35.9086653192051
4.954564405673286,5.839141079527856,-0.07049936287854568,-6.2855728595768365,34.84239160857542,-42.46978397544598
5.012955816468565,6.18756499561361,-0.13335509147431404,-6.710270699331296,40.38592890298244,-50.41431084847901
5.0748314664247,6.591424284643435,-0.200457798467627,-7.214413807816086,47.17191693294525,-59.96502161897664
5.140745709271135,7.063143453972888,-0.2726019365457879,-7.8140640240058525,55.16264885430069,-71.06426588289811
5.211377143810864,7.614769942515895,-0.3507425767858464,-8.524706682834834,63.662714619420186,-82.73066843528889
5.287524843236024,8.251397088710096,-0.4359896436141948,-9.352013367187723,70.21416981980728,-91.51008872922932
5.370038814123125,8.953538786908169,-0.5295097772860721,-10.267114254480017,68.592580554121,-88.66217827792359
5.459574201992206,9.639464592449379,-0.6321809198308722,-11.153736037259252,47.98260058254203,-58.994348081058604
5.5559688479166995,10.1192905982748,-0.7437182802034648,-11.743679518069838,2.4300868035463856,5.894839484121074
5.657161753899447,10.143591466310264,-0.8611550753841631,-11.684731123228627,-48.24646205483813,78.32408115480608
5.75859766856255,9.661126845761883,-0.9780023866164494,-10.901490311680567,-72.4080560159274,114.10494649540341
5.855208937020169,8.937046285602609,-1.087017289733255,-9.760440846726532,-69.62123035078733,112.62612479778504
5.944579399876195,8.240833982094735,-1.1846216982005204,-8.63417959874868,-57.05032628686763,97.74250054058353
6.026987739697143,7.670330719226058,-1.2709634941880072,-7.656754593342845,-44.23421383529786,82.68147806537439
6.103691046889403,7.227988580873079,-1.3475310401214358,-6.829939812689101,-33.57993229591403,70.7821213653395
6.175970932698133,6.892189257913939,-1.4158304382483267,-6.122118599035706,-25.094381720806542,62.06568627762657
6.244892825277272,6.641245440705874,-1.4770516242386837,-5.50146173625944,-18.30515518251233,55.88914447127739
6.311305279684331,6.458193888880751,-1.5320662416012782,-4.942570291546666,-12.763268523347163,51.63398868456389
6.375887218573138,6.330561203647279,-1.581491944516745,-4.426230404701027,-8.13106808665089,48.82217304244398
6.439192830609611,6.24925052278077,-1.6257542485637553,-3.938008674276587,-4.173409153306834,47.098568174973344
6.5016853358374185,6.207516431247702,-1.665134335306521,-3.4670229925268536,-0.7344765059336746,46.19339008342631
6.563760500149895,6.200171666188365,-1.6998045652317897,-3.0050890916925903,2.2817500850172756,45.88967366792696
6.625762216811779,6.222989167038538,-1.7298554561487156,-2.5461923550133205,4.9254619587764426,45.99923887297895
6.687992108482164,6.272243786626302,-1.7553173796988488,-2.086199966283531,7.211016438412821,46.34631434234137
6.750714546348427,6.34435395101043,-1.7761793793616842,-1.6227368228601173,9.124990240694933,46.75787286927587
6.814158085858532,6.43560385341738,-1.7924067475902854,-1.1551580941673585,10.634034107389134,47.060310674314266
6.878514124392706,6.541944194491271,-1.803958328531959,-0.6845549874242158,11.693746197836312,47.08239034411503
6.943933566337619,6.658881656469634,-1.810803878406201,-0.2137310839830655,12.259039397932888,46.664051328634514
7.010522382902315,6.781472050448963,-1.8129411892460316,0.25290942930327964,12.295523694010583,45.66974283850717
7.078337103406804,6.904427287389069,-1.810412094952999,0.7096068576883514,11.790425010167013,44.00361782836676
7.147381376280695,7.022331537490739,-1.8033160263761154,1.149643035972019,10.760871357985554,41.62282077288559
7.217604691655602,7.129940251070595,-1.7918195960163952,1.5658712437008748,9.257402502300874,38.54491564061252
7.288904094166308,7.222514276093603,-1.7761608835793865,1.9513204001070001,7.361491350916869,34.846681071911235
7.361129236927244,7.296129189602772,-1.7566476795783166,2.2997872108261124,5.177453873264673,30.653845899941484
7.434090528823272,7.347903728335419,-1.7336498074700555,2.606325669825527,2.820716626273345,26.123965919470034
7.507569566106626,7.376110894598153,-1.7075865507718002,2.8675653290202274,0.40529907501630896,21.426440256740687
7.581330675052607,7.380163885348316,-1.678910897481598,3.0818297315876344,-1.9667867389421503,16.723949256365586
7.6551323139060905,7.360496017958894,-1.6480926001657217,3.2490692241512904,-4.212511943034785,12.158471272904203
7.728737274085679,7.3183708985285465,-1.6156019079242088,3.3706539368803323,-6.270760746109787,7.843220295251681
7.801920983070965,7.255663291067449,-1.5818953685554054,3.449086139832849,-8.101835059540944,3.860163813141644
7.87447761598164,7.174644940472039,-1.5474045071570768,3.4876877779642657,-9.684685097541074,0.2617390321152727
7.94622406538636,7.077798089496628,-1.5125276293774341,3.4903051682854183,-11.013061472082981,-2.9249328372763914
8.017002046281327,6.967667474775799,-1.47762457769458,3.4610558399126545,-12.091527965063264,-5.692833109430655
8.086678721029084,6.846752195125166,-1.4430140192954535,3.404127508818348,-12.931918605385226,-8.049891399660348
8.155146242980337,6.717433009071314,-1.40897274420727,3.323628594821744,-13.550503624664282,-10.014488998261339
8.22232057307105,6.581927972824671,-1.3757364582590526,3.223483704839131,-13.965903910388331,-11.611854517167885
8.288139852799297,6.442268933720787,-1.3435016212106612,3.1073651596674523,-14.197665721247843,-12.871350642068265
8.352562542136505,6.3002922765083085,-1.3124279696139867,2.9786516532467697,-14.265354289069176,-13.824526915414594
8.415565464901588,6.157638733617617,-1.282641453081519,2.8404063840926237,-14.188019167679077,-14.50376899752054
8.477141852237764,6.015758541940826,-1.2542373892405927,2.6953686941174184,-13.983903286788728,-14.941378168696682
8.537299437657172,5.875919509072939,-1.2272837022994185,2.5459549124304517,-13.670296425543604,-15.168941911920431
8.596058632747901,5.739216544817503,-1.201824153175114,2.3942654933112473,-13.263463364215895,-15.21689151668469
8.653450798196076,5.606581911175344,-1.1778814982420014,2.2420965781444004,-12.778602827237016,-15.1141766455789
8.709516617307829,5.478795882902975,-1.1554605324605574,2.0909548116886114,-12.229813693457915,-14.888015126790052
8.764304576136858,5.356497745968396,-1.1345509843436712,1.9420746604207109,-11.63005951037104,-14.563697175710313
8.817869553596543,5.240197150864685,-1.115130237739464,1.7964376886636078,-10.991131591386981,-14.164436833839682
8.87027152510519,5.130285834950816,-1.097165860852828,1.654793320325211,-10.323615786914726,-13.71127065213228
8.921574383454699,5.027049677081669,-1.080617927649576,1.517680613803888,-9.636869467177345,-13.223006032902179
8.971844880225515,4.930680982409895,-1.0654411215115371,1.3854505534748662,-8.939014429181173,-12.716220807413514
9.021151690049614,4.841290838118083,-1.0515866159767884,1.258288345400731,-8.23694934279741,-12.205313075199395
9.069564598430794,4.758921344690109,-1.039003732522781,1.1362352146487371,-7.536382805852665,-11.702597291918133
9.117153811877696,4.683557516631582,-1.0276413803762936,1.0192092417295557,-6.841885684807534,-11.218439925435048
9.163989387044012,4.615138659783507,-1.017449287958998,0.9070248424752052,-6.156959541318946,-10.76142619370237
9.210140773641847,4.5535690643703175,-1.008379039534246,0.7994105805381815,-5.48411674227386,-10.33854862264446
9.25567646428555,4.498727896947579,-1.0003849337288642,0.6960250943117369,-4.824967317543271,-9.955408353739015
9.300663743255026,4.450478223772146,-0.9934246827857468,0.5964710107743467,-4.180307657458876,-9.616421085832656
9.345168525492747,4.408675147197557,-0.9874599726780033,0.5003067999160201,-3.5502065717359055,-9.325020994482525
9.389255276964724,4.373173081480198,-0.9824569046788432,0.40705658997119487,-2.9340848952271834,-9.083857681633619
9.432987007779525,4.343832232527927,-0.9783863387791312,0.31621801315485865,-2.3307855741679857,-8.894982959973367
9.476425330104805,4.3205243767862465,-0.9752241586475826,0.22726818355512496,-1.738631882831252,-8.760025922086873
9.519630573872668,4.303138057957934,-0.9729514768120313,0.13966792433425623,-1.1554720241891818,-8.680356198539057
9.562661954452247,4.291583337716042,-0.9715547975686888,0.05286436234886566,-0.5787088111933291,-8.65723653810302
9.605577787829407,4.285796249604108,-0.9710261539452001,-0.033708003032164535,-0.005313385029257959,-8.691966854099315
9.648435750325449,4.2857431157538155,-0.9713632339755217,-0.12062767157315768,0.5681780017981938,-8.786022705538054
9.691293181482987,4.291424895771797,-0.9725695106912533,-0.20848789862853823,1.1456852205281223,-8.94119186577805
9.734207430440705,4.302881747977079,-0.9746543896775387,-0.29789981728631876,1.7316248832008934,-9.159713221685633
9.777236247920476,4.320197996809088,-0.9776333878504019,-0.3894969495031751,2.330972138948928,-9.444422780368862
9.820438227888566,4.343507718198577,-0.9815283573454336,-0.4839411773068637,2.949346006562708,-9.7989120534508
