th1 (rad),w1 (rad/s),th2 (rad),w2 (rad/s),a1 (rad/s^2),a2 (rad/s^2)
3.648881898183503,2.171621725608508,5.988181961128326,2.670609560014751,9.409600979783514,5.998989115099608
3.670598115439588,2.265717735406343,6.0148880567284735,2.7305994511657468,9.574223296490029,5.613937959077237
3.6932552927936517,2.361459968371243,6.042194051240131,2.7867388307565193,9.7245200467007,5.193438847202807
3.716869892477364,2.45870516883825,6.070061439547696,2.8386732192285473,9.85857572584131,4.735497910585613
3.7414569441657464,2.5572909260966634,6.098448171739982,2.8860281983344036,9.974465191085196,4.238166503883762
3.767029853426713,2.657035578007515,6.127308453723326,2.928409863373241,10.070270787620714,3.699564113321134
3.793600209206788,2.7577382858837223,6.156592552357059,2.9654055045064527,10.14410190893491,3.1179040099220674
3.821177592065625,2.8591793049730714,6.186246607402123,2.9965845446056734,10.194117444042822,2.491522214356961
3.849769385115356,2.9611204794134998,6.21621245284818,3.021499766749243,10.218551706797287,1.8189104804413152
3.879380589909491,3.0633059964814726,6.2464274505156725,3.0396888715536563,10.21574458972046,1.098754121198655
3.9100136498743057,3.165463442378677,6.276824339231209,3.0506764127656427,10.184176819016308,0.32997556325134175
3.9416682842980926,3.26730521056884,6.307331103358865,3.0539761683981563,10.122511283431582,-0.48821551770356647
3.974341336403781,3.368530323403156,6.337870865042847,3.049094013221121,10.02964143548406,-1.3562648028438227
4.008026639637813,3.468826737757997,6.368361805175058,3.0355313651926825,9.904747681636342,-2.2742083698815825
4.042714907015393,3.5678742145743603,6.398717118826985,3.0127892814938666,9.747362447502393,-3.241600475224804
4.078393649161137,3.6653478390493843,6.428845011641924,2.9803732767416187,9.557444185661277,-4.257435295357687
4.11504712755163,3.760922280905997,6.45864874440934,2.937798923788042,9.335459955521438,-5.32006507021193
4.15265635036069,3.8542768804612115,6.48802673364722,2.8845982730859228,9.08247533210367,-6.427118631011428
4.191199119165303,3.945101633782248,6.516872716378079,2.8203270867758086,8.800249306435955,-7.575426097711558
4.230650135503125,4.033104126846608,6.545075987245837,2.7445728257986928,8.491330576921621,-8.760957484812275
4.270981176771591,4.118017432615824,6.572521715503823,2.65696325095057,8.15915030163048,-9.97878487454732
4.31216135109775,4.199608935632129,6.599091348013329,2.5571754022050968,7.80810514682067,-11.22307944332209
4.354157440454071,4.277689987100335,6.62466310203538,2.444944607771876,7.44362354501745,-12.487155636875375
4.396934340325075,4.35212622255051,6.649112548113099,2.320073051403122,7.072207728629772,-13.763574825729517
4.44045560255058,4.422848299836807,6.67231327862713,2.182437303145827,6.70144460972512,-15.044319502059587
4.484684085548948,4.489862745934058,6.694137651658589,2.031994108125231,6.339980180529902,-16.321046270639595
4.529582713008288,4.553262547739357,6.7144575927398416,1.8687836454188351,5.997454971391694,-17.58542150212639
4.575115338485682,4.613237097453274,6.73314542919403,1.6929294303975713,5.684402232367823,-18.829537800347808
4.621247709460215,4.670081119776952,6.750074723498006,1.504634052394093,5.412115711927513,-20.046402969676976
4.667948520657985,4.724202276896227,6.765121064021947,1.3041700226973234,5.192499787726948,-21.23048687578888
4.715190543426948,4.776127274773496,6.77816276424892,1.0918651539394346,5.037920676050352,-22.378306651839033
4.762951816174683,4.8265064815339995,6.789081415788314,0.8680820874210443,4.961082836287867,-23.489028381399837
4.811216880990023,4.876117309896879,6.797762236662525,0.633191803607046,4.9749588761415655,-24.56506481879597
4.859978054088992,4.9258668986582945,6.804094154698595,0.3875411554190863,5.09280384852982,-25.61265463130722
4.9092367230755745,4.976794937143593,6.807969566252786,0.1314146091060141,5.32828575893873,-26.642419225283554
4.95900467244701,5.03007779473298,6.809283712343846,-0.13500958314682143,5.6957637214642185,-27.669907915354912
5.00930545039434,5.087035431947623,6.807933616512377,-0.41170866230037056,6.210744177063281,-28.716159766647262
5.060175804713817,5.149142873718255,6.803816529889374,-0.6988702599668433,6.890544605377025,-29.808328903077765
5.111667233450999,5.218048319772025,6.796827827289706,-0.9969535489976209,7.755193330088375,-30.980436441953366
5.163847716648719,5.295600253072909,6.78685829179973,-1.3067579134171545,8.828591714701751,-32.27432147157953
5.216803719179448,5.3838861702199265,6.7737907126655585,-1.62950112813295,10.139955621229902,-33.740855827038295
5.270642580881647,5.485285726432226,6.757495701384229,-1.9669096864033329,11.725521921445324,-35.44144161727737
5.325495438145969,5.602540945646679,6.737826604520196,-2.3213241025761064,13.63041896474871,-37.449678745394785
5.381520847602436,5.738845135294166,6.7146133634944345,-2.6958208900300544,15.910379347272258,-39.852763577547215
5.438909298955378,5.897948928766888,6.687655154594134,-3.0943485258055268,18.632442956164635,-42.75141339412901
5.4978887882430465,6.084273358328534,6.656711669336079,-3.521862659746817,21.87256145523814,-46.255348965444355
5.558731521826332,6.302998972880916,6.62149304273861,-3.98441614940126,25.705190115853597,-50.467373664346944
5.621761511555142,6.560050874039452,6.581648881244598,-4.48908988604473,30.173648574436896,-55.44021353780367
5.687362020295536,6.861787359783821,6.536757982384151,-5.043492021422766,35.21658359246279,-61.071400081320554
5.755979893893374,7.213953195708449,6.486323062169923,-5.654206022235972,40.5001447037001,-66.86543690006238
5.828119425850459,7.618954642745449,6.429781001947563,-6.3228603912365955,45.0704109578658,-71.44356835874666
5.904308972277914,8.069658752324107,6.366552398035197,-7.037296074824062,46.75886168586316,-71.70823357025107
5.985005559801155,8.537247369182738,6.296179437286956,-7.754378410526573,41.63100354919177,-62.07454415249414
6.070378033492982,8.953557404674656,6.218635653181691,-8.375123852051514,25.04099742261717,-35.975905248019245
6.159913607539729,9.203967378900828,6.134884414661176,-8.734882904531707,-3.06453906136926,6.6316835506206875
6.2519532813287375,9.173321988287135,6.047535585615859,-8.6685660690255,-32.278749353485445,50.97690355990982
6.343686501211609,8.850534494752281,5.960849924925604,-8.158797033426403,-49.207196444841664,78.01064986179306
6.432191846159132,8.358462530303864,5.87926195459134,-7.378690534808472,-51.7354882026473,84.56935408787758
6.51577647146217,7.841107648277391,5.805475049243255,-6.532996993929696,-46.42145710213011,79.79138934441585
6.594187547944944,7.3768930772560894,5.740145079303958,-5.735083100485538,-38.9408462680108,71.67433583460175
6.667956478717505,6.9874846145759815,5.6827942482991025,-5.01833974213952,-31.805456708706203,63.805262390546815
6.737831324863265,6.66943004748892,5.6326108508777075,-4.380287118234052,-25.722287131119494,57.2298550075876
6.8045256253381545,6.412207176177724,5.588807979695367,-3.807988568158176,-20.722924130574665,52.02723116675852
6.868647697099932,6.204977934871978,5.550728094013785,-3.287716256490591,-16.652143135750272,47.996718883907484
6.9306974764486515,6.038456503514475,5.517850931448879,-2.807749067651516,-13.334975632887527,44.895796058613755
6.991082041483796,5.9051067471856,5.489773440772364,-2.358791107065379,-10.623287129835,42.50868283871609
7.050133108955652,5.798873875887249,5.46618552970171,-1.933704278678218,-8.402715741233383,40.65866536065124
7.108121847714525,5.714846718474916,5.446848486914928,-1.5271176250717056,-6.588304232664463,39.204102456423925
7.165270314899274,5.648963676148271,5.431577310664211,-1.1350766005074662,-5.118013134110278,38.03125795671549
7.221759951660757,5.597783544807168,5.420226544659136,-0.7547640209403113,-3.946774511213488,37.04787302337565
7.277737787108829,5.558315799695033,5.4126789044497325,-0.38428529070655476,-3.0416347544709033,36.17834277690999
7.333320945105779,5.527899452150324,5.408836051542667,-0.02250186293745482,-2.377922086568665,35.360417846858404
7.388599939627282,5.504120231284637,5.408611032913292,0.33110231553112923,-1.9362522351094154,34.54310523650432
7.4436411419401285,5.484757708933543,5.411922056068604,0.6765333678961725,-1.700208942494394,33.685414837431914
7.498488719029464,5.4677556195085995,5.418687389747565,1.0133875162704915,-1.6545880738994303,32.755631400304324
7.55316627522455,5.451209738769605,5.42882126491027,1.3409438302735348,-1.784137118536896,31.730841047472683
7.607678372612246,5.433368367584236,5.4422307032130055,1.6582522407482616,-2.0727455506147483,30.5964968715768
7.662012056288089,5.412640912078088,5.458813225620488,1.9642172094640296,-2.503045987860088,29.345869186659947
7.71613846540887,5.387610452199487,5.478455397715128,2.257675901330629,-3.0563762172777955,27.979291313859246
7.770014569930865,5.357046690026709,5.501032156728434,2.5374688144692215,-3.7130350866709656,26.503176858233633
7.823585036831132,5.31991633916,5.526406844873127,2.802500583051558,-4.452748630874567,24.928842187512796
7.876784200222732,5.275388852851254,5.554431850703642,3.051789004926686,-5.255253056390962,23.271210890220235
7.9295380887512446,5.222836322287344,5.584949740752909,3.284501113828888,-6.100902188784327,21.54750020183745
7.981766451974118,5.161827300399501,5.617794751891197,3.4999761158472626,-6.971219273477858,19.775991455125475
8.033384724978113,5.092115107664723,5.6527945130496695,3.6977360303985174,-7.849334217351548,17.974970427314254
8.08430587605476,5.013621765491208,5.689771873353655,3.87748573467166,-8.7202731712997,16.16189505796637
8.134442093709673,4.9264190337782106,5.728546730700371,4.039104685251324,-9.57109301003954,14.352814740571517
8.183706284047455,4.830708103677815,5.7689377775528845,4.182632832657039,-10.390874777941342,12.56203401337061
8.232013365084233,4.726799355898402,5.810764105879455,4.308253172790745,-11.170605096409473,10.801988839268757
8.279281358643217,4.615093304934307,5.853846637607362,4.416273061183433,-11.902982135779274,9.083288176972873
8.325432291692561,4.496063483576514,5.8980093682191965,4.507105942953162,-12.58218371442029,7.414867373261674
8.370392926528327,4.370241646432311,5.943080427648728,4.581254616685778,-13.203630941147424,5.804201627651383
8.414095342992649,4.238205337020837,5.988892973815586,4.639296632962292,-13.76377343007328,4.2575351562045105
8.456477396362857,4.100567602720104,6.035285940145209,4.681871984524338,-14.25991326548408,2.7800923123831747
8.497483072390057,3.9579684700652633,6.082104659990452,4.709672907648169,-14.690076025666935,1.3762486876698112
8.53706275709071,3.811067709808594,6.1292013890669335,4.723435394524867,-15.052929323653983,0.04965147750894281
8.575173434188796,3.6605384165720545,6.176435743012182,4.7239319092999565,-15.347743127632352,-1.1967119483642479
8.611778818354518,3.507060985295731,6.2236750621051815,4.711964789816314,-15.574381888228762,-2.3604909201330866
8.646849428207474,3.3513171664134433,6.2707947100033445,4.688359880614983,-15.733316265908947,-3.4399825112163946
8.680362599871609,3.1939840037543537,6.317678308809494,4.653960055502819,-15.825641863196074,-4.434162988786991
8.712302439909152,3.035727585122393,6.364217909364522,4.609618425614949,-15.853093522478042,-5.342725593313152
8.742659715760375,2.8771966498976123,6.410314093620672,4.556191169681817,-15.818046052735113,-6.166112004042235
8.771431682259351,2.719016189370261,6.4558760053174895,4.494530049641395,-15.723495249018665,-6.905527524726029
8.798621844153054,2.5617812368800745,6.500821305813903,4.425474774394135,-15.57301631594651,-7.562933403240628
8.824239656521854,2.4060510737206093,6.545076053557844,4.349845440361729,-15.370699893993756,-8.14101326516878
8.84830016725906,2.252344074780672,6.588574507961462,4.268435307710041,-15.121068491737057,-8.643113955162065
8.870823608006866,2.101133389863301,6.631258861038562,4.18200416815842,-14.828978035241128,-9.073163813276581
8.891834941905499,1.9528436095108899,6.673078902720146,4.091272530025654,-14.49951036350038,-9.43557336980475
8.911363378000608,1.807848505875886,6.713991628020403,3.996916796327606,-14.137862843292242,-9.735124555278503
8.929441863059367,1.6664698774429636,6.753960795983679,3.8995655507748213,-13.749240953404286,-9.976854838909606
8.946106561833796,1.5289774679089208,6.792956451491428,3.7997970023857253,-13.338758859699245,-10.165942358292927
8.961396336512886,1.3955898793119283,6.830954421515285,3.698137578802796,-12.911351855799845,-10.307597263151843
8.975352235306005,1.2664763607539298,6.867935797303313,3.5950616061712775,-12.471703261100437,-10.406963357889936
8.988016998913544,1.1417593281429255,6.903886413365026,3.490991972592378,-12.024187103330053,-10.469032870189356
8.999434592194973,1.0215174571096248,6.9387963330909495,3.3863016438904845,-11.572826782694904,-10.498575942683637
9.009649766766069,0.9057891892826758,6.972659349529854,3.2813158844636483,-11.121268991339456,-10.50008534787894
9.018707658658895,0.7945764993692812,7.00547250837449,3.176315030984859,-10.672771478100032,-10.4777360271738
9.026653423652588,0.6878487845882809,7.037235658684339,3.071537670713121,-10.230202804331643,-10.435358380007354
9.033531911498471,0.5855467565449645,7.06795103539147,2.967184086913047,-9.79605200883125,-10.376423776599218
9.039387379063921,0.48758623645665194,7.0976228762606,2.863419849147055,-9.372446051616123,-10.304040515037604
9.044263241428487,0.3938617759404907,7.126257074752071,2.760379443996679,-8.96117299486992,-10.220958356667316
9.048201859187891,0.3042500459917915,7.153860869192038,2.658169860430006,-8.563709062464294,-10.129579814394605
9.051244359647809,0.21861295536714856,7.180442567796338,2.55687406228606,-8.181247959273945,-10.031976498980843
9.05343048920148,0.13680047577440912,7.206011308419199,2.4565542972962513,-7.814731096845925,-9.929909015055081
9.054798493959224,0.05865316480594987,7.230576851392161,2.3572552071457005,-7.464877639057866,-9.82484911370237
9.055385025607283,-0.015995611584628783,7.254149403463618,2.2590067160086766,-7.13221353349379,-9.718003030726564
9.055225069491437,-0.08731774691956669,7.2767394706237045,2.161826685701411,-6.817098920866812,-9.610335153781216
9.054351892022241,-0.15548873612823483,7.2983577374807185,2.0657233341635988,-6.519753510424721,-9.502591357559577
9.05279700466096,-0.22068627123248202,7.319014970822354,1.970697420588003,-6.240279672169078,-9.39532151850572
9.050590141948636,-0.2830890679541728,7.338721945028234,1.8767442054029457,-5.978683127828854,-9.288900866719311
9.047759251269094,-0.34287589923246137,7.357489387082263,1.7838551967357525,-5.734891224469172,-9.183549952899243
9.044330492276769,-0.4002248114771531,7.375327939049621,1.69201969720676,-5.508768850925325,-9.07935310388778
9.040328244161998,-0.4553124999864063,7.3922481360216885,1.6012261661678822,-5.300132111838703,-8.976275314145473
9.035775119162134,-0.5083138211047934,7.408260397683367,1.5114634130264275,-5.108759910818459,-8.874177575267
9.030691980951085,-0.559401420212978,7.423375031813632,1.4227216372737574,-4.934403616776585,-8.772830684511938
9.025097966748955,-0.6087454563807438,7.437602248186369,1.334993330428638,-4.776794998993027,-8.67192759923692
9.019010512185147,-0.6565134063706741,7.450952181490655,1.248274054436269,-4.635652619705355,-8.57109441979553
9.012445378121441,-0.7028699325677277,7.4634349220350185,1.1625631102383136,-4.5106868702584215,-8.469900091324424
9.005416678795765,-0.7479768012703119,7.475060553137402,1.0778641093250694,-4.4016038299278195,-8.367864916920771
8.997936910783062,-0.7919928395695901,7.485839194230652,0.9941854601558616,-4.308108116889127,-8.264467972762354
8.990016982387367,-0.8350739207384814,7.495781048832211,0.911540780428238,-4.229904889552972,-8.159153511134782
8.981666243179982,-0.8773729696340111,7.5048964566364935,0.8299492453168902,-4.166701144457306,-8.05133643123083
8.972892513483641,-0.9190399810785842,7.5131959490896625,0.7494358810045819,-4.118206444718278,-7.940406890842202
8.963702113672856,-0.960222045525767,7.5206903078997085,0.6700318120961599,-4.084133201134619,-7.825734125322563
8.954099893217599,-1.0010633775371132,7.52739062602067,0.5917744708429343,-4.0641966167353,-7.706669533923717
8.944089259442228,-1.041705343704466,7.5333083707291,0.5147077755036972,-4.058114395082235,-7.58254908809913
8.933672206005182,-1.0822864876552885,7.538455448484137,0.43888228462270584,-4.065606303149994,-7.45269511180324
8.922849341128629,-1.1229425506867885,7.542844271330364,0.3643553335046734,-4.086393671220851,-7.316417480257203
8.911619915621761,-1.163806487398997,7.546487824665411,0.2911911587021014,-4.1201989050449,-7.173014281079446
8.899981850747771,-1.205008476449446,7.549399736252432,0.2194610158913069,-4.166745079592837,-7.021771980001315
8.887931765983277,-1.2466759272453742,7.551594346411345,0.14924329609129375,-4.225755679130973,-6.8619651324585496
8.875465006710822,-1.288933484036684,7.553086779372258,0.08062364476670825,-4.2969545451228806,-6.692855681982159
8.862575671870456,-1.3319030294879128,7.5538930158199245,0.013695087946886647,-4.3800660916464595,-6.513691886294008
8.849256641575577,-1.3757036904043773,7.554029966699393,-0.051441830916053435,-4.47481584763511,-6.32370691211051
8.835499604671533,-1.4204518488807285,7.553515548390233,-0.11467890003715854,-4.580931386314739,-6.122117139633991
8.821295086182726,-1.466261162743876,7.552368759389861,-0.17590007143349845,-4.698143704702092,-5.908120217326973
8.806632474555288,-1.513242599790897,7.550609758675526,-0.23498127360676818,-4.826189119912881,-5.680892906595377
8.79150004855738,-1.5615044909900258,7.548259945939458,-0.29179020267272193,-4.964811754222613,-5.439588754250963
8.77588500364748,-1.6111526085322518,7.545342043912731,-0.34618609021523156,-5.113766687205252,-5.183335627920122
8.759773477562156,-1.6622902754043043,7.541880183010579,-0.39801944649443277,-5.272823860658797,-4.911233145818189
8.743150574808112,-1.7150185140108922,7.537899988545635,-0.44713177795261466,-5.441772830146924,-4.622350027513691
8.726000389668004,-1.7694362423123615,7.533428670766109,-0.49335527822775155,-5.620428465467058,-4.315721386609416
8.70830602724488,-1.8256405269670322,7.528495117983832,-0.5365124920938457,-5.808637710672648,-3.9903459800294847
8.69004962197521,-1.8837269040737588,7.523129993062893,-0.5764159518941405,-6.006287521695665,-3.6451834225123436
8.671212352934472,-1.9437897792907155,7.517365833543952,-0.612867786119264,-6.213314105098615,-3.279151370142798
8.651774455141565,-2.0059229203417015,7.5112371556827595,-0.6456592998206919,-6.429713583562379,-2.891122675203709
8.631715225938148,-2.0702200561773254,7.5047805626845525,-0.674570526572729,-6.655554210280595,-2.479922519239259
8.611013025376375,-2.1367755982801313,7.498034857418825,-0.6993697517651216,-6.89099024244088,-2.044325546499931
8.589645269393573,-2.20568550070454,7.491041159901174,-0.7198130072301209,-7.136277558999324,-1.5830530526685602
8.567588414386528,-2.277048276294533,7.483843029828873,-0.7356435377568065,-7.391791063508051,-1.0947703440723962
8.544817931623582,-2.3509661869296137,7.476486594451305,-0.7465912411975304,-7.658043839274328,-0.5780844854934281
8.521308269754286,-2.427546625322357,7.4690206820393295,-0.7523720860524646,-7.935707907461484,-0.03154282241058362
8.497032803501062,-2.5069037043969717,7.4614969611788045,-0.7526875142765704,-8.225636257870564,0.5463670711893528
8.471963766457092,-2.5891600669756776,7.453970086036039,-0.7472238435646769,-8.528885545787073,1.1572149571322399
8.446072165787335,-2.674448922433548,7.446497847600392,-0.7356516939933545,-8.846738429823093,1.8026213191052176
8.419327676563,-2.7629163067317792,7.439141330660458,-0.7176254808023024,-9.180723895651665,2.484243930414335
8.391698513495683,-2.854723545688296,7.431965075852435,-0.6927830414981591,-9.532632965487828,3.2037535386733245
8.363151278038801,-2.950049875343174,7.425037245437454,-0.6607455061114258,-9.904525779603697,3.962792477642366
