th1 (rad),w1 (rad/s),th2 (rad),w2 (rad/s),a1 (rad/s^2),a2 (rad/s^2)
0.9798804096151671,-1.3617460451540635,5.05692428320269,0.9521796125618408,-6.460910184247471,6.882323964002466
0.9662629491636264,-1.426355146996538,5.066446079328308,1.0210028522018655,-6.432130581943437,7.160754552305253
0.951999397693661,-1.4906764528159724,5.076656107850327,1.092610397724918,-6.414264316514107,7.449668943949041
0.9370926331655013,-1.5548190959811135,5.087582211827576,1.1671070871644085,-6.409201942359967,7.749257909349867
0.9215444422056902,-1.618911115404713,5.0992532826992205,1.244599666257907,-6.418932048472748,8.059961068752392
0.9053553310516431,-1.6831004358894406,5.111699279361799,1.325199276945431,-6.445549307081509,8.382514020645838
0.8885243266927487,-1.7475559289602556,5.124951272131254,1.4090244171518895,-6.4912675150996275,8.717999118369029
0.8710487674031462,-1.8124686041112519,5.139041516302773,1.4962044083355799,-6.558438855505269,9.067900461591735
0.8529240813620337,-1.8780529926663045,5.154003560386129,1.5868834129514973,-6.6495807246902725,9.434164037142649
0.8341435514353707,-1.9445487999132072,5.169872394515644,1.6812250533229238,-6.767411611245134,9.819264394520623
0.8146980634362386,-2.0122229160256584,5.1866846450488735,1.7794176972681301,-6.914897682884637,10.22627977431475
0.794575834275982,-2.081371892854505,5.204478822021555,1.8816804950112775,-7.095311951183455,10.658978217917221
0.773762115347437,-2.1523250123663393,5.223295626971668,1.9882702771904497,-7.312308142998158,11.12191786239613
0.7522388652237736,-2.225448093796321,5.243178329743572,2.099489455814411,-7.570011704796139,11.620565338258709
0.7299843842858104,-2.3011482108442824,5.264173224301716,2.215695109196998,-7.873130667927051,12.161436882221036
0.7069729021773675,-2.3798795175235528,5.286330175393687,2.337309478019208,-8.227089326394767,12.752267332351275
0.683174107002132,-2.4621504107875003,5.309703270173879,2.464832151342721,-8.638187648848644,13.40221234909538
0.658552602894257,-2.548532287275987,5.334351591687306,2.5988542748336747,-9.113788716070067,14.122088532743454
0.6330672800214971,-2.6396701744366875,5.360340134435643,2.7400751601611093,-9.662534576382784,14.924653680797991
0.6066705782771302,-2.7362955202005153,5.387740886037254,2.8893216969690894,-10.294586478885508,15.82492352352797
0.5793076230751251,-2.8392413849893705,5.416634103006945,3.047570932204369,-11.021876096713587,16.840508629512453
0.5509152092252314,-2.949460145956506,5.447109812328989,3.215976018499494,-11.858335617752447,17.991929627136294
0.5214206077656663,-3.0680435021340307,5.479269572513984,3.395895314770857,-12.82003806607411,19.30281883884026
0.490740172744326,-3.196243882794772,5.513228525661693,3.5889235031592595,-13.92510919139107,20.799820044804193
0.4587777339163783,-3.3354949747086824,5.549117760693285,3.7969217036073015,-15.193139355418218,22.51181451077005
0.4254227841692915,-3.487426368262865,5.587086977729358,4.022039848715002,-16.64357383141169,24.46775497022486
0.3905485204866629,-3.6538621065769816,5.627307376216508,4.26671739841725,-18.29209523281512,26.69174339883304
0.35400989942089306,-3.836783058905133,5.66997455020068,4.53363483240558,-20.14316626543764,29.192809950753418
0.31564206883184176,-4.038214721559509,5.715310898524736,4.825562931913114,-22.17542627121159,31.94478901486071
0.2752599216162467,-4.259968984271625,5.763566527843867,5.145010822061721,-24.314285442611947,34.84839273821875
0.23266023177353043,-4.503111838697745,5.815016636064485,5.493494749443909,-26.383088793378334,37.66338925142261
0.18762911338655297,-4.766942726631528,5.869951583558923,5.870128641958135,-28.02319203928636,39.89725994428438
0.13995968612023768,-5.0471746470243914,5.928652869978505,6.269101241400978,-28.584098943346376,40.651651024774004
0.08948793964999377,-5.333015636457855,5.991343882392514,6.675617751648718,-27.033453219268672,38.495751268635495
0.03615778328541522,-5.603350168650541,6.058100059909002,7.060575264335073,-22.060004645186122,31.608163425594444
-0.019875718401090196,-5.8239502151024025,6.128705812552353,7.376656898591017,-12.689161064658082,18.634037385845765
-0.07811522055211423,-5.9508418257489835,6.2024723815382625,7.562997272449475,0.49879624341804696,0.38332474257695165
-0.13762363880960407,-5.945853863314803,6.278102354262757,7.566830519875245,14.582587484070519,-19.076903209334272
-0.1970821774427521,-5.800027988474098,6.35377065946151,7.376061487781902,25.67816662935454,-34.3522254717507
-0.2550824573274931,-5.543246322180552,6.427531274339329,7.032539233064395,31.693414679754667,-42.55800540641779
-0.3105149205492986,-5.226312175383006,6.497856666669973,6.606959179000217,33.18753161918281,-44.49722927719934
-0.36277804230312866,-4.8944368591911775,6.563926258459976,6.161986886228224,31.918014231990266,-42.62298206900717
-0.4117224108950404,-4.575256716871275,6.625546127322258,5.735757065538152,29.421143039863797,-39.06617992639955
-0.45747497806375315,-4.2810452864726365,6.682903697977639,5.345095266274157,26.611907945419066,-35.088528322988594
-0.5002854309284795,-4.014926207018446,6.73635465064038,4.994209983044271,23.9247090310488,-31.28416599724031
-0.540434692998664,-3.7756791167079577,6.7862967504708225,4.681368323071869,21.524476844514364,-27.87507347124147
-0.5781914841657435,-3.560434348262814,6.833110433701541,4.402617588359454,19.447770828699685,-24.90715181965932
-0.6137958276483717,-3.365956639975817,6.877136609585135,4.153546070162861,17.677401128418786,-22.35335976572099
-0.6474553940481299,-3.189182628691629,6.918672070286764,3.930012472505651,16.177685577908218,-20.162156434665235
-0.6793472203350462,-3.027405772912547,6.957972195011821,3.7283909081589988,14.90981581345332,-18.278449756546667
-0.7096212780641717,-2.878307614778014,6.995256104093411,3.545606410593532,13.837903294042839,-16.651733478341505
-0.7384043542119518,-2.7399285818375856,7.030712168199346,3.379089075810117,12.930875658774255,-15.238560179190724
-0.7658036400303276,-2.610619825249843,7.064503058957447,3.2267034740182097,12.162631120705068,-14.002661592825923
-0.791909838282826,-2.488993514042792,7.0967700936976295,3.0866768580899504,11.511536962053222,-12.914200492227883
-0.8167997734232539,-2.37387814442226,7.127636862278529,2.9575348531676715,10.959745180382882,-11.94879484137418
-0.8405385548674765,-2.264280692618431,7.157212210810206,2.83804690475393,10.492519351617862,-11.086573078082296
-0.8631813617936608,-2.159355499102252,7.185592679857745,2.727181173973107,10.097642410243102,-10.311350360244909
-0.8847749167846833,-2.058379074999821,7.212864491597476,2.624067670370658,9.76492153036217,-9.609943619889247
-0.9053587075346815,-1.9607298596961993,7.239105168301183,2.5279682341717655,9.485784872524496,-8.971614992240214
-0.9249660061316435,-1.8658720109709543,7.264384850642901,2.4382520842493633,9.252957783146071,-8.38762415836745
-0.9436247262413531,-1.7733424331394936,7.288767371485394,2.354375842665689,9.060204906006511,-7.850869205785404
-0.961358150572748,-1.6827403840794284,7.312311129912051,2.275867150607835,8.902125874703001,-7.355597751410442
-0.9781855544135423,-1.5937191253323983,7.335069801418129,2.2023111730937304,8.773994159060264,-6.897173089016524
-0.9941227456668662,-1.5059791837417957,7.357092913149066,2.133339442203565,8.671630550057289,-6.471883112853543
-1.0091825375042842,-1.4192628782412229,7.378426307571102,2.06862061107503,8.591304433565835,-6.076782403703677
-1.0233751662866963,-1.3333498339055645,7.399112513681852,2.007852787037993,8.529657361305556,-5.709560066464468
-1.036708664625752,-1.248053260292509,7.419191041552232,1.9507571863733486,8.483644495386837,-5.368427701360934
-1.049189197228677,-1.1632168153386406,7.438698613415966,1.8970729093597392,8.450490326351815,-5.052023327663864
-1.0608213653820635,-1.0787119120751225,7.457669342509563,1.8465526760831006,8.42765569521121,-4.7593282161683925
-1.0716084845028147,-0.9944353551230104,7.476134869270394,1.7989593939214166,8.412813635523442,-4.48959447449795
-1.0815528380540447,-0.910307218767776,7.494124463209609,1.754063449176437,8.403831933027362,-4.242281908144957
-1.0906559102417224,-0.8262688994375024,7.511665097701373,1.7116406300949876,8.398760610858416,-4.017003182492144
-1.0989185992360975,-0.7422812933289182,7.528781504002323,1.6714705982700662,8.395822813456462,-3.81347666337521
-1.1063414121693866,-0.6583230651943536,7.545496209985024,1.633335831636314,8.393407800371882,-3.631486538804342
-1.1129246428213302,-0.5743889871906347,7.561829568301387,1.5970209662482706,8.390064984471307,-3.4708499430715385
-1.1186685326932366,-0.4904883373459216,7.577799777963869,1.5623124668175552,8.38449816429124,-3.331390836672504
-1.123573416066696,-0.4066433557030092,7.593422902632045,1.52899855845083,8.375559309784634,-3.2129203610694996
-1.127639849623726,-0.32288776260516283,7.608712888216553,1.496869354840135,8.362241463327937,-3.1152233058719436
-1.1308687272497777,-0.23926534797188348,7.623681581764955,1.4657171217814156,8.343670510140587,-3.0380502163728464
-1.1332613807294964,-0.1558286428704776,7.638338752982769,1.435336619617687,8.319095749482486,-2.9811145490275646
-1.1348196671582012,-0.07263768537565274,7.652692119178946,1.4055254741274115,8.287879355119157,-2.9440941667202325
-1.1355460440119576,0.010241108175538832,7.66674737392022,1.3760845324602091,8.249484946112561,-2.9266363670157887
-1.1354436329302022,0.09273595763666445,7.680508219244822,1.3468181687900513,8.203465593710707,-2.9283655642211444
-1.1345162733538356,0.17477061357377152,7.693976400932723,1.31753451314784,8.14945166522659,-2.9488927056581096
-1.1327685672180978,0.2562651302260374,7.707151746064201,1.288045586091259,8.087138951244619,-2.9878254964022215
-1.1302059159158375,0.3371365197384836,7.720032201925114,1.2581673311272368,8.01627753976939,-3.0447785342298115
-1.1268345507184527,0.4172992951361775,7.732613875236386,1.2277195457849386,7.936661892815012,-3.119382514696226
-1.1226615577670909,0.4966659140643276,7.744891070694235,1.1965257206379762,7.848122551065881,-3.211291750654839
-1.1176948986264477,0.5751471395749864,7.756856327900615,1.1644128031314278,7.7505198446593155,-3.3201893559030213
-1.1119434272306978,0.6526523380215796,7.768500455931929,1.1312109095723977,7.643739926820135,-3.445789563805007
-1.105416903850482,0.729089737289781,7.779812565027653,1.0967530139343475,7.527693375533159,-3.5878367841192715
-1.0981260064775842,0.8043666710451126,7.790780095166996,1.0608746460931548,7.4023165294459705,-3.746101141317865
-1.090082339767133,0.8783898363395723,7.801388841627928,1.0234136346799763,7.267575639638057,-3.9203703831345402
-1.0812984414037374,0.9510655927359529,7.811622977974728,0.9842099308486308,7.1234738297690985,-4.110438197825108
-1.071787785476378,1.0223003310336438,7.821465077283214,0.9431055488703798,6.970060763681108,-4.316089132514389
-1.0615647821660414,1.0920009386704548,7.830896132771918,0.8999446575452359,6.8074448215591215,-4.537080463382619
-1.0506447727793369,1.160075386886046,7.83989557934737,0.8545738529114097,6.63580748295635,-4.773121531540759
-1.0390440189104764,1.2264334617156096,7.8484413178764845,0.8068426375960022,6.455419507454784,-5.023851225681333
-1.0267796842933203,1.2909876567901575,7.8565097442524445,0.7566041253391889,6.26665839245777,-5.288814461842525
-1.0138698077254187,1.3536542407147352,7.864075785505836,0.7037159807207636,6.070026475009738,-5.567438677513181
-1.0003332653182713,1.4143545054648325,7.871112945313044,0.6480415939456318,5.8661689348909745,-5.859011514647023
-0.986189720263623,1.4730161948137424,7.8775933612525,0.5894514787991615,5.655890856009163,-6.162661003620017
-0.9714595583154855,1.529575103373834,7.883487876040491,0.5278248687629613,5.44017242106293,-6.477339664327995
-0.9561638072817471,1.5839768275844635,7.888766124728121,0.46305147211968134,5.22018126143482,-6.801813995480679
-0.9403240390059024,1.6361786401988117,7.893396639449318,0.3950333321648746,4.997280972637568,-7.134660811232849
-0.9239622526039143,1.6861514499251873,7.897346972770967,0.32368672405254606,4.773034848222139,-7.474271788424297
-0.9071007381046624,1.7338817984074086,7.9005838400114925,0.2489440061683031,4.54920399369303,-7.818867393356077
-0.8897619201205883,1.779373838344339,7.903073280073175,0.17075533223474232,4.327739165639151,-8.166521055191112
-0.871968181737145,1.8226512300007305,7.904780833395523,0.0890901216828312,4.1107659440103115,-8.515194043226954
-0.8537416694371377,1.8637588894408337,7.905671734612351,0.003938181250561668,3.9005631843168365,-8.862780998215394
-0.8351040805427293,1.902764521284002,7.905711116424857,-0.08468962873159228,3.699535099997052,-9.207165487566533
-0.8160764353298893,1.9397598722839726,7.904864220137541,-0.17676128360725762,3.5101777724371037,-9.546284338356967
-0.7966788366070495,1.9748616500083436,7.903096607301468,-0.2722241269908273,3.335041347409141,-9.878198900532274
-0.7769302201069661,2.008212063482435,7.90037436603156,-0.3710061159961501,3.1766896153678967,-10.201170864143595
-0.7568480994721417,2.039978959636114,7.8966643048715985,-0.473017824637586,3.0376590490502577,-10.513739860288606
-0.7364483098757806,2.070355550126617,7.891934126625222,-0.5781552232404721,2.9204196464841896,-10.814799872425024
-0.7157447543745145,2.0995597465914586,7.886152574392818,-0.6863032219647223,2.8273400690507016,-11.103671517042784
-0.6947491569085998,2.1278331472819656,7.87928954217317,-0.7973399371351502,2.760659553118543,-11.38016754457871
-0.6734708254357802,2.155439742813151,7.871316142801819,-0.9111416125809373,2.722468906919882,-11.644649462253808
-0.6519164280076487,2.18266443188235,7.862204726676009,-1.0275881072034754,2.7147025973530434,-11.898073962985213
-0.6300897836888252,2.20981145785588,7.851928845603974,-1.1465688468333275,2.7391435181127535,-12.142028807421632
-0.6079916691102664,2.237202893037008,7.840463157135641,-1.2679891349075438,2.797441559834119,-12.378758880728705
-0.5856196401798963,2.265177308635349,7.827783265786565,-1.3917767237148309,2.891146633200578,-12.61118425535937
-0.5629678670935429,2.2940887749673546,7.813865498549417,-1.5178885662684245,3.021756388178144,-12.84291316214829
-0.5400269793438693,2.3243063388491363,7.7986866128867325,-1.6463176978899074,3.1907785829258772,-13.078253744638438
-0.516783915955378,2.356214124678395,7.7822234359078335,-1.777100235336292,3.3998079294018293,-13.322229306808026
-0.493221774708594,2.3902122039724136,7.764452433554471,-1.9103225284043721,3.65061730759847,-13.580602448151042
-0.4693196526688699,2.4267183770483984,7.745349208270428,-2.0461285528858824,3.945263504591262,-13.859914020428905
-0.4450524688983859,2.466171012094311,7.724887922741569,-2.1847276930901716,4.28620808177385,-14.167543258260865
-0.4203907587774428,2.5090330929120497,7.703040645810668,-2.32640312567278,4.676454556899897,-14.51179574662835
-0.3953004278483223,2.5557976384810486,7.67977661455394,-2.4715210831390637,5.119703716221939,-14.902026071676671
-0.3697424514635118,2.606994675643268,7.655061403722549,-2.6205413438558303,5.620529383420279,-15.348801948092234
-0.3436725047070791,2.6631999694774704,7.6288559902839905,-2.7740293633367528,6.184577073932047,-15.864116039756016
-0.3170405050123044,2.7250457402167907,7.601115696650623,-2.9326705237343127,6.8187871217455935,-16.461649963039193
-0.2897900476101365,2.7932336114342466,7.571788991413279,-3.0972870233647045,7.5316410904425615,-17.15709081746472
-0.261857711495794,2.868550022338672,7.540816121179632,-3.2688579315393516,8.333423717945513,-17.96849155976845
-0.23317221127240728,2.951884259518127,7.508127541864239,-3.448542847137036,9.236478809114026,-18.916647896443568
-0.203653368677226,3.0442490476092674,7.473642113392868,-3.6377093261014717,10.255409806822904,-20.025427111550236
-0.17321087820113332,3.1468031456774965,7.4372650201318535,-3.837963597216974,11.407121824206195,-21.321911265715546
-0.14174284674435836,3.2608743639195583,7.3988853841596836,-4.051182709874129,12.710498294513373,-22.836076099798387
-0.10913410310516278,3.387979346864692,7.3583735570609425,-4.279543470872113,14.185308218328313,-24.599456806772587
-0.07525430963651586,3.5298324290479752,7.315578122352221,-4.525538038939839,15.849568386987558,-26.64173981977352
-0.03995598534603611,3.688328112917851,7.270322741962823,-4.791955437137574,17.71389521542264,-28.983264651446333
-0.003072704216857597,3.8654670650720773,7.222403187591447,-5.081788083652037,19.77013765264189,-31.61969038748163
0.035581966433863174,4.0631684415984965,7.171585306754927,-5.397984987526853,21.969474942638506,-34.492135226772504
0.07621365084984813,4.282863191024882,7.117605456879658,-5.742906339794578,24.18205999610644,-37.43173216807026
0.11904228276009696,4.5246837909859465,7.060176393481712,-6.117223661475281,26.12738312982343,-40.0633840441289
0.16428912066995643,4.78595762228418,6.99900415686696,-6.51785750191657,27.268035476711706,-41.65815960649743
0.21214869689279825,5.058637977051298,6.933825581847794,-6.934439097981544,26.689314735258012,-40.964920392446324
0.26273507666331125,5.325531124403878,6.864481190867978,-7.344088301906007,23.08401598028013,-36.18660271387928
0.31599038790735,5.556371284206679,6.791040307848918,-7.7059543290448,15.139621224617322,-25.514805661565024
0.3715541007494168,5.707767496452853,6.713980764558469,-7.96110238566045,2.6378990228034094,-8.654562206775621
0.42863177571394534,5.734146486680887,6.634369740701865,-8.047648007728206,-12.258875158459603,11.394786178584175
0.4859732405807542,5.611557735096291,6.553893260624583,-7.933700145942365,-25.449486519163244,28.967834455296085
0.5420888179317171,5.3570628699046585,6.474556259165159,-7.644021801389404,-33.716601204229434,39.66001168012289
0.5956594466307638,5.019896857862364,6.398116041151265,-7.247421684588176,-36.760474161607334,43.12295863304413
0.6458584152093874,4.652292116246291,6.325641824305384,-6.816192098257734,-36.256673342052586,41.71987787663971
0.6923813363718503,4.289725382825765,6.257479903322807,-6.398993319491337,-34.02933504287293,37.98555452368856
0.7352785902001079,3.949432032397035,6.193489970127893,-6.019137774254451,-31.262610363121276,33.54910705120615
0.7747729105240783,3.6368059287658223,6.133298592385349,-5.68364670374239,-28.545657111264074,29.211052041493577
0.8111409698117364,3.3513493576531816,6.076462125347925,-5.391536183327454,-26.113616089615274,25.28387188266977
0.8446544633882682,3.0902131967570288,6.022546763514651,-5.138697464500757,-24.028839369887752,21.844643453695916
0.8755565953558385,2.849924803058151,5.9711597888696435,-4.920251029963797,-22.28004988808722,18.87201868997643
0.9040558433864201,2.627124304177279,5.921957278570005,-4.731530843064033,-20.829604643461543,16.310897852675655
0.9303270864281928,2.4188282577426636,5.874641970139365,-4.568421864537276,-19.634125997364773,14.100303788332901
0.9545153690056195,2.222486997769016,5.828957751493992,-4.427418826653947,-18.652665051223135,12.184176745478178
0.9767402389833096,2.0359603472567844,5.7846835632274525,-4.305577059199166,-17.84934792463161,10.51469303012852
0.9970998424558775,1.8574668680104685,5.741627792635461,-4.200430128897881,-17.193719893435148,9.052513129099689
1.0156745111359822,1.685529669076117,5.699623491346482,-4.1099049976068835,-16.660223096668894,7.765906358696992
1.0325298078267433,1.518927438109428,5.658524441370413,-4.0322459340199135,-16.227426964261724,6.629578811800625
1.0477190822078375,1.3566531684668108,5.618201982030214,-3.9659501459019073,-15.877263634412314,5.623532318001174
1.0612856138925055,1.1978805321226877,5.578542480571195,-3.9097148227218956,-15.59435922739368,4.732065136001696
1.0732644192137324,1.041936939848751,5.539445332343976,-3.8623941713618786,-15.365483244904802,3.9429346014797324
1.08368378861222,0.888282107399703,5.500821390630358,-3.822964825347081,-15.179111166689237,3.2466674468550085
1.092566609686217,0.7364909957328106,5.462591742376887,-3.790498150878531,-15.025086171133033,2.6359932139040443
