th1 (rad),w1 (rad/s),th2 (rad),w2 (rad/s)
4.2204384460077495,2.577444256758597,2.9592261400925417,1.0571639270275883
4.246212888575336,2.6551767328459834,2.9697977793628176,1.0789827677856223
4.272764655903796,2.733070432552691,2.980587607040674,1.1070957531466383
4.300095360229323,2.8110953906014045,2.9916585645721403,1.1417423998918665
4.328206314135337,2.889217444822554,3.003075988571059,1.1831605846491342
4.357098488583563,2.9673960137181172,3.0149075944175503,1.2315855663022022
4.386772448720744,3.045581585171536,3.027223450080572,1.287248753828833
4.417228264572459,3.1237129073781777,3.0400959376188603,1.35037616698814
4.448465393646241,3.2017138760356865,3.0535996992887418,1.4211865363716796
4.480482532406597,3.2794901159283047,3.0678115646524584,1.499888990423812
4.5132774335658805,3.3569252606301423,3.0828104545566966,1.586680280585836
4.546846686172182,3.433876941542923,3.0986772573625547,1.6817415022422366
4.581185455587611,3.5101725072941368,3.115494672384977,1.7852342792154408
4.616287180660552,3.585604507060092,3.133347015177131,1.8972963937758962
4.6521432257311535,3.6599259870042085,3.1523199791148904,2.018036863126852
4.688742485601195,3.7328456679958553,3.172500347746159,2.1475304876765473
4.7260709422811535,3.8040230952051033,3.193975652622924,2.285811926621498
4.764111173233204,3.873063875933928,3.216833771889139,2.432869392759691
4.802841811992543,3.939515150719203,3.241162465816736,2.588638101092153
4.842236963499736,4.002861473509192,3.2670488468276573,2.752993654340888
4.882265578234827,4.062521308273522,3.2945787833710662,2.9257456022043615
4.922890791317562,4.1178443798905455,3.32383623939311,3.1066314685759178
4.964069235116468,4.168110144062597,3.354902554078869,3.29531159994511
5.005750336557094,4.2125276611549225,3.38785567007832,3.491365245883418
5.047875613168643,4.250237168371639,3.422769322537154,3.6942883351673044
5.09037798485236,4.28031363908259,3.459712205888827,3.9034934542138155
5.133181121243186,4.301772592430882,3.4987471404309654,4.118312562931318
5.176198847167495,4.313578365393681,3.5399302660602787,4.338002991214261
5.2193346308214315,4.314654978230331,3.5833102959724212,4.561757241457455
5.262481180603735,4.303899608478775,3.6289278683869957,4.788717073427754
5.305520176688523,4.280198535624252,3.6768150391212733,5.017992263640814
5.348322162044766,4.242445228013092,3.7269949617576814,5.248684310315814
5.390746614324897,4.189560018836714,3.7794818048608394,5.479915198751165
5.432642214513264,4.120510567045697,3.834280956848351,5.710861157133766
5.4738473201837206,4.0343320353976795,3.8913895684196884,5.940791132044698
5.514190640537698,3.9301456609608034,3.9507974797401353,6.1691095159572
5.553492097147306,3.8071741682881304,4.012488574899708,6.395402492534414
5.591563838830187,3.6647523113226472,4.076442599825052,6.619487261613647
5.628211361943414,3.5023307580964533,4.142637472441188,6.841463397937764
5.663234669524379,3.319471583651202,4.211052106420565,7.061765713691198
5.696429385360891,3.1158338425690233,4.281669763557478,7.281218244787257
5.7275877237865815,2.8911480902626043,4.35448194600535,7.501089338007465
5.756499204689208,2.645179373376142,4.429492839385425,7.723148185301324
5.782950998422969,2.37767924338582,4.506724321238438,7.949723311440334
5.806727790856827,2.088329050002243,4.586221554352841,8.183763012766194
5.827611081356849,1.7766797651774913,4.668059184480503,8.428895646198782
5.845377879008624,1.442099188507915,4.752348140942491,8.689482133181107
5.859798870893703,1.0837482907383102,4.8392429622743025,8.970640364534354
5.870636353801086,0.7006300821399677,4.928949365919646,9.27819394307821
5.877642654622486,0.2917972768583698,5.021731305350428,9.618441308871468
5.88056062739107,-0.14311162070560562,5.117915718439143,9.997528706503312
5.879129511184014,-0.6026843152906566,5.217891005504176,10.419998150409302
5.873102668031107,-1.0813206471115366,5.322090987008268,10.885727244168724
5.862289461559992,-1.5647393190012566,5.430948259449956,11.384061533664871
5.846642068369979,-2.0227424632786186,5.5447888747866045,11.884120783734987
5.826414643737193,-2.4009135717756602,5.663630082623954,12.323321382089729
5.8024055080194366,-2.6202011304416453,5.786863296444851,12.605958028913088
5.77620349671502,-2.6019867344076046,5.912922876733982,12.635479900457081
5.750183629370944,-2.320440232045832,6.039277675738553,12.382795400910188
5.726979227050485,-1.8314332882257678,6.163105629747656,11.922397468547368
5.708664894168227,-1.2322190458350117,6.282329604433129,11.376843368338823
5.6963427037098775,-0.6020237887148094,6.396098038116517,10.839374687839904
5.69032246582273,0.016766590154679628,6.504491784994916,10.352624055967805
5.690490131724276,0.6078509107555928,6.608018025554594,9.925347349683909
5.696568640831832,1.1675032454923229,6.7072714990514335,9.550988197767007
5.708243673286756,1.6966155035484118,6.802781381029104,9.218015384579937
5.72520982832224,2.19710081201219,6.894961534874903,8.914322572837944
5.747180836442362,2.6705229622870723,6.984104760603282,8.628782024521668
5.7738860660652325,3.1177015417016225,7.070392580848499,8.351658732019303
5.805063081482249,3.538714986637605,7.153909168168692,8.074632841184364
5.840450231348625,3.9330567435854036,7.234655496580536,7.790722201818943
5.87978079878448,4.299843625618134,7.312562718598725,7.494204926071853
5.922779235040661,4.638033737086494,7.387504767859443,7.180565493404288
5.969159572411526,4.946633793055766,7.459310422793486,6.846459289465245
6.018625910342084,5.224883989385898,7.527775015688138,6.489681338237424
6.070874750235943,5.4724119476654405,7.592671829070512,6.109124094433652
6.125598869712597,5.689349420492463,7.653763070014849,5.704711945946785
6.182492363917522,5.87640777920913,7.710810189474317,5.277304536209313
6.241256441709613,6.034911125204193,7.7635832348364096,4.828566089330727
6.301605552961655,6.166788988568077,7.811868895729717,4.3608028842496
6.363273442847335,6.274533636597755,7.855476924572213,3.876775314918513
6.4260187792133125,6.36112961484473,7.894244677721398,3.3794941581099742
6.4896300753617595,6.429964952453314,7.928039619302497,2.8720124652217054
6.553929724886292,6.484734255447727,7.956759743954715,2.3572248029355483
6.61877706744077,6.529343581521753,7.9803319919840705,1.8376845199775915
6.684070503255987,6.567825539477429,7.998708837183846,1.3154477030375717
6.749748758650761,6.604270539972917,8.011863314214223,0.7919501742133712
6.81579146405049,6.642776536534834,8.019782815956356,0.26792225276968706
6.882219229415838,6.6874146783963395,8.022462038484052,-0.25665357323518534
6.9490933761998015,6.742201224936842,8.0198955027517,-0.7825324360840903
7.01651538844917,6.811054961335655,8.012070178390859,-1.311122976609938
7.084625938062526,6.897700516499356,7.998958948624759,-1.8442836487824046
7.153602943227519,7.005444979934175,7.980516112136935,-2.383908040140955
7.223657393026861,7.136698551660035,7.956677031735525,-2.9311279783785738
7.295024378543461,7.2920212049896085,7.92736575195174,-3.484838487595045
7.367944590593357,7.468370558730167,7.892517367075789,-4.039100658182169
7.442628296180659,7.656210386080664,7.852126360493967,-4.57896355138425
7.519190400041465,7.835590660350776,7.806336724980125,-5.074897821454458
7.597546306644973,7.973035636581878,7.75558774676558,-5.47848903203857
7.677276663010792,8.024518503572473,7.700802856445194,-5.726904416710446
7.757521848046517,7.951295690624817,7.64353381227809,-5.765702189855319
7.837034804952765,7.744838164906435,7.585876790379537,-5.584511552408736
7.91448318660183,7.437482105529972,7.530031674855449,-5.2322255840284235
7.98885800765713,7.082851069749139,7.477709419015165,-4.78892007919746
8.05968651835462,6.727043201560189,7.42982021822319,-4.324328911063412
8.126956950370223,6.396487444744082,7.386576929112556,-3.87996294497258
8.190921824817664,6.101338374980643,7.347777299662829,-3.4735688184184843
8.25193520856747,5.842634039023622,7.313041611478645,-3.1092265886220503
8.310361548957706,5.617468625885656,7.281949345592424,-2.7847855559259544
8.366536235216563,5.42172327201098,7.254101490033165,-2.4958738994738128
8.420753467936672,5.251274189315641,7.2291427510384265,-2.2377343773525595
8.473266209829829,5.102440521495481,7.206765407264901,-2.005954461164433
8.524290615044784,4.972095207502464,7.186705862653256,-1.7966931519371039
8.574011567119808,4.857641596233446,7.168738931133885,-1.6066976257015795
8.622587983082141,4.756945586142981,7.152671954876869,-1.4332424004417799
8.670157438943571,4.668260450892328,7.138339530872451,-1.2740479149805757
8.716840043452494,4.590158222673142,7.125599051722645,-1.1272012238226596
8.762741625679226,4.521471628305329,7.114327039484419,-0.9910866068200708
8.80795634196228,4.461246639316012,7.104416173416218,-0.8643276714243483
8.85256880835544,4.408704326055394,7.095772896701974,-0.7457401374246037
8.896655851615993,4.3632103969391265,7.088315495327728,-0.6342937543895206
8.940287955585385,4.3242509015809745,7.081972557783833,-0.5290817369616754
8.983530464601195,4.291412801520932,7.076681740414216,-0.42929628556476995
9.026444592616404,4.2643683511113,7.072388777558568,-0.33420900823581123
9.069088276127516,4.242862442722753,7.0690466874762095,-0.2431553007594887
9.111516900554744,4.226702244011278,7.066615134468615,-0.15552195243574168
9.153783922994856,4.215748591767126,7.065059914944257,-0.07073741908594453
9.195941408912528,4.20990871209352,7.064352540753397,0.011735653603964905
9.238040496033463,4.209129916320229,7.064469897289436,0.09240595924080883
9.280131795196665,4.213393981649822,7.065393956881844,0.1717573232286438
9.322265735013163,4.222711969755445,7.067111530114131,0.25025089504146425
9.364492854710717,4.237119269305109,7.069614039064546,0.3283258164083959
9.406864047403769,4.256670672947711,7.0728972972286295,0.4063983931074507
9.449430754133246,4.281435318461493,7.076961281159704,0.48485976013829685
9.492245107317862,4.311491340015981,7.081809878761087,0.5640720022412398
9.535360020718022,4.346920091096835,7.087450598783499,0.6443626744339319
9.57882922162899,4.387799817688774,7.093894225527838,0.7260176614799901
9.622707219805877,4.434198680735287,7.101154402142638,0.8092723224857165
9.66704920661323,4.486167052392431,7.109247125367495,0.894300888886752
9.711910877137154,4.543729042512103,7.118190134256363,0.981204122635584
9.757348167562276,4.606873250960288,7.1280021754827185,1.0699952977470155
9.803416900071879,4.675542787952201,7.138702128460189,1.1605846430645448
9.8501723279514,4.749624657922883,7.1503079748908345,1.2527624766614345
9.897668574530629,4.828938661096464,7.162835599657448,1.3461813709012902
9.945957961141593,4.91322602880513,7.176297413366461,1.440337808856129
9.995090221429644,5.002138071529553,7.190700791455022,1.534553923723077
10.045111602144939,5.095225181006116,7.206046330692253,1.6279600493515736
10.096063853955,5.191926589658185,7.222325931185769,1.7194789495152896
10.147983119851581,5.291561354930311,7.239520720680922,1.807812736281461
10.200898733400884,5.393321109363372,7.257598848043736,1.891433637527971
10.254831944494518,5.496265209753901,7.276513184419016,1.9685799377137925
10.309794596592056,5.599319043337784,7.296198983796153,2.037258603377634
10.365787787025434,5.701276417749068,7.31657156982993,2.095256321118633
10.422800551202926,5.800807180121004,7.337524133041116,2.1401609146750262
10.480808623004135,5.8964714696541005,7.358925742187866,2.169395338675225
10.539773337700677,5.986742272005833,7.380619695574619,2.1802666003059663
10.599640760420735,6.070038140583758,7.4024223615776785,2.1700319141713003
10.660341141826573,6.144767961395596,7.424122680719392,2.135983967342526
10.721788821440528,6.209389301751984,7.445482520392817,2.075556127099262
10.783882714458048,6.262481009307274,7.46623808166381,1.9864465162245224
10.846507524551122,6.302829146136268,7.4861025468260545,1.8667569303649603
10.909535816012484,6.329522981117128,7.504770116129704,1.7151385937180417
10.972831045823655,6.342054758120584,7.521921502066884,1.5309321088812984
11.036251593404861,6.340413755968253,7.537230823155697,1.3142845016987825
11.099655730964544,6.325162564090917,7.550373668172685,1.0662233295489785
11.162907356605453,6.29748257715903,7.561035901468174,0.7886680083508694
11.225882182377044,6.259177480409115,7.568922581551683,0.484363148580506
11.288473957181134,6.212628462075862,7.573766213037488,0.1567281085497268
11.350600241801892,6.160702592175295,7.575333494122986,-0.19037010015937378
11.412207267723645,6.106624665385809,7.573429793121392,-0.5528999360581293
11.473273514377503,6.053830477972529,7.567900793760811,-0.9269736788570213
11.53381181915723,6.005823746654109,7.55863105697224,-1.3091466529245601
11.59387005662377,5.9660584919480675,7.545539590442995,-1.6966773873396155
11.65353064154325,5.937864114955219,7.528572816569598,-2.0877299121162745
11.712909282692802,5.924423416987584,7.507695517448435,-2.481513971640091
11.772153516862678,5.928806863077645,7.482880377732035,-2.8783731547573512
11.831441585493454,5.954061536515768,7.454096646184461,-3.279841959711341
11.890982200858613,6.003351572027033,7.421298226587348,-3.688699568942075
11.951015716578883,6.080148421198821,7.3844112308979275,-4.1090511648246615
12.01181720079087,6.188473249756171,7.3433207192496806,-4.546468267124919
12.073701933288433,6.333198388829446,7.297856036578431,-5.008218445831529
12.137033917176728,6.520416611005501,7.247773852120116,-5.503609559865911
12.202238083286783,6.757877599656879,7.192737756521457,-6.044454179384339
12.269816859283353,7.055447305008141,7.132293214727614,-6.645594722635942
12.340371332333435,7.425404038955559,7.065837267501255,-7.325230104325787
12.414625372722991,7.881969777377356,6.992584966457997,-8.10420519565288
12.493445070496765,8.438327456948441,6.911542914501468,-9.00182274619094
12.57782834506625,9.096470685447933,6.821524687039559,-10.021676078151689
12.668793051920728,9.819509878511433,6.721307926258042,-11.11298103212491
12.766988150705842,10.47440839142265,6.610178115936793,-12.090544447036685
12.871732234620069,10.783097544780746,6.489272671466426,-12.566530789145894
12.979563210067877,10.475956055996935,6.3636073635749675,-12.16571363317143
13.084322770627846,9.668546316821153,6.241950227243253,-11.051972239832324
13.181008233796058,8.75641878685158,6.131430504844929,-9.778820945695436
13.268572421664574,7.9664134677409955,6.033642295387975,-8.663100946415865
13.348236556341984,7.3340646706080985,5.947011285923816,-7.75510292280082
13.421577203048065,6.833880885066484,5.869460256695808,-7.0202812836891315
13.48991601189873,6.43486589805982,5.799257443858917,-6.41635301788498
13.554264670879329,6.112392813586327,5.735093913680067,-5.909759466723729
13.615388599015192,5.848509115311139,5.675996319012829,-5.476124392782425
13.673873690168303,5.630283813377144,5.621235075085004,-5.098021788720834
13.730176528302074,5.448286053328664,5.570254857197796,-4.762936907395874
13.784659388835362,5.295478569745034,5.522625488123837,-4.4618094195103275
13.837614174532812,5.166453754144624,5.478007393928734,-4.188058178866636
13.889278712074258,5.0569071375969905,5.436126812140068,-3.936941151235476
13.939847783450228,4.963268763592753,5.396757400627713,-3.7051371872496306
13.989480471086155,4.882440773810865,5.359706028755217,-3.4904707136860282
14.038304878824263,4.811610522744814,5.324801321618357,-3.2917238086269647
14.086420984051712,4.748123274967493,5.2918840835320875,-3.1084939499830213
14.133902216801387,4.689408544935966,5.260799144032258,-2.94106360336873
14.180796302250746,4.632960079104665,5.23138850799857,-2.7902534380640254
14.227125903041793,4.5763710836727824,5.20348597361793,-2.657237847521178
14.27288961387852,4.517422905263606,5.176913595142718,-2.5433125556825202
14.318063842931156,4.454216901414051,5.151480469585893,-2.4496207402668992
14.362606011945298,4.385327370541358,5.126984262183224,-2.3768645419188195
14.406459285650712,4.3099422376573715,5.103215616764036,-2.3250473918745787
14.449558708027286,4.2279534464746655,5.07996514284529,-2.2933009677525122
14.491838242492033,4.139965498347156,5.057032133167764,-2.279841735674741
14.533237897475505,4.047208889861317,5.034233715811017,-2.282075191749199
14.573709986374118,3.9513700375635485,5.011412963893525,-2.296829126906672
14.613223686749754,3.8543713286662675,4.988444672624459,-2.320664573981878
14.651767400036416,3.7581456616319273,4.96523802688464,-2.3501974143374236
14.689348856652735,3.6644460532412624,4.941736052741265,-2.382369667944807
14.725993317185148,3.574715974184,4.917912356061817,-2.4146320936337626
14.761740476926988,3.490027340073585,4.893766035125479,-2.4450278564868704
14.796640750327724,3.4110775267957996,4.86931575656061,-2.472190202283257
14.830751525595682,3.338228136449185,4.844593854537777,-2.4952798090464787
14.864133806960174,3.2715665632009867,4.819641056447312,-2.51388980369592
14.896849472592184,3.2109744615539015,4.794502158410353,-2.5279417608057844
14.928959217207723,3.1561922666049393,4.769222740802295,-2.537588451341504
14.960521139873773,3.1068738855611104,4.74384685628888,-2.5431317528171866
14.991589878729384,3.062629507344275,4.718415538760708,-2.5449585183353682
15.022216173802827,3.023056912837349,4.692965953577355,-2.543493668215982
15.0524467429312,2.9877629185780963,4.667531016895195,-2.539167985592829
15.082324372116982,2.9563770127770765,4.642139337039267,-2.532397520096573
15.111888142244753,2.9285591856784348,4.616815361838301,-2.5235716238759722
15.141173734101537,2.9040036695609674,4.591579645599542,-2.5130470895467663
15.170213770797147,2.8824399463830352,4.566449174704075,-2.50114639853655
15.199038170260978,2.863632039068226,4.541437710718709,-2.488158597604461
15.22767449065166,2.8473768131092045,4.516556124742665,-2.474341748775271
15.256148258782753,2.8335017880208917,4.491812707254912,-2.4599262315514627
15.284483276662963,2.821862788809293,4.467213444939397,-2.4451184237450247
15.312701904551055,2.8123416461940822,4.442762260701947,-2.4301044637333087
15.340825321012996,2.8048440700174107,4.418461216064614,-2.415053918526527
15.36887376171317,2.799297763354878,4.394310676879349,-2.4001232629904687
15.396866739346718,2.7956508073601545,4.370309444249444,-2.3854591273186236
15.42482324742032,2.7938703226641324,4.346454852976258,-2.3712013009841906
15.452761950646963,2.7939413975912624,4.322742839966416,-2.3574854980652646
15.480701364622876,2.7958662631193407,4.299167984985764,-2.3444458951877296
15.50866002725407,2.799663686818493,4.275723526033887,-2.3322174519812093
15.536656664122255,2.805368550945106,4.252401351514075,-2.3209380162913944
15.564710349631707,2.813031571737001,4.2291919713511605,-2.310750202857856
15.592840665349076,2.822719106169401,4.206084469322582,-2.3018030143414414
15.62106785641077,2.8345129773436413,4.183066439179168,-2.2942531463079123
15.649412986184206,2.848510228457108,4.1601239077160885,-2.2882658811615095
15.677898088468778,2.8648226858231536,4.137241248904473,-2.284015427493263
15.70654631532701,2.8835761712434476,4.114401094629541,-2.2816844976643416
15.735382077039445,2.904909150550438,4.091584249652898,-2.281462834101219
15.764431168544949,2.9289705358571556,4.068769621311885,-2.2835442903414043
15.79372087390352,2.9559162724598926,4.045934178408471,-2.2881219443303964
15.82328003662812,2.9859042384624805,4.023052958965167,-2.295380570517046
15.853139079012745,3.0190868724287734,4.000099153259996,-2.305485633381273
15.883329947737034,3.055600838197788,3.9770442969261834,-2.318567812123542
15.913885956119012,3.0955529701428595,3.953858618804948,-2.3347019730882805
15.94484148582044,3.1390017773657393,3.930511599074065,-2.353879560501501
15.976231503594098,3.185934020152431,3.90697280346905,-2.3759737187176726
16.00809084379562,3.2362364493336515,3.8832130662818733,-2.400697294945764
16.04045320828896,3.2896638957259503,3.859206093332416,-2.427555452969543
16.073349847246217,3.34580667316302,3.8349305388027206,-2.4557971847722757
16.106807913977846,3.4040627389421183,3.8103725669549977,-2.4843735721506945
