th1 (rad),w1 (rad/s),th2 (rad),w2 (rad/s)
2.943416703346382,2.6869506484461945,0.38103233109317614,0.1302133625451462
2.970286209830844,2.6591659357278092,0.3823344647186276,0.11003418250888447
2.996877869188122,2.633351324690323,0.3834348065437164,0.08869261092414868
3.0232113824350253,2.6095961416707025,0.3843217326529579,0.06645732944296098
3.049307343851732,2.587994310991862,0.3849863059473875,0.04359508176770287
3.075187286961651,2.5686439590559513,0.38542225676506453,0.02036999763553928
3.1008737265522104,2.551646900049395,0.3856259567414199,-0.0029572996141070916
3.1263901955527045,2.5371079636194267,0.3855963837452788,-0.026130849593095314
3.151761275188899,2.525134125358764,0.38533507524934785,-0.04890082428435068
3.1770126164424863,2.515833403167275,0.38484606700650437,-0.07102535738946938
3.202170950474159,2.509313487071169,0.38413581343260966,-0.09227277553467508
3.2272640853448706,2.5056800774009935,0.3832130856772629,-0.11242426394275887
3.2523208861188806,2.5050349168343766,0.38208884303783536,-0.13127698498072948
3.2773712352872244,2.507473516035852,0.3807760731880281,-0.1486476484125904
3.302445970447583,2.513082590575045,0.37928959670390217,-0.1643765070346167
3.327576796353333,2.521937248229178,0.377645831633556,-0.17833172093483157
3.352796168835625,2.5340979899770466,0.37586251442420765,-0.19041399882099533
3.3781371487353957,2.549607613739523,0.3739583744359977,-0.20056138738166934
3.4036332248727907,2.568488135431416,0.371952760562181,-0.20875404197320227
3.4293181062271048,2.59073786487791,0.369865220142449,-0.21501877730750601
3.455225484875884,2.6163287919922418,0.3677150323693739,-0.2194331690548998
3.4813887727958064,2.645204448612874,0.3655207006788249,-0.2221289603820827
3.5078408172819353,2.677278411146825,0.3632994110750041,-0.22329452514061396
3.5346136013934037,2.712433596943171,0.3610664658235979,-0.22317615456817785
3.5617379373628353,2.750522482490348,0.35883470427791614,-0.22207796839611704
3.589243162187739,2.791368334820916,0.35661392459395497,-0.22036030372979964
3.617156845535948,2.8347675011101248,0.35441032155665697,-0.2184365034571341
3.6455045205470493,2.8804927488868253,0.3522259565220856,-0.21676810574683758
3.6743094480359177,2.928297594995117,0.3500582754646172,-0.21585852140630002
3.703592423985869,2.9779215102738736,0.3478996902505542,-0.2162453696874145
3.733371639088608,3.0290958433763344,0.3457372365536801,-0.21849171888930818
3.763662597522371,3.081550274821062,0.34355231936478703,-0.22317654014742677
3.794478100270582,3.135019593453841,0.34132055396331273,-0.23088472715262714
3.8258282962051204,3.18925058263738,0.3390117066917865,-0.24219705930696983
3.857720802031494,3.244008811823486,0.3365897360987168,-0.25768049114227737
3.890160890149729,3.2990851487178134,0.334012931187294,-0.27787913856017277
3.923151741636907,3.3543018353992076,0.3312341398016923,-0.3033063056038494
3.956694759990899,3.4095180057720778,0.3282010767456538,-0.3344378575732023
3.9907899400486198,3.464634559213755,0.3248566981699218,-0.37170720086640424
4.025436285640757,3.519598344452294,0.32113962616125774,-0.4155020801403461
4.06063226908528,3.574405647514487,0.3169846053598543,-0.4661633519399371
4.096376325560425,3.6291050176092785,0.31232297184045493,-0.5239858432130708
4.132667375736518,3.68379950512221,0.3070831134083242,-0.5892213553635355
4.16950537078774,3.738648426823428,0.3011908998546889,-0.6620838321468969
4.206891855055974,3.793868815372733,0.2945700615332199,-0.7427566756653163
4.2448305432097015,3.849736753723521,0.2871424947765667,-0.8314021724140717
4.283327910746936,3.906588840682457,0.27882847305242603,-0.9281729847991292
4.322393799153761,3.96482408258772,0.2695467432044347,-1.0332256772952733
4.362042039979638,4.024906559361077,0.259214486431482,-1.1467362853362295
4.402291105573249,4.087369273597342,0.24774712357811968,-1.2689180043241624
4.443164798309223,4.15281966280054,0.23505794353487805,-1.4000411814055793
4.484692994937228,4.221947343052635,0.22105753172082226,-1.5404559401114815
4.526912468367754,4.295534765079704,0.20565297231970744,-1.690617964865045
4.569867816018551,4.374471610845967,0.18874679267105698,-1.8511182274052382
4.613612532127011,4.4597739523750075,0.1702356103970046,-2.0227177604256905
4.658210271650761,4.552609447048217,0.1500084327927477,-2.2063889852347196
4.703736366121243,4.654330164776354,0.1279445429404005,-2.40336558523626
4.750279667769006,4.766515029724337,0.1039108870880379,-2.6152034732019342
4.79794481806625,4.891024276513126,0.07775885235601857,-2.843855967111048
4.8468550608313805,5.030068647959352,0.04932029268490808,-3.091766686841305
4.897155747310974,5.186295979616085,0.018402625816495034,-3.361983450331677
4.949018707107134,5.36289654598002,-0.015217208686821738,-3.658294469457025
5.002647672566934,5.563724245809681,-0.05180015338139199,-3.985381815806843
5.058284915025031,5.793419119519021,-0.09165397153946042,-4.3489704288598725
5.116219106220221,6.057488058004892,-0.13514367582805914,-4.755910123051034
5.17679398680027,6.3622328486455055,-0.1827027770585695,-5.214032134909921
5.240416315286725,6.714259883756767,-0.2348430984076687,-5.731403275301205
5.307558914124293,7.118968088597585,-0.29215713116068076,-6.31412522624182
5.3787485950102685,7.5767442775811045,-0.35529838342309894,-6.960888599849329
5.45451603778608,8.074594708777479,-0.42490726942159224,-7.6510886125579844
5.535261984873855,8.570849060321018,-0.5014181555471721,-8.323194282334564
5.620970475477065,8.97715544263685,-0.5846500983705177,-8.849365881171915
5.710742029903433,9.165553003433043,-0.6731437571822368,-9.045556282496813
5.802397559937764,9.045863946083939,-0.763599320007205,-8.780922845490768
5.8928561993986035,8.66653188809849,-0.8514085484621127,-8.120544854759599
5.979521518279588,8.178942724614172,-0.9326139970097087,-7.275986503701217
6.06131094552573,7.707413771645736,-1.005373862046721,-6.422433746886956
6.138385083242188,7.30449007985064,-1.0695981995155905,-5.634982704129932
6.211429984040694,6.978719537891095,-1.12594802655689,-4.9268796081365975
6.281217179419605,6.7225339670604525,-1.175216822638256,-4.288410341619095
6.348442519090209,6.524972825081732,-1.2181009260544469,-3.7048106101006004
6.413692247341027,6.375867845904278,-1.2551490321554528,-3.162286793306806
6.47745092580007,6.266768303226605,-1.286771900088521,-2.6494751810766957
6.540118608832335,6.190840450090764,-1.313266651899288,-2.157452563991029
6.602027013333243,6.142521554055991,-1.3348411775391982,-1.6793905953370118
6.663452228873803,6.11717122029566,-1.3516350834925683,-1.2101944523519617
6.72462394107676,6.110782391850972,-1.3637370280160879,-0.7462112557775403
6.78573176499527,6.119758971325999,-1.3711991405738633,-0.2850129419366672
6.84692935470853,6.140752874768461,-1.3740492699932298,0.17476405979036053
6.908336883456215,6.170551821126384,-1.3723016293953263,0.6335434785612832
6.970042401667479,6.206010632954128,-1.3659661946097135,1.0909169790546205
7.0321025079970205,6.2440201620012274,-1.3550570248191673,1.5457497144819303
7.094542709617032,6.281508328244875,-1.339599527674348,1.9962934690570167
7.157357792899481,6.31546720800803,-1.319636592983778,2.440312046374877
7.220512464979562,6.342999037273836,-1.2952334725200292,2.8752184591743855
7.2839424553523004,6.3613729803017085,-1.2664812879282854,3.298218994667905
7.347556185155318,6.368084112271767,-1.2334990979816063,3.706456032865758
7.411237026278036,6.360906667493356,-1.1964345376529486,4.0971401346030705
7.474846092952969,6.337935305418433,-1.1554631363069179,4.46766260714603
7.538225446007154,6.29761070685291,-1.1107865102354575,4.8156822563412565
7.601201553075683,6.238728736055855,-1.062629687672045,5.139183685112906
7.663588840436241,6.160435095810158,-1.0112378508209159,5.4365084085305195
7.725193191394343,6.062209348447077,-0.9568727667356107,5.706363361889725
7.785815284878813,5.943843077309618,-0.8998091331167135,5.947813464547186
7.84525371565191,5.80541678343104,-0.8403309984712417,6.160265514577169
7.90330788348622,5.6472790412925615,-0.77872834332547,6.343449925720804
7.959780673899146,5.470029807883167,-0.715293844068262,6.49740503161736
8.014480971977978,5.274507972569898,-0.6503197937520884,6.622466352167713
8.067226051703678,5.061781607391663,-0.5840951302304113,6.719260833662771
8.117843867777594,4.833138210033834,-0.5169025218937835,6.7887040597969595
8.166175249877933,4.590071705385429,-0.4490154812958139,6.831997091208125
8.212075966931787,4.3342631513479954,-0.38069551038373267,6.850619093713098
8.255418598445267,4.067552925593963,-0.31218931944660167,6.846312278081252
8.296094127701206,3.7919034851676576,-0.24372619666578915,6.821056770677579
8.334013162552882,3.5093533366660163,-0.17551562895901335,6.777034616958794
8.369106695919543,3.2219643371745743,-0.10774528278942541,6.71658386526322
8.40132633929129,2.9317655902356003,-0.04057944413679321,6.642145251673237
8.430643995193645,2.6406978099414755,0.025842008379939163,6.556205130637263
8.45705097329306,2.3505620213191545,0.0914040596863118,6.461238806190509
8.48055659350625,2.0629758959007827,0.15601644774821688,6.359658288999587
8.501186352465258,1.7793400412135587,0.21961303063821275,6.253767836414886
8.518979752877392,1.5008153819575076,0.2821507090023616,6.145729614002728
8.533987906696968,1.2283116011971702,0.3436080051423889,6.037540666513296
8.54627102270894,0.9624856216433962,0.40398341180752184,5.9310213020400475
8.555895878925373,0.7037484020371343,0.4632936248279223,5.827814117405936
8.562933362945744,0.4522779328145344,0.5215717660019816,5.729392298209859
8.567456142273889,0.2080362122078654,0.5788656889840802,5.637075521924748
8.569536504395968,-0.029211893185986493,0.6352364442033277,5.552051738109839
8.569244385464108,-0.2598797252204946,0.6907569615844261,5.475403230382548
8.566645588211903,-0.48454131390836297,0.7455109938882516,5.408135604914013
8.56180017507282,-0.7039163380350107,0.7995923499373917,5.351208625706827
8.55476101169247,-0.9188582520040465,0.85310443619446,5.305568057698796
8.545572429172429,-1.1303458626400393,0.9061601167714479,5.272177813496375
8.534268970546028,-1.339478189958994,0.9588818949064116,5.252051641730873
8.520874188646438,-1.54747186212884,1.0114024113237203,5.246283218024057
8.50539947002515,-1.7556594217996782,1.0638652435039608,5.256072595885294
8.487842875807154,-1.9654854932905936,1.1164259694628138,5.282745190627903
8.468188020874248,-2.1784953335127497,1.1692534213690928,5.32775620119714
8.446403067539121,-2.396306137650446,1.2225309833810643,5.392667618904346
8.422440006162617,-2.620544459989295,1.2764576595701078,5.479075141666608
8.396234561562723,-2.8527216421495165,1.331248410986774,5.588446145070041
8.367707345141229,-3.094001487096864,1.3871328724374743,5.721804871140348
8.336767330270261,-3.3447904106530566,1.4443509211488779,5.879166813128202
8.30331942616373,-3.604056754811237,1.50314258928016,6.058590211364847
8.267278858615617,-3.8682902725681343,1.5637284913938085,6.254716729994527
8.228595955889936,-4.130118256556037,1.626275658693754,6.4568182250826975
8.187294773324377,-4.3769388365957,1.690843840944581,6.6468452101995625
8.14352538495842,-4.590626931308623,1.7573122930465765,6.798945058823058
8.097619115645333,-4.750091590013583,1.8253017436348071,6.8829373512379055
8.050118199745198,-4.837854579338846,1.8941311171471862,6.8733998160190675
8.001739653951809,-4.8483746854054095,1.9628651153073768,6.761222857968874
7.953255907097755,-4.791919491285391,2.030477343887066,6.559020441437175
7.9053367121849005,-4.689959751506675,2.0960675483014377,6.294805895023678
7.858437114669834,-4.5659336517345,2.1590156072516744,5.999277725235939
7.812777778152489,-4.438398002002306,2.2190083845040336,5.696427390951784
7.7683937981324656,-4.319119049481015,2.2759726584135516,5.400962419402671
7.725202607637655,-4.214266896509926,2.3299822826075784,5.119977724598176
7.683059938672556,-4.126378052305873,2.3811820598535602,4.855651167137483
7.641796158149497,-4.0559614975322695,2.429738571524935,4.607427955602688
7.601236543174174,-4.002537177234937,2.4758128510809616,4.373417427828955
7.561211171401824,-3.9652298352106072,2.5195470253592513,4.151179620568015
7.5215588730497185,-3.9430815217438124,2.5610588215649317,3.938129738291871
7.482128057832281,-3.9352032020723335,2.6004401189478505,3.731727088351914
7.442776025811558,-3.9408394578821873,2.6377573898313695,3.529550324276815
7.403367631232736,-3.959388003943431,2.6730528930741375,3.329316446095735
7.3637737511933015,-3.9903963557366913,2.706346057535095,3.128874695294755
7.323869787635934,-4.0335470634737405,2.7376348044880423,2.926191945964935
7.283534317001197,-4.088636960685844,2.7668967239476916,2.7193385024851215
7.242647947394339,-4.155552663906206,2.7940901089725427,2.5064792925990407
7.201092420755277,-4.2342428567991215,2.8191549018985333,2.285873526119505
7.1587499921872855,-4.324687030542352,2.842013637159728,2.055884980410803
7.115503121881862,-4.42685999923897,2.862572486963836,1.8150046004526423
7.0712345218894725,-4.540691520248894,2.8807225329683623,1.5618867031675532
7.025827606686984,-4.6660206851939545,2.896341400000038,1.2953994955692085
6.9791673998350445,-4.802545420098351,2.90929539495573,1.0146896519856237
6.931141945634061,-4.949768462809589,2.9194422914755864,0.7192591961722943
6.881644261005965,-5.1069425556871595,2.9266348834373095,0.4090508323062655
6.830574835449093,-5.273019198323891,2.930725391760372,0.08453524218745284
6.777844643465855,-5.446606913020465,2.9315707441822463,-0.2532089903270818
6.7233785743356504,-5.625946194361991,2.9290386542789753,-0.6024346887680189
6.66711911239203,-5.808908630732802,2.923014307391295,-0.9606978660601462
6.609030026084702,-5.993026580272295,2.913407328730693,-1.324874541757961
6.54909976028198,-6.175556930441871,2.9001585833131136,-1.6912317140653816
6.487344190977561,-6.353577970649494,2.88324626617246,-2.055555261019064
6.423808411271066,-6.524112948608264,2.862690713562269,-2.413329057894663
6.358567281784984,-6.684268687274542,2.8385574229833224,-2.7599506624956445
6.291724594912238,-6.831374147868977,2.810957916358366,-3.0909617820753925
6.223410853433548,-6.963103168636085,2.780048298537612,-3.402268446301917
6.153779821747188,-7.0775681318730035,2.7460256140745924,-3.690327419080528
6.083004140428458,-7.173376376525807,2.709122339883787,-3.952281475126531
6.0112703766632,-7.2496473925601475,2.6695995251325217,-4.186035017670517
5.938773902737599,-7.305994606749857,2.6277391749558165,-4.390270767087708
5.8657139566701,-7.342479657707926,2.5838364672849394,-4.564415790890972
5.792289160093021,-7.359548920159619,2.5381923093760297,-4.70856972855986
5.718693670891425,-7.357961838473426,2.491106612090431,-4.823409491246865
5.645114052506691,-7.3387189909271004,2.4428725171779626,-4.910083598992212
5.57172686259742,-7.302995490300762,2.3937716811880403,-4.970106653101068
5.498696907694413,-7.252082979781343,2.3440706146570296,-5.005261213394867
5.426176077896599,-7.187341517661685,2.2940180025230807,-5.017511292864408
5.354302662719983,-7.1101612335196105,2.2438428895944367,-5.0089292087933135
5.283201050384786,-7.021932780086233,2.1937535975065034,-4.981635777160032
5.2129817225839234,-6.924025199041459,2.1439372397349032,-4.937752761100629
5.1437414705935085,-6.81776973299886,2.094559712123897,-4.879365948826933
5.07556377326352,-6.704448225412439,2.045766052635628,-4.808497082671104
5.008519291009395,-6.585284957204859,1.9976810818089168,-4.727082945319019
4.942666441437346,-6.46144100629244,1.9504102523557265,-4.636960119935933
4.878052031374422,-6.334010443162844,1.9040406511563672,-4.539854199730875
4.814711926942793,-6.2040178713689915,1.8586421091590586,-4.437372480470618
4.752671748229103,-6.072416978521603,1.8142683843543523,-4.330999399320142
4.691947578443887,-5.94008988120251,1.770958390361151,-4.222094172976698
4.632546679631862,-5.8078471303630375,1.728737448631384,-4.111890234747927
4.574468208328232,-5.676428298086747,1.6876185462839048,-4.001496176924072
4.517703925347365,-5.5465030982711045,1.6476035845146642,-3.8918979772913627
4.462238894364654,-5.418673008614994,1.6086846047417505,-3.783962333841005
4.408052164278503,-5.293473364380866,1.5708449814033405,-3.67844095663352
4.355117430634695,-5.1713758900169005,1.5340605718370053,-3.5759756768199176
4.303403671734526,-5.052791626350528,1.4983008150688062,-3.4771042355429462
4.25287575547102,-4.938074201403768,1.4635297727133767,-3.3822666143232354
4.203495013456982,-4.827523383923222,1.4297071065701443,-3.2918117669462688
4.155219779617751,-4.721388851807419,1.3967889889006817,-3.2060046131072304
4.108005891099676,-4.619874103528855,1.3647289427696094,-3.1250331574787706
4.0618071500643875,-4.523140439687005,1.3334786111948218,-3.049015604966481
4.0165757456675175,-4.431310943911413,1.302988455145157,-2.978007353599276
3.9722626362284035,-4.3444743971028705,1.2732083816091642,-2.9120077602102423
3.9288178922573747,-4.262689065919405,1.2440883040070618,-2.850966589971733
3.8861910015981804,-4.185986314858572,1.2155786381073446,-2.7947900780168116
3.844331138449595,-4.114374000623155,1.1876307373271764,-2.7433465488799453
3.8031873984433635,-4.047839617095572,1.1601972718383768,-2.6964715564976567
3.7627090022724077,-3.9863531686855165,1.1332325562734002,-2.6539725233580005
3.7228454705855527,-3.9298697586627034,1.1066928310398203,-2.615632871593699
3.6835467729989255,-3.8783318870645065,1.0805365023238833,-2.581215651080454
3.6447634541282805,-3.8316714597096824,1.0547243458130788,-2.5504666798012634
3.606446739531184,-3.789811515684765,1.0292196790150663,-2.5231172198830123
3.568548624374336,-3.7526676854096195,1.0039885068162362,-2.4988862189258523
3.53102194752024,-3.7201493951045785,0.9789996446269776,-2.4774821507280333
3.493820453569194,-3.692160836287368,0.9542248231196973,-2.458604492503701
3.4568988452063203,-3.6686017209631894,0.9296387781946602,-2.441944877463779
3.4202128279966884,-3.649367844586999,0.9052193294200225,-2.4271879624446653
3.3837191495508185,-3.6343514798250403,0.8809474497955758,-2.4140120503743088
3.3473756347525683,-3.623441624767241,0.8568073292918328,-2.4020895069815245
3.311141218504896,-3.6165241296739388,0.8327864342220176,-2.3910870104695072
3.2749759772081566,-3.613481726693121,0.8088755641173225,-2.3806656720376154
3.2388411599412255,-3.6141939873516624,0.7850689073969463,-2.3704810642556295
3.202699220067709,-3.618537233078396,0.7613640967543901,-2.3601831934395343
3.166513847736925,-3.6263844246083003,0.7377622648199947,-2.349416451373253
3.1302500034908416,-3.637605056872299,0.7142681003062622,-2.337819580950228
3.0938739529221184,-3.65206508689844,0.6908899044967599,-2.325025689512742
3.057353302053134,-3.669626923314376,0.6676396476016325,-2.310662342742046
3.02065703281999,-3.690149507198177,0.6445330241742121,-2.294351770750524
2.9837555377480083,-3.7134885151970125,0.6215895064667069,-2.275711216355016
2.9466206525960383,-3.7394967169155815,0.5988323943031567,-2.2543534531304212
2.9092256854268825,-3.7680245194356794,0.5762888597718525,-2.229887497475882
2.871545440232526,-3.798920732308338,0.5539899847970937,-2.2019195342579585
2.8335562329094426,-3.8320335862859265,0.5319707894545141,-2.170054069287542
2.795235897046583,-3.8672120382512416,0.5102702487616387,-2.133895313592707
2.7565637766640707,-3.9043073930795655,0.4889312956257117,-2.0930487938357176
2.717520702733275,-3.943175270393192,0.4680008076873545,-2.047123170000659
2.678088950029343,-3.98367794024924,0.44752957598734794,-1.9957322254404595
2.6382521706268505,-4.02568704674693,0.42757225373294333,-1.938496975430578
2.597995300159381,-4.0690867324895095,0.40818728397863757,-1.875047818604131
2.557304432834486,-4.113777170105195,0.38943680579259626,-1.8050266313078775
2.516166661133434,-4.159678500157473,0.3713865394795175,-1.7280886785039968
2.4745698761318593,-4.2067351685519245,0.3541056526944775,-1.6439041870443996
2.43250252444634,-4.254920652053114,0.33766661082403354,-1.5521593988297921
2.389953317925809,-4.304242559134252,0.3221450168357356,-1.452556893488075
