th1 (rad),w1 (rad/s),th2 (rad),w2 (rad/s),a1 (rad/s^2),a2 (rad/s^2)
1.2188349335414224,-0.27327940016606067,5.817433808381431,0.31853277024242427,-9.053936134492114,3.447297106874877
1.2161021395397618,-0.3638187615109818,5.820619136083856,0.353005741311173,-9.061940834482519,3.529171350139717
1.2124639519246518,-0.454438169855807,5.824149193496968,0.38829745481257016,-9.069774888917161,3.6358757638601364
1.2079195702260939,-0.5451359187449786,5.828032168045094,0.4246562124511715,-9.078023851715226,3.7674886652793957
1.202468211038644,-0.6359161572621308,5.832278730169605,0.46233109910396547,-9.08739186662294,3.924101551928294
1.1961090494660227,-0.7267900759283602,5.836902041160645,0.5015721146232484,-9.098706818330642,4.105831031767591
1.1888411487067392,-0.8177771441116666,5.841917762306878,0.5426304249409243,-9.112926732215254,4.312833246936302
1.1806633772656225,-0.9089064114338191,5.847344066556287,0.5857587574102873,-9.131147575811667,4.545321055684097
1.1715743131512844,-1.0002178871919358,5.85320165413039,0.6312119679671282,-9.15461265204827,4.80358427890912
1.161572134279365,-1.0917640137124185,5.859513773810061,0.6792478107562194,-9.184723816938133,5.088013359449893
1.1506544941422407,-1.1836112518817998,5.8663062519176234,0.7301279443507184,-9.223054801965443,5.399126822651587
1.1388183816234227,-1.2758417999014542,5.873607531361131,0.7841192125772343,-9.27136697174607,5.7376029630236705
1.1260599636244082,-1.3685554696189148,5.881448723486903,0.841495242207471,-9.331627896495876,6.104316208679728
1.112374408928219,-1.4618717485838735,5.889863675908978,0.9025384042942682,-9.406033158848109,6.50037862284961
1.0977556914423803,-1.5559320801723546,5.89888905995192,0.9675421905227644,-9.49703183253501,6.927186972663948
1.0821963706406568,-1.6509023984977047,5.908564481857148,1.0368140602494038,-9.607356044277031,7.386475699655565
1.0656873466556798,-1.746975958940475,5.918932622459642,1.1106788172459594,-9.740054923051972,7.880375913335058
1.048217587066275,-1.8443765081709946,5.9300394106321015,1.18948257637931,-9.898532991764712,8.411480114119398
1.0297738219845651,-1.9433618380886417,5.941934236395895,1.273597377520504,-10.086592564680217,8.982911594401095
1.0103402036036788,-2.044227763735444,5.954670210171099,1.363426493464515,-10.308478814363966,9.598396134702108
0.9898979259663244,-2.1473125518790837,5.968304475105745,1.459410454811536,-10.568924592073323,10.262331323396777
0.9684248004475335,-2.2530017977998167,5.9828985796538605,1.5620337680455039,-10.873189377624877,10.979844954047826
0.9458947824695354,-2.3617336915760654,5.998518917334316,1.671832217585982,-11.227082161733133,11.756827458587102
0.9222774455537748,-2.4740045131933965,6.015237239510176,1.7894004921718532,-11.63695041448879,12.599912516549908
0.8975374004218408,-2.5903740173382843,6.033131244431894,1.9153996173373522,-12.109604584108762,13.51636205594025
0.871633660248458,-2.711470063179372,6.052285240605268,2.0505632378967547,-12.652126573850966,14.513782304317806
0.8445189596166642,-2.8379913289178815,6.0727908729842355,2.195701060939933,-13.271476186444591,15.599549103634319
0.8161390463274855,-2.9707060907823273,6.094747883593635,2.351696551976276,-13.973753510897943,16.779742028925998
0.7864319854196622,-3.110443625891307,6.118264849113397,2.519493972265536,-14.762885586580925,18.057261049340013
0.7553275491607492,-3.2580724817571163,6.1434597888360525,2.700066582758936,-15.638366057709034,19.42860366285753
0.722746824343178,-3.4144561423342066,6.170460454663642,2.894352619387511,-16.591469438958352,20.8784902339036
0.688602262919836,-3.58037083672379,6.199403980857517,3.103137521726547,-17.599082583006346,22.371134714167482
0.652798554552598,-3.7563616625538536,6.230435356074783,3.326848868868222,-18.613997234642607,23.836541056531765
0.6152349379270595,-3.9425016349002795,6.263703844763465,3.5652142794335395,-19.550410993190155,25.15007525606254
0.5758099215780568,-4.138005744832181,6.2993559875578,3.816715031994165,-20.264127165952107,26.104617197844576
0.5344298641297349,-4.340647016491703,6.337523137877742,4.077761203972611,-20.52998904384324,26.378894195286815
0.49102339396481787,-4.545946906930135,6.378300749917468,4.3415501459254795,-20.02696974079854,25.51671317385311
0.4455639248955165,-4.74621660433812,6.421716251376723,4.596717277664011,-18.356194039578888,22.95273642682396
0.3981017588521353,-4.929778544733909,6.467683424153363,4.8262446419322504,-15.13360333280879,18.143589006636716
0.3488039734047962,-5.081114578061997,6.515945870572685,5.007680531998617,-10.189495782690706,10.849711608039103
0.2979928276241762,-5.183009535888904,6.566022675892672,5.116177648079009,-3.8227900597899245,1.4944677294413284
0.24616273226528718,-5.2212374364868035,6.617184452373462,5.131122325373422,3.092143157767429,-8.684354350313779
0.19395035790041915,-5.190316004909129,6.668495675627196,5.044278781870284,9.369142744015294,-18.005136584477462
0.14204719785132786,-5.096624577468976,6.718938463445899,4.86422741602551,14.054444011115104,-25.10908195601506
0.09108095207663809,-4.956080137357825,6.7675807376061545,4.613136596465359,16.813703991568552,-29.50718732949137
0.041520150703059845,-4.787943097442139,6.813712103570808,4.318064723170445,17.883196223018437,-31.51468245023737
-0.006359280271361546,-4.609111135211955,6.856892750802512,4.002917898668072,17.759596218380583,-31.81689022639003
-0.0524503916234811,-4.431515173028149,6.896921929789193,3.684748996404171,16.930819227063125,-31.0911559094411
-0.09676554335376258,-4.262206980757518,6.933769419753235,3.37383743730976,15.760022593194956,-29.842902874353843
-0.13938761316133777,-4.104606754825568,6.967507794126332,3.0754084085662217,14.477957156853213,-28.393635465815922
-0.18043368070959345,-3.9598271832570355,6.998261878211994,2.7914720539080626,13.21569451152365,-26.925882559076452
-0.22003195254216382,-3.827670238141799,7.026176598751075,2.522213228317298,12.040156964139397,-25.532433007848677
-0.2583086549235818,-3.7072686685004053,7.051398731034248,2.2668888982388116,10.980606489109807,-24.2531752598423
-0.29538134160858587,-3.597462603609307,7.074067620016637,2.0243571456403884,10.045631804598587,-23.09879816762516
-0.33135596764467895,-3.4970062855633213,7.09431119147304,1.7933691639641367,9.233208236563813,-22.06488810979141
-0.36632603050031215,-3.404674203197683,7.112244883112682,1.5727202828662226,8.536359815690439,-21.139920232242936
-0.400372772532289,-3.3193106050407786,7.1279720859413445,1.3613210805437932,7.946214726653575,-20.309626071753396
-0.4335658785826968,-3.239848457774243,7.141585296746783,1.1582248198262592,7.45357563261684,-19.5592934205682
-0.4659643631604392,-3.1653127014480744,7.153167544945045,0.9626318856205772,7.049666818151125,-18.874917050047948
-0.49761749017491996,-3.094816033266563,7.162793863801251,0.7738827151200978,6.726436686947316,-18.243725362396322
-0.5285656505075856,-3.02755166639709,7.170532690952451,0.5914454614961345,6.476628070353535,-17.654377095320147
-0.5588411671715565,-2.9627853856935547,7.176447145567413,0.414901690542933,6.293734004191102,-17.096990199423647
-0.5884690210284921,-2.899848045651644,7.180596162472842,0.24393178854869654,6.171903284927324,-16.563090645208074
-0.6174675014850085,-2.8381290128023706,7.1830354803583285,0.07830088209661579,6.105830345145675,-16.045527429025725
-0.6458487916130322,-2.7770707093509137,7.183818489179295,-0.08215439219364146,6.090647469188861,-15.538377122827802
-0.6736194987065414,-2.716164234659025,7.182996945257359,-0.23753816342191947,6.121828250402873,-15.036848825013166
-0.7007811410531316,-2.6549459521549963,7.18062156362314,-0.38790665167205113,6.19510618420401,-14.537193739224191
-0.7273306005746816,-2.5929948903129563,7.176742497106419,-0.533278589064293,6.30640955932981,-14.036620256562108
-0.7532605494778112,-2.5299307947196583,7.171409711215776,-0.6736447916299141,6.451812331419403,-13.533213889358946
-0.7785598574250078,-2.4654126714054643,7.164673263299477,-0.8089769305235035,6.62749987385444,-13.025860875490332
-0.8032139841390624,-2.39913767266692,7.156583493994242,-0.9392355392784069,6.829748091637064,-12.514174269015122
-0.8272053608657316,-2.3308401917505495,7.147191138601459,-1.0643772819685582,7.054914188320195,-11.998421583743934
-0.8505137627832371,-2.2602910498673476,7.136547365781773,-1.1843614978059975,7.299437305139256,-11.479453404293366
-0.8731166732819106,-2.187296676815955,7.124703750803713,-1.2991560318489312,7.559847258910884,-10.958632734996492
-0.8949896400500701,-2.111698204226846,7.111712190485224,-1.4087423591988961,7.832779665857861,-10.437765172355695
-0.9161066220923385,-2.0333704075682677,7.097624766893235,-1.513120010922453,8.114995837506472,-9.919030238728523
-0.9364403261680212,-1.952220449193203,7.08249356678401,-1.6123103133097383,8.403405961926733,-9.404914397055629
-0.9559625306599532,-1.8681863895739357,7.066370463650913,-1.7063594572802945,8.695094230459555,-8.898146382255732
-0.9746443945556925,-1.7812354472693401,7.04930686907811,-1.7953409211028517,8.987344729282771,-8.401635543874024
-0.9924567490283859,-1.6913619999765124,7.0313534598670815,-1.879357276541592,9.277667080258444,-7.918413908793329
-1.009370369028151,-1.598585329173928,7.0125598871016654,-1.9585414156295253,9.563820981306222,-7.451582654714442
-1.0253562223198902,-1.502947119360866,6.99297447294537,-2.0330572421766697,9.843838959469618,-7.004263645754351
-1.040385693513499,-1.4045087297661698,6.972643900523604,-2.103099878634213,10.11604680796406,-6.579556629684725
-1.0544307808111606,-1.3033482616865293,6.951612901737262,-2.1688954449310605,10.379081331401673,-6.180502638226962
-1.0674642634280258,-1.1995574483725124,6.929923947287951,-2.2307004713133303,10.631905171762407,-5.810054071236901
-1.079459837911751,-1.0932383966548884,6.907616942574817,-2.2888010120256994,10.873818632761722,-5.471051884551011
-1.0903922218783,-0.9845002103272712,6.884728932454561,-2.3435115308712096,11.104468563256006,-5.166210240680166
-1.1002372239815728,-0.8734555246947111,6.861293817145849,-2.395173633278011,11.32385450188022,-4.898108922095776
-1.1089717792285199,-0.7602169796759088,6.837342080813069,-2.444154722498969,11.532332424947048,-4.669193749523738
-1.1165739490252788,-0.6448936554264384,6.8129005335880795,-2.4908466599942063,11.73061657632106,-4.481785193998001
-1.1230228855795432,-0.5275874896632278,6.787992066988138,-2.5356645119341863,11.91977998884484,-4.338095323454525
-1.1282987604761754,-0.40838968977477935,6.762635421868796,-2.5790454651687313,12.101254427988428,-4.2402531843114595
-1.132382657373923,-0.28737714549489507,6.736844967217109,-2.621447997011846,12.276830594343114,-4.1903386865574
-1.135256428828872,-0.16460883955146394,6.71063048724699,-2.6633513838774197,12.448659505121466,-4.190425035262959
-1.1369025172243867,-0.040122244500249274,6.683996973408216,-2.705255634230049,12.619256025726473,-4.242629724637523
-1.1373037396693892,0.08607031575701547,6.656944417065915,-2.7476819314764245,12.791505525405208,-4.349174066066941
-1.136443036511819,0.21398537101106757,6.629467597751151,-2.791173672137094,12.968674561842109,-4.512451127267066
-1.1343031828017083,0.34367211662948866,6.60155586102978,-2.836298183409765,13.154426318820752,-4.735101759887769
-1.1308664616354134,0.47521637981769616,6.573192879195682,-2.8836492010086427,13.35284116336101,-5.02009799281166
-1.1261142978372365,0.6087447914513062,6.544356387185596,-2.9338501809367594,13.568442045037463,-5.370832310242648
-1.1200268499227235,0.7444292119016809,6.515017885376229,-2.987558504039186,13.806223349137584,-5.791209957087491
-1.1125825578037067,0.8824914453930567,6.485142300335837,-3.045470603610061,14.071679935888165,-6.285738990678402
-1.1037576433497762,1.0232082447519384,6.454687594299736,-3.108327993516845,14.370829951897976,-6.859608623136886
-1.093525560902257,1.1669165442709182,6.423604314364568,-3.176924079748214,14.710219764858797,-7.518739314730569
-1.0818563954595477,1.3140187419195062,6.391835073567086,-3.2521114728955194,15.096890695921049,-8.269776184812612
-1.0687162080403527,1.4649876488787168,6.359313958838131,-3.3348092347436453,15.538272894081592,-9.119977496287321
-1.0540663315515655,1.6203703778195326,6.325965866490694,-3.4260090097065183,16.04194813103514,-10.07691720677098
-1.0378626277733702,1.780789859129884,6.291705776393629,-3.5267781817742283,16.615184791669385,-11.14786683969617
-1.0200547291820714,1.946941707046578,6.256437994575887,-3.63825685017119,17.264086101844203,-12.338634809660332
-1.0005853121116057,2.11958256806502,6.2200554260741745,-3.7616431982677936,17.992093893177294,-13.65150275884279
-0.9793894864309556,2.299503506996793,6.1824389940914966,-3.8981582258562213,18.79743856573099,-15.08168510533858
-0.9563944513609877,2.487477892654103,6.143457411832935,-4.048975076909607,19.668906631172362,-16.611428526022618
-0.9315196724344467,2.6841669589658266,6.102967661063839,-4.2150893621698335,20.579016913243063,-18.20047052843413
-0.9046780028447884,2.889957128098257,6.06081676744214,-4.397094067454175,21.47343976516719,-19.771207182644286
-0.8757784315638059,3.1046915257499292,6.016845826767598,-4.594806139280617,22.25556137242533,-21.1869984016947
-0.8447315163063066,3.3272471394741827,5.970897765374792,-4.8066761232975646,22.766284491840313,-22.223680050112332
-0.8114590449115647,3.554909984392586,5.922831004141816,-5.028912923798688,22.763156025727348,-22.53992500255319
-0.7759099450676389,3.7825415446498596,5.872541874903829,-5.2543121738242204,21.91226492451262,-21.665185258549233
-0.7380845296211402,4.001664193894986,5.819998753165587,-5.470964026409713,19.821920719563234,-19.045808189858093
-0.6980678876821904,4.199883401090618,5.76528911290149,-5.661422108308294,16.159121780675296,-14.20691646332831
-0.6560690536712842,4.361474618897371,5.708674891818407,-5.803491272941577,10.864638033225276,-7.052695960822896
-0.6124543074823106,4.470120999229624,5.650639979088991,-5.874018232549806,4.37871746355459,1.8173531544488852
-0.5677530974900143,4.51390817386517,5.591899796763493,-5.855844701005317,-2.3416900035725816,11.082242114369246
-0.5226140157513627,4.490491273829444,5.53334134975344,-5.745022279861625,-8.170601949529734,19.182162650774952
-0.47770910301306824,4.408785254334147,5.475891126954823,-5.553200653353875,-12.329217153852046,25.03624257386711
-0.43362125046972677,4.285493082795626,5.420359120421285,-5.302838227615204,-14.649201842342876,28.40811700444555
-0.3907663196417705,4.139001064372198,5.3673307381451325,-5.018757057570749,-15.437500344622853,29.717726619235595
-0.3493763089980485,3.984626060925969,5.317143167569425,-4.721579791378393,-15.175638474405881,29.624447941283666
-0.30953004838878884,3.8328696761819105,5.269927369655641,-4.425335311965557,-14.301529586876132,28.72583287451065
-0.27120135162696973,3.6898543803131494,5.225674016535986,-4.138076983220451,-13.130245662397872,27.449201174543838
-0.23430280782383822,3.5585519236891705,5.184293246703781,-3.8635849714750123,-11.859009241293819,26.05943427278839
-0.1987172885869465,3.439961831276232,5.145657396989031,-3.6029906287471283,-10.59934293787022,24.70380577050745
-0.1643176702741842,3.33396840189753,5.10962749070156,-3.355952571042054,-9.408330163163042,23.455209304440924
-0.1309779862552089,3.2398851002658997,5.0760679649911395,-3.1214004779976445,-8.31120026268472,22.343214369488702
-0.09857913525254991,3.1567730976390527,5.044853960211163,-2.8979683343027576,-7.31568010036982,21.37369176855154
-0.06701140427615938,3.0836162966353546,5.015874276868136,-2.684231416617242,-6.420500944595694,20.540374396840022
-0.03617524130980584,3.019411287189398,4.989031962701963,-2.478827672648842,-5.620219483914837,19.831360333998997
-0.005981128437911858,2.9632090923502497,4.964243685975475,-2.2805140693088517,-4.907849891755996,19.232630998440875
0.023650962485590638,2.9141305934326898,4.941438545282387,-2.088187759324443,-4.27624007063637,18.729870581636632
0.052792268419917535,2.871368192726326,4.920556667689143,-1.9008890535080765,-3.718744000486173,18.309344380337524
0.08150595034718079,2.834180752721464,4.901547777154062,-1.7177956097047011,-3.2295074221921,17.958269685774344
0.10984775787439544,2.801885678499543,4.884369821057015,-1.5382129128469577,-2.803546034918533,17.66492306242456
0.13786661465939087,2.7738502181503577,4.868987691928545,-1.3615636822227122,-2.436716106612541,17.418619180970946
0.16560511684089446,2.749483057084232,4.855372055106318,-1.1873774904130028,-2.1256324949685586,17.209634934145836
0.19309994741173678,2.7282267321345466,4.843498280202188,-1.0152811410715443,-1.8675638945324475,17.029118074179834
0.22038221473308225,2.709551093189222,4.833345468791473,-0.8449899603297459,-1.6603211479723727,16.869000334600614
0.24747772566497447,2.692947881709498,4.824895569188175,-0.6762999569837398,-1.5021468137743659,16.72192426559044
0.27440720448206946,2.6779264135717544,4.818132569618338,-0.5090807143278353,-1.3916100981489774,16.58118706078021
0.301186468617787,2.6640103125902646,4.813041762475059,-0.3432688437200332,-1.327509160490579,16.440701377426716
0.3278265717436896,2.650735220985359,4.8096090740378585,-0.17886182994576602,-1.308781790550975,16.294971378563833
0.35433392395354324,2.6376474030798494,4.807820455738401,-0.015912116160127693,-1.3344250161177116,16.139081308326965
0.38071039798434175,2.624303152918672,4.8076613345768,0.14547869692314197,-1.4034240357268943,15.968693498766259
0.4069534295135285,2.6102689125614034,4.809116121546031,0.3051656319108046,-1.5146908119252707,15.780052610076886
0.4330561186391425,2.5951220044421506,4.812167777865139,0.4629661580115735,-1.6670126125517035,15.569993025947648
0.459007338683564,2.5784518783166335,4.816797439445255,0.61866608827105,-1.8590107030739476,15.335946605093039
0.48479185746673037,2.559861771285894,4.822984100327965,0.7720255543219804,-2.089109255294021,15.07594839092864
0.5103904751795894,2.538970678732954,4.830704355871185,0.9227850382312668,-2.3555143502052025,14.788638370367625
0.5357801819669189,2.5154155352309018,4.839932206253498,1.0706714219349431,-2.656202732287602,14.473257914601337
0.5609343373192279,2.4888535079080256,4.850638920472847,1.2154040010809566,-2.988919743617596,14.129640090810513
0.5858228723983082,2.4589643104718495,4.862792960483657,1.3567004019890616,-3.351185656052231,13.758193563675384
0.6104125155030267,2.425452453911327,4.876359964503547,1.4942823376258154,-3.74030945372876,13.359880270922957
0.6346670400421399,2.3880493593740395,4.891302787879805,1.627881140335045,-4.153409015672001,12.936187425977142
0.6585475336358804,2.3465152692173197,4.907581599283156,1.7572430145948164,-4.587436620195973,12.489094651586987
0.6820126863280536,2.30064090301536,4.9251540294291045,1.8821339611106862,-5.03920873952194,12.021037173096422
0.7050190953582072,2.2502488156201403,4.943975369040212,2.0023443328416506,-5.505439204800849,11.534866005444117
0.7275215835144085,2.195194423572132,4.9639988123686285,2.117692992896092,-5.98277497985514,11.033805974549184
0.7494735277501299,2.1353666737735804,4.9851757422975895,2.2280310526415836,-6.467833961643343,10.521412253067302
0.7708271944878656,2.070688334157147,5.007456052824005,2.3332451751722565,-6.957244399363757,10.001525901081633
0.7915340778294371,2.0011158901635095,5.030788504575727,2.433260434183073,-7.447685666327544,9.478228724340822
0.8115452367310722,1.9266390335002341,5.055121108917558,2.528042721426481,-7.93593020849205,8.955797632806446
0.8308116270660745,1.8472797314153135,5.080401536131823,2.617600697754545,-8.418886518324227,8.438658628815979
0.8492844243802277,1.7630908662320712,5.106577543109368,2.701987284042705,-8.893642940109864,7.93134059347389
0.8669153330425484,1.6741544368309726,5.133597415949795,2.781300689977444,-9.35751201134896,7.438429174455697
0.8836568774108582,1.580579316717483,5.161410422849569,2.855684981722001,-9.808074902791528,6.964521296812953
0.899462670578033,1.482498567689568,5.189967272666789,2.9253301946901304,-10.243225362966967,6.514181097035094
