th1 (rad),w1 (rad/s),th2 (rad),w2 (rad/s),a1 (rad/s^2),a2 (rad/s^2)
0.16318013591156502,0.5651060589567164,3.2830683664462734,0.6027487577613141,-1.8008355182014428,-0.42550049684922625
0.16883119650113218,0.547097703774702,3.2890958540238864,0.5984937527928218,-1.8513266218815014,-0.4169936140610254
0.1743021735388792,0.528584437555887,3.2950807915518148,0.5943238166522116,-1.898729995912902,-0.4058491502903508
0.17958801791443807,0.509597137596758,3.301024029718337,0.5902653251493081,-1.9429555482512737,-0.39197813339847243
0.18468398929040564,0.4901675821142452,3.3069266829698303,0.5863455438153233,-1.983917010894358,-0.37529264367327664
0.1895856651115481,0.4703284120053016,3.3127901384079834,0.5825926173785906,-2.021531841206714,-0.3557054710487727
0.19428894923160112,0.4501130935932345,3.3186160645817693,0.5790355626681029,-2.0557211238639677,-0.3331297768026735
0.19879008016753347,0.4295558823545948,3.3244064202084505,0.5757042649000761,-2.08640947846537,-0.3074787674721442
0.20308563899107943,0.40869178756994107,3.3301634628574512,0.5726294772253546,-2.113524978167538,-0.2786653891162081
0.20717255686677882,0.3875565377882657,3.3358897576297046,0.5698428233341926,-2.1369990849798532,-0.246602050406369
0.2110481222446615,0.3661865469384672,3.3415881858630465,0.5673768028301289,-2.1567666076336636,-0.21120038334512622
0.21470998771404617,0.34461888086213055,3.3472619538913477,0.5652647989966777,-2.1727656881932744,-0.17237105069498904
0.21815617652266747,0.3228912239801978,3.3529146018813143,0.5635410884897278,-2.184937823816642,-0.13002360944739969
0.22138508876246946,0.3010418457420314,3.358550012766212,0.5622408523952538,-2.193227930296607,-0.08406643986977756
0.22439550721988977,0.2791095664390653,3.3641724212901645,0.561400187996556,-2.1975844542177145,-0.034406749835970946
0.22718660288428041,0.25713372189688816,3.36978642317013,0.5610561204981963,-2.1979595407454986,0.019049335734790004
0.2297579401032493,0.23515412648943318,3.375396984375112,0.5612466138555442,-2.1943092642204958,0.07639659043992343
0.23210948136814363,0.21321103384722823,3.3810094505136674,0.5620105797599434,-2.1865939288507086,0.13773039706609222
0.2342415917066159,0.19134509455872115,3.386629556311267,0.5633878837306043,-2.174778446875425,0.20314634356043884
0.2361550426522031,0.1695973100899669,3.392263435148573,0.5654193471662087,-2.158832801598147,0.27273969466280773
0.23785101575310277,0.14800898207398544,3.397917628620235,0.5681467441128367,-2.1387326026424507,0.34660472985204044
0.23933110557384263,0.12662165604756093,3.4035990960613636,0.5716127914113571,-2.1144597406536505,0.4248339386922979
0.24059732213431823,0.10547705864102441,3.409315223975477,0.57586113079828,-2.086003148429263,0.5075170652699682
0.24165209272072846,0.08461702715673178,3.4150738352834598,0.5809363014509797,-2.0533596750862957,0.5947399942233002
0.2424982629922958,0.06408343040586882,3.4208831982979695,0.5868837013932128,-2.0165350793329675,0.6865834719251148
0.2431390972963545,0.04391807961253914,3.4267520353119014,0.593749536112464,-1.9755451471712422,0.7831216577288248
0.2435782780924799,0.02416262814082672,3.432689530673026,0.6015807526897522,-1.9304169383749623,0.8844205018792936
0.24381990437388817,0.0048584587570770985,3.4387053381999233,0.6104249577085451,-1.8811901648222058,0.990535948776036
0.24386848896145893,-0.01395344289114496,3.4448095877770086,0.6203303171963055,-1.82791870216164,1.1015119668141298
0.24372895453254748,-0.032232629912761365,3.451012890948972,0.6313454368644468,-1.7706722343099972,1.217378409075864
0.24340662823341985,-0.04993935225586134,3.4573263453176164,0.6435192209552054,-1.7095380278586143,1.3381487127612248
0.24290723471086123,-0.06703473253444749,3.4637615375271684,0.6569007080828176,-1.6446228305584105,1.4638174494821263
0.24223688738551677,-0.08348096084003159,3.4703305446079966,0.6715388825776389,-1.5760548846052902,1.5943577434500118
0.24140207777711645,-0.0992415096860845,3.477045933433773,0.6874824600121391,-1.5039860414180157,1.7297185801943822
0.2404096626802556,-0.11428137010026465,3.4839207580338942,0.7047796458140829,-1.4285939599555886,1.8698220347771901
0.23926684897925296,-0.12856730969982053,3.490968554492035,0.7234778661618548,-1.3500843653442707,2.01456045550732
0.23798117588225476,-0.14206815335326323,3.4982033331536537,0.743623470716928,-1.2686933386813253,2.1637936468701335
0.23656049434872212,-0.1547550867400765,3.505639567860823,0.7652614071856294,-1.184689602388701,2.3173461036874934
0.23501294348132135,-0.16660198276396349,3.5132921819326794,0.7884348682225043,-1.0983767584784465,2.4750043572819287
0.2333469236536817,-0.17758575034874796,3.5211765306149045,0.8131849117953236,-1.0100954296819515,2.6365145034426343
0.23157106615019424,-0.18768670464556747,3.529308379732858,0.8395500568297499,-0.9202252457619103,2.801579991020274
0.22969419910373856,-0.19688895710318657,3.5377038803011556,0.8675658567399527,-0.8291866097060779,2.969859758676554
0.2277253095327067,-0.20518082320024736,3.546379538868555,0.8972644543267182,-0.7374421712024503,3.140966815266522
0.22567350130070424,-0.21255524491227187,3.5553521834118222,0.9286741224793834,-0.6454979281960448,3.3144673660404047
0.22354794885158152,-0.21901022419423233,3.564638924636616,0.9618187961397875,-0.5539038718808442,3.489880591745596
0.2213578466096392,-0.22454926291304078,3.574257112598014,0.9967176020572435,-0.46325408670726254,3.666679190153959
0.2191123539805088,-0.2291818037801134,3.584224288618586,1.033384393958783,-0.3741862154618782,3.8442907888592472
0.21682053594270767,-0.23292366593473218,3.594558132558174,1.0718273018473754,-0.28738020081370685,4.022100333698605
0.21449129928336036,-0.23579746794286924,3.6052764055766477,1.1120483051843615,-0.20355621953728964,4.199453548198111
0.21213332460393167,-0.23783303013824214,3.616396888628491,1.1540428406663426,-0.12347173450310099,4.3756615454558565
0.20975499430254924,-0.23906774748327314,3.6279373170351548,1.197799456120901,-0.047917602974411395,4.550006654436031
0.2073643168277165,-0.23954692351301726,3.6399153115963636,1.2432995226652614,0.02228680186298968,4.7217494975450585
0.20496884759258632,-0.23932405549438737,3.6523483068230163,1.2905170176407121,0.0862994757115452,4.890137325672493
0.20257560703764244,-0.2384610607372719,3.6652534769994234,1.339418390897437,0.14326266535258952,5.05441358102816
0.20019099643026972,-0.23702843408374602,3.6786476609083976,1.3899625267077187,0.19231070607738893,5.2138286179185505
0.19782071208943225,-0.23510532702297213,3.6925472861754747,1.4421008128869042,0.23257873513290114,5.367651468336101
0.19546965881920253,-0.2327795396716431,3.706968294304344,1.4957773275702653,0.26321216207325493,5.515182494577381
0.1931418634224861,-0.23014741805091057,3.7219260675800463,1.5509291525160391,0.28337673570318933,5.6557667271517
0.190840389241977,-0.22731365069387868,3.7374353591052065,1.607486819787556,0.29226900657639016,5.78880764540477
0.18856725273503822,-0.22439096062811478,3.753510227303082,1.6653748962416037,0.28912694582599124,5.913781123180101
0.18632334312875706,-0.22149969116985488,3.770163976265498,1.7245127074734048,0.27324044765215405,6.030249235131315
0.18410834621705852,-0.21876728669333334,3.787409103340232,1.784815199824718,0.24396141626702839,6.137873603491126
0.18192067335012518,-0.21632767253066307,3.8052572553384794,1.846193935859629,0.20071312052384424,6.236427962348352
0.17975739662481854,-0.21432054132542463,3.8237191946970754,1.9085582154831127,0.1429984925123722,6.325809628375452
0.1776141912115643,-0.2128905564003009,3.8428047768519065,1.9718163117668672,0.07040705124867995,6.406049594339914
0.1754852856475613,-0.2121864858878141,3.8625229399695753,2.0358768077102662,-0.017379850276901518,6.477321004614116
0.17336342078868316,-0.21236028439058313,3.882881708046678,2.1006500177564074,-0.12058572726694922,6.539945829335804
0.17123981794477733,-0.21356614166325263,3.903888208224242,2.1660494760497655,-0.23933784695581461,6.594399624032875
0.1691041565281448,-0.21595952013281078,3.92554870298474,2.2319934722900943,-0.3736684773692794,6.641314341789244
0.1669445613268167,-0.21969620490650357,3.9478686377076406,2.2984066157079868,-0.5235186285228036,6.681479252178137
0.16474759927775168,-0.2249313911917316,3.9708527038647206,2.3652214082297682,-0.6887443544468855,6.7158401116748925
0.16249828536583436,-0.23181883473620046,3.9945049179470185,2.432379809346517,-0.8691256253941809,6.745496820504127
0.16018009701847236,-0.24051009099014228,4.018828716040484,2.499834777551558,-1.0643777242879746,6.771699887586158
0.15777499610857093,-0.25115386823302205,4.043827063816,2.5675517764274196,-1.2741650734914158,6.795846105725066
0.1552634574262407,-0.2638955189679362,4.069502581580274,2.63551023748467,-1.498117360620606,6.819473911577383
0.15262450223656135,-0.27887669257414227,4.095857683955121,2.703704976600444,-1.7358478082790993,6.844258968451694
0.14983573531081992,-0.2962351706569333,4.122894733721125,2.772147566284961,-1.9869734246201929,6.872010564976782
0.1468733836042506,-0.3161049049031352,4.1506162093839745,2.840867671934729,-2.251137081351832,6.904669470709525
0.14371233455521923,-0.33861627571665354,4.1790248861033215,2.909914366641824,-2.52803129446067,6.944307933589526
0.1403261717980527,-0.36389658866126023,4.208124029769739,2.9793574459777195,-2.817423631373059,6.993132547652867
0.1366872059114401,-0.3920708249749908,4.237917604229517,3.0492887714542483,-3.119183736995461,7.053490767459142
0.13276649766169019,-0.4232626623449454,4.268410491944059,3.1198236791288396,-3.433312060406791,7.127881904001238
0.12853387103824074,-0.4575957829490133,4.299608728735348,3.191102498168852,-3.7599704741849207,7.218973511915063
0.1239579132087506,-0.4951954876908625,4.3315197537170365,3.2632922332880026,-4.099515109736549,7.329624176586506
0.11900595833184198,-0.536190638788228,4.364152676049916,3.3365884750538677,-4.452531884847508,7.462913839542363
0.1136440519439597,-0.5807159576367031,4.397518560800455,3.4112176134492915,-4.819875373984016,7.622182968409064
0.10783689236759267,-0.6289147113765433,4.431630736934948,3.487439443133382,-5.202711866734888,7.811082089794333
0.10154774525382723,-0.6809418300438922,4.466505131366282,3.5655502640313257,-5.602567672022482,8.03363346310811
0.09473832695338831,-0.736967506764117,4.502160634006596,3.6458865986624067,-6.0213839474029935,8.294306978297485
0.08736865188574713,-0.797181346238147,4.53861949999322,3.7288296684453814,-6.461579546664033,8.598112697047767
0.07939683842336566,-0.8617971417047873,4.575907796677674,3.814810795415859,-6.926123550168859,8.950712789712336
0.07077886700631779,-0.9310583772064759,4.614055904631833,3.9043179233129823,-7.418619203842365,9.35855587280957
0.06146828323425303,-1.0052445692448995,4.653099083864963,3.997903482041078,-7.94340081861276,9.829036772930582
0.05141583754180404,-1.084678577431027,4.693078118685374,4.096193849770384,-8.505644541264449,10.370684243492958
0.04056905176749377,-1.1697350228436716,4.734040057183078,4.199900692205314,-9.11149237914828,10.993377601952362
0.028871701539057056,-1.2608499466351544,4.776039064105131,4.309834468224838,-9.768185683253204,11.708589643002995
0.016263202072705513,-1.3585318034676863,4.8191374087873795,4.426920364654868,-10.484198090927494,12.529645696749448
0.00267788403802865,-1.4633737843769612,4.863406612433928,4.552216821622363,-11.269346216624069,13.47197401200228
-0.011955853805740962,-1.576067246543202,4.908928780650151,4.686936561742385,-12.134834667846052,14.553294681152897
-0.02771652627117298,-1.6974155932216626,4.955798146267575,4.832469508553914,-13.093152146278756,15.793642020372555
-0.044690682203389606,-1.82834711468445,5.004122841353114,4.99040592875764,-14.15766286854063,17.2150185950352
-0.06297415335023411,-1.9699237433698564,5.05402690064069,5.162556114707992,-15.341606233374687,18.84030181598937
-0.08267339078393268,-2.1233398057036035,5.10565246178777,5.350959132867886,-16.65598192463192,20.69070253203012
-0.10390678884096871,-2.2898996249499226,5.159162053116448,5.557866158188188,-18.10538082477826,22.78050148200803
-0.12680578509046794,-2.470953433197705,5.214740714698331,5.785671173008268,-19.680106741110247,25.10679670461
-0.151515319422445,-2.6677545006088073,5.272597426428414,6.036739140054368,-21.341778205917382,27.63037635562629
-0.17819286442853308,-2.881172282667981,5.332964817828957,6.313042903610631,-22.99796899867147,30.241517742092164
-0.2070045872552129,-3.1111519726546955,5.396095246865063,6.615458081031552,-24.459925379880953,32.70227631230519
-0.23811610698175986,-3.355751226453505,5.462249827675379,6.942480844154605,-25.378723439810365,34.55840437579679
-0.2716736192462949,-3.6095384608516086,5.531674636116925,7.288064887912572,-25.16776945259592,35.030992283992695
-0.307769003854811,-3.861216155377568,5.604555284996051,7.6383748107525,-22.961269441679317,32.955275762528636
-0.34638116540858666,-4.090828849794361,5.680939033103576,7.967927568377786,-17.74528131856741,26.95453395609024
-0.38728945390653025,-4.268281662980035,5.760618308787354,8.237472907938688,-8.868692136020172,16.13591515498698
-0.4299722705363306,-4.356968584340237,5.842993037866741,8.398832059488559,3.0792541586014575,1.2908227511277077
-0.47354195637973295,-4.326176042754223,5.926981358461626,8.411740286999835,15.787555835280159,-14.452589901177339
-0.5168037168072752,-4.168300484401421,6.011098761331625,8.267214387988062,26.23272296927076,-27.027055474679962
-0.5584867216512894,-3.905973254708713,6.093770905211506,7.996943833241263,32.62317548036609,-34.08506206046732
-0.5975464541983766,-3.5797414999050523,6.173740343543918,7.6560932126365895,35.147837174597136,-35.98240107224477
-0.6333438691974271,-3.228263128159081,6.250301275670284,7.296269201914142,35.07446403840116,-34.505368368986176
-0.665626500479018,-2.877518487775069,6.323263967689425,6.95121551822428,33.66714425401346,-31.38879920205721
-0.6944016853567686,-2.5408470452349343,6.392776122871668,6.637327526203708,31.764152894458476,-27.76009247234913
-0.719810155809118,-2.2232055162903497,6.459149398133705,6.359726601480217,29.81119936589111,-24.20370248180112
-0.7420422109720215,-1.9250935226314385,6.522746664148507,6.1176895766622055,28.006931172202048,-20.969600798959664
-0.7612931461983359,-1.645024210909418,6.583923559915129,5.907993568672609,26.419236425868828,-18.135159667234305
-0.7777433883074301,-1.3808318466507297,6.643003495601855,5.726641972000266,25.054018786818656,-15.699061494851128
-0.7915517067739374,-1.1302916587825431,6.700269915321858,5.569651357051755,23.890910727919778,-13.629065718008352
-0.8028546233617628,-0.8913825515033453,6.755966428892376,5.433360699871671,22.900478763867063,-11.884370642772604
-0.8117684488767963,-0.6623777638646747,6.810300035891093,5.314516993443945,22.0519967748335,-10.425236324997988
-0.8183922265154431,-0.4418577961163397,6.863445205825532,5.210264630193965,21.31665708166126,-9.21655963946689
-0.8228108044766065,-0.2286912252997271,6.915547852127472,5.118099033799296,20.668666551493608,-8.228712828657695
-0.8250977167296037,-0.022004559784791017,6.966728842465465,5.035811905512719,20.085416107508753,-7.437225523229678
-0.8253177623274517,0.1788496012902965,7.017086961520592,4.961439650280422,19.54728610673133,-6.822042410303711
-0.8235292663145487,0.3743224623576098,7.066701358023396,4.893219226177385,19.037345307872386,-6.366683645467348
-0.8197860416909726,0.5646959154363337,7.11563355028517,4.8295523897227115,18.54105459182601,-6.057445372818221
-0.8141390825366093,0.7501064613545938,7.1639290741823975,4.7689779359945295,18.04601696006084,-5.882691148051722
-0.8066380179230633,0.9305666309552022,7.211618853542343,4.710151024514012,17.541782896861434,-5.832247303465918
-0.7973323516135113,1.1059844599238167,7.258720363787483,4.651828551479353,17.019705685904935,-5.896900198055796
-0.7862725070142732,1.276181516782866,7.305238649302277,4.592859549498795,16.47283543752861,-6.067988312874499
-0.7735106918464445,1.4409098711581523,7.3511672447972645,4.53217966637005,15.895838964569325,-6.337081294069273
-0.759101593134863,1.5998682608038455,7.396489041460965,4.4688088534293575,15.284933129185303,-6.695738507453212
-0.7431029105268245,1.7527175920956986,7.441177129995259,4.401851468354826,14.637820865283514,-7.135340204829395
-0.7255757346058676,1.8990958007485337,7.485195644678807,4.330498066306532,13.953621260488077,-7.646984550398018
-0.7065847765983823,2.0386320133534146,7.528500625341873,4.254028220802552,13.23278756819454,-8.22144345048615
-0.6861984564648481,2.17095988903536,7.571040907549898,4.17181378629769,12.477009598478523,-8.849169507335146
-0.6644888575744945,2.295729985020145,7.612759045412875,4.083322091224339,11.689099411301397,-9.520345701757186
-0.641531557724293,2.412620979133159,7.653592266325118,3.988118634206767,10.872861422936687,-10.224968838917555
-0.6174053479329614,2.521349593362526,7.6934734526671855,3.8858689458175917,10.032949778134235,-10.95295756740734
-0.5921918519993361,2.6216790911438683,7.732332142125362,3.776339370143518,9.174717023720115,-11.694276031119845
-0.5659750610878974,2.7134262613810693,7.770095535826797,3.65939660983232,8.304058696378645,-12.439064969335229
-0.5388407984740867,2.796466848344856,7.80668950192512,3.5350059601389674,7.427258434473764,-13.177773280348124
-0.5108761299906381,2.8707394326895934,7.8420395615265095,3.4032282273354864,6.550837737300904,-13.901284565572293
-0.4821687356637422,2.9362478100626026,7.876071843799864,3.2642153816797634,5.681413675226079,-14.601034781790027
-0.45280625756311615,2.9930619468148634,7.908713997616662,3.118205033861863,4.825566878886183,-15.269118644001866
-0.42287563809496753,3.041317615603725,7.939896047955281,2.9655138474218443,3.9897211813344264,-15.89838366061428
-0.3924624619389303,3.081214827417069,7.9695511864294994,2.8065300108157016,3.180035500338887,-16.48251152381322
-0.36165031366475964,3.113015182420458,7.997616486537656,2.6417048955775693,2.4023080248890656,-17.0160869743957
-0.33052016184055505,3.137038262669349,8.024033535493432,2.4715440258336123,1.6618925448114437,-17.494654246099063
-0.29914977921386154,3.1536571881174633,8.048748975751769,2.2965974833726217,0.9636268089427151,-17.91476087386341
-0.2676132073326869,3.1632934562068904,8.071714950585495,2.1174498746339876,0.3117730394632479,-18.27398817583046
-0.235980272770618,3.1664111866015228,8.092889449331835,1.934709992875683,-0.29002893958873727,-18.5709672611304
-0.20431616090460278,3.1635108972056356,8.112236549260592,1.7490003202643791,-0.8387951991752887,-18.805379132837512
-0.17268105193254643,3.1551229452138827,8.129726552463236,1.560946528936004,-1.332216895737993,-18.977937465819043
-0.14112982248040762,3.1418007762565026,8.145336017752596,1.3711671542778137,-1.7686642553619707,-19.090353000957673
-0.1097118147178426,3.124114133702883,8.159047689295374,1.180263624268237,-2.147174716308131,-19.145279201259036
-0.07847067338081376,3.102642386539802,8.170850325538057,0.9888108322556466,-2.467425076500926,-19.146239789152705
-0.047444249515415746,3.0779681357747926,8.180738433860613,0.7973484343641195,-2.7296881363561027,-19.097539906987077
-0.01666456815766782,3.0506712544112315,8.188711918204254,0.6063730352942487,-2.9347750497594274,-19.004163767641703
0.013842144386444495,3.0213235039136372,8.194775648557195,0.41633139761783167,-3.0839653019384863,-18.871662642453234
0.04405537942558087,2.990483850894252,8.198938962533374,0.22761477119329931,-3.178926832202685,-18.70603774582654
0.0739602179345234,2.9586945825722255,8.201215110245307,0.04055439373503392,-3.221629241258269,-18.51362293749837
0.10354716376024566,2.926478290159643,8.201620654182658,-0.14458183563994978,-3.21425322549414,-18.300972141620548
0.1328119466618421,2.8943357579047015,8.200174835826259,-0.3275915570561553,-3.1590993561334466,-18.07475599262826
0.1617553042408891,2.862744764343367,8.196898920255697,-0.5083391169824378,-3.0584990933192078,-17.841671516796023
