th1 (rad),w1 (rad/s),th2 (rad),w2 (rad/s)
4.797430514062509,0.2983923233375928,5.489540478165667,1.9417092587005165
4.800414437295885,0.41635257334482034,5.508957570752672,1.9201888763227684
4.804577963029333,0.5344210979018598,5.5281594595159,1.897928233935878
4.809922174008351,0.6526831567900806,5.5471387418552585,1.874567210506002
4.816449005576252,0.7712187322218363,5.565884413960318,1.8497402051103706
4.824161192898471,0.8901023594467451,5.584381816011422,1.823077458954337
4.833062216492938,1.009403344820843,5.602612590600965,1.7942060790514733
4.8431562499411465,1.1291863175613943,5.62055465139148,1.7627508716195832
4.85444811311676,1.2495120759134248,5.638182160107675,1.7283350693166313
4.866943233875895,1.3704386983460801,5.655465510800841,1.6905810183463097
4.880647620859356,1.4920228960505142,5.672371320984304,1.6491108786369804
4.8955678498198605,1.614321584590618,5.688862429770674,1.6035473825185158
4.9117110656657665,1.7373936499639193,5.7048979035958585,1.553514694800882
4.929085002165405,1.8613018771358598,5.720433050543868,1.4986394206390292
4.947698020936764,1.9861149964751794,5.735419444750258,1.4385518184543657
4.967559170901516,2.111909784057183,5.749804962934802,1.3728872957207077
4.988678268742087,2.2387731234024,5.76353383589201,1.3012882989593517
5.011065999976111,2.366803895777213,5.776546718881603,1.223406760625038
5.034734038933883,2.496114509251439,5.7887807864878535,1.1389073414280317
5.059695184026397,2.6268317970319943,5.800169859902134,1.04747181627302
5.0859635019967175,2.7590969045650104,5.810644578064864,0.9488051078579351
5.1135544710423675,2.8930636309977364,5.820132629143444,0.8426436903929431
5.1424851073523445,3.0288944790067287,5.828559066047373,0.7287673873913092
5.172774052142412,3.1667533799491703,5.835846739921286,0.6070159960104506
5.204441585941903,3.3067936800640974,5.84191689988139,0.47731271004927717
5.237509522742544,3.449139484207857,5.846690026981883,0.3396969997161018
5.272000917584622,3.5938578608295875,5.850086996979044,0.19437042523791015
5.307939496192918,3.740918765986299,5.852030701231423,0.041759730824004554
5.345348683852781,3.8901389934798063,5.852448298539663,-0.11739774107069448
5.384250073787579,4.0411063378093806,5.851274321128956,-0.2819412554583802
5.424661137165673,4.193081121642623,5.8484549085743724,-0.4501430618734104
5.466591948382099,4.344875419333677,5.843953477955639,-0.6195353678829213
5.510040702575436,4.494717370651679,5.837758124276809,-0.7867198561350347
5.5549878762819525,4.640120802661897,5.829890925715459,-0.9471905101597944
5.601389084308572,4.777799748315375,5.820419020613861,-1.0952286448060302
5.649167081791726,4.903690106386875,5.809466734165801,-1.2239616111593496
5.698203982855595,5.013155000544558,5.797227118054207,-1.3256967270088624
5.748335532861041,5.101434293979117,5.783970150784119,-1.3926176570366913
5.799349875800832,5.16432844620462,5.770043974213752,-1.4178275074008069
5.850993160262878,5.198983857910774,5.755865699139743,-1.3965433801474931
5.902982998841986,5.2045282987357595,5.741900265338269,-1.3270736530121368
5.955028281829343,5.182291516901136,5.728629528808147,-1.2111872282022942
6.006851196998355,5.135495026880093,5.716517656526125,-1.053697602210185
6.058206147267156,5.068532563457455,5.705980680504023,-0.8614295613444228
6.108891472901731,4.986125069705396,5.697366384890579,-0.6419769319571642
6.158752723598785,4.892622569376282,5.690946615571007,-0.4026507019269222
6.207678949292548,4.791588436943919,5.686920108551738,-0.14982383134848626
6.255594833661988,4.685657841849413,5.685421870238253,0.11132876079574094
6.302451412080482,4.576585453099485,5.68653515784621,0.37681094081642613
6.348217266611477,4.465388494126337,5.690303267254374,0.6436399845348326
6.3928711515527405,4.352516512589588,5.696739667099723,0.9096347520818647
6.436396316678636,4.238009756063234,5.705836014620542,1.1732143971990103
6.4787764142392685,4.12163071468414,5.717568158592532,1.4332320552428208
6.51999272138611,4.002966369643104,5.731900479144961,1.688848791678974
6.560022385082541,3.881504540297894,5.74878896706175,1.9394440200061178
6.59883743048552,3.756689474490571,5.7681834072618114,2.1845554757440087
6.6364043252304254,3.62796163655426,5.790028962019251,2.423841631020061
6.6726839415959684,3.4947857524430406,5.814267378329452,2.6570603850712025
6.707631799120398,3.356670173817773,5.840837982180164,2.8840590903780963
6.741198500858576,3.21317976757727,5.869678573083945,3.1047721016775722
6.773330298534349,3.063943893882298,5.900726294100721,3.319222948363058
6.803969737473172,2.908660599843105,5.933918523584352,3.527528920987389
6.833056343471603,2.7470978994836712,5.969193812794226,3.729906356596554
6.86052732246644,2.579092903749118,6.006492876360192,3.9266752344196467
6.886318251503931,2.404549585592761,6.045759628704388,4.118261869928909
6.910363747359859,2.223436104870458,6.086942247403678,4.30519852062214
6.9325981084085635,2.035782880157355,6.129994232609899,4.488118569840704
6.952955937210137,1.8416829995569652,6.174875418308306,4.667745592091491
6.971372767205707,1.641297146445212,6.221552874229221,4.8448739580933875
6.9877857386701585,1.4348660295841609,6.270001613810155,5.020337622961553
7.0021343989660005,1.2227344043267332,6.3202049900397705,5.194962262551155
7.0143617430092675,1.0053921783111612,6.372154612665282,5.369493921691187
7.024415664792379,0.7835397302120988,6.425849551882194,5.544494892755793
7.0322510620945,0.5581860782735499,6.481294500809752,5.720195098351201
7.037832922877235,0.3307889612941566,6.538496451793264,5.896286064826397
7.041140812490177,0.10344313810593986,6.597459312441528,6.071647473996437
7.042175243871236,-0.12088667654511459,6.658175787181492,6.244008675836176
7.040966377105785,-0.33811495822315296,6.720615873939854,6.409577939836484
7.037585227523554,-0.5428361986250784,6.784711653338219,6.562729896981293
7.032156865537303,-0.7283090898255957,6.850338952308031,6.69592659537217
7.024873774639047,-0.8868131328836301,6.917298218261753,6.800128188756293
7.01600564331021,-1.010553962678312,6.985299500149316,6.865936712254723
7.005900103683427,-1.0931184797603235,7.053958867271863,6.885484176011654
6.9949689188858235,-1.1311236852066564,7.12281370903198,6.854595806678049
6.983657682033757,-1.1253633591602998,7.1913596670987605,6.774300530478015
6.9724040484421534,-1.0808062636460005,7.25910267240354,6.650828098642111
6.961595985805693,-1.0053741421906874,7.325610953389962,6.494006356767179
6.951542244383786,-0.9081067300858608,7.390551016957634,6.314878039706566
6.942461177082928,-0.7975248368559509,7.4536997973547,6.123613730515378
6.934485928714368,-0.6806643966766631,7.514935934659854,5.9283300404090316
6.927679284747602,-0.5627893969762743,7.574219235063945,5.734799221447169
6.922051390777839,-0.4475417446508729,7.631567227278416,5.546713708736829
6.9175759733313305,-0.3372732762358428,7.687034364365784,5.366164634436184
6.914203240568972,-0.23339592131466796,7.740696010710146,5.19412191372272
6.911869281355826,-0.1366764414988162,7.792637229847373,5.0308258534163395
6.910502516940838,-0.047457941441027426,7.842945488381536,4.876073275109194
6.9100279375264275,0.03418443450440635,7.891706221132628,4.729412597547583
6.910369781871472,0.10833871921976823,7.939000347108104,4.5902704140469295
6.91145316906367,0.17518775856694063,7.9849030512485735,4.4580302462258325
6.913205046649339,0.23496571973979585,8.029483353710832,4.332079426815184
6.915554703846737,0.28793108888494373,8.072804147978983,4.211835412040634
6.9184340147355865,0.3343503721497253,8.11492250209939,4.09675914937913
6.921777518457084,0.37448862542113787,8.15589009359318,3.9863604937949306
6.9255224047112955,0.4086042667412676,8.19575369853113,3.8801988758095165
6.929608447378708,0.4369465202227662,8.234555687289225,3.7778812450702155
6.933977912580936,0.459754431781409,8.272334499739927,3.6790585503976225
6.93857545689875,0.47725678363771257,8.309125085243902,3.5834215305476405
6.943348024735127,0.48967248550900294,8.344959300549379,3.4906962822534187
6.948244749590217,0.4972111825182856,8.379866263371913,3.4006398792433026
6.9532168614154,0.5000739240784875,8.413872662164346,3.3130361960620176
6.958217600656185,0.4984538046546301,8.447003024124966,3.2276920167915404
6.963202138702731,0.49253652956077476,8.47927994429288,3.1444334640405858
6.968127503998339,0.48250088538213143,8.510724278933287,3.063102756971273
6.97295251285216,0.46851911079000985,8.541355306503,2.9835552917815256
6.9776377039600606,0.45075717305831753,8.571190859420815,2.9056570296309574
6.982145275690644,0.4293749608567948,8.600247429717125,2.8292821727717463
6.9864390252992115,0.40452640643424154,8.628540251444843,2.7543111079341576
6.990484289363554,0.3763595511303561,8.656083362524184,2.6806285957765996
6.9942478848748575,0.34501656793681124,8.68288964848195,2.6081221858082713
6.9976980505542254,0.31063375400866977,8.708970870340034,2.536680837250217
7.000804388094312,0.2733415048976266,8.734337678712535,2.4661937275985473
7.003537803143288,0.2332642810301177,8.75899961598852,2.3965492320696273
7.005870445953589,0.19052057570999353,8.782965108309217,2.3276340585778144
7.0077756517106895,0.1452228927655137,8.806241448894994,2.2593325243924127
7.009227880638345,0.09747774093089706,8.828834774138919,2.1915259621315384
7.010202658047653,0.04738565117892221,8.850750033760233,2.1240922442755985
7.010676514559442,-0.004958777486699165,8.871990956202989,2.056905416924928
7.0106269267845756,-0.059466798812904155,8.892560010372238,1.989835435088036
7.010032258796446,-0.11605540207219414,8.912458364723118,1.922747993370266
7.008871704775724,-0.17464715249361643,8.93168584465682,1.855504447535799
7.007125233250788,-0.23516998513285903,8.950240889132179,1.7879618240329693
7.004773533399459,-0.2975569479851503,8.968120507372507,1.7199729161930246
7.001797963919607,-0.3617458900928261,8.985320236534438,1.6513864674190613
6.998180505018679,-0.4276790903061975,9.001834101208628,1.5820474432514284
6.993903714115617,-0.495302822256895,9.017654575641142,1.5117973956969866
6.988950685893048,-0.564566851036824,9.032772549598112,1.4404749246017696
6.98330501738268,-0.6354238570877161,9.04717729884413,1.3679162420790985
6.976950778811803,-0.7078287829455766,9.06085646126492,1.2939558470160104
6.969872490982347,-0.7817380988058193,9.07379601973508,1.2184273173959568
6.962055109994289,-0.857108983437953,9.08598029290904,1.1411642285087815
6.953484020159909,-0.9338984178464746,9.097391935194128,1.0620012049721714
6.944145035981444,-1.012062190312089,9.10801194724385,0.9807751137544727
6.934024414078324,-1.0915538131183824,9.117819698381396,0.8973264039531995
6.92310887594714,-1.1723233534321507,9.126792962420929,0.8115005968322424
6.911385642412818,-1.254316183508211,9.134907968389252,0.7231499264465504
6.898842480577736,-1.3374716586608308,9.142139467653717,0.632135126996848
6.8854677639911275,-1.421721735285912,9.148460818923686,0.5383273578014018
6.871250546638269,-1.50698954559565,9.1538440925017,0.44161025043770696
6.856180651182312,-1.5931879505576636,9.158260195006077,0.34188205525143367
6.840248771676735,-1.680218097672605,9.161679015558592,0.23905785619605024
6.823446590700009,-1.7679680154703785,9.164069594120553,0.13307181410127358
6.805766910545305,-1.8563112816757845,9.165400312261566,0.023879389337711263
6.787203797728547,-1.945105806538577,9.165639106154943,-0.08854051405884747
6.767752739663162,-2.034192776425884,9.164753701014355,-0.20418354880075104
6.747410811898903,-2.1233958049760284,9.162711865526347,-0.32301814179093424
6.726176853849143,-2.212520339433851,9.159481684108439,-0.4449840052178781
6.7040516504548044,-2.3013533677729345,9.15503184405626,-0.5699910188806367
6.681038116777075,-2.3896634674755437,9.149331933867455,-0.6979185583351704
6.65714148210232,-2.4772012291301766,9.142352748284102,-0.8286153359028107
6.632369469811018,-2.563700077246798,9.134066594925073,-0.9618998090772665
6.60673246903855,-2.64887749704216,9.124447596834301,-1.0975611933436762
6.580243694068129,-2.7324366598411447,9.113471984900864,-1.2353610942184354
6.552919327469717,-2.8140684218822667,9.101118373958679,-1.3750357472151602
6.524778643250895,-2.8934536526723957,9.087368016486527,-1.5162988256725827
6.495844106724171,-2.970265830778633,9.072205028229801,-1.6588447465767386
6.466141448416384,-3.0441738283651336,9.055616580764033,-1.8023523756016822
6.435699710132733,-3.1148447921806524,9.037593057008015,-1.9464890066558098
6.404551262210926,-3.181947019267854,9.018128166941457,-2.090914470293995
6.372731792018248,-3.2451527213572455,8.997219022238516,-2.2352852112490917
6.340280264804676,-3.3041405733586546,8.974866170126026,-2.379258169453416
6.30723885907109,-3.3585979488138826,8.951073588431491,-2.522494302122416
6.273652879582951,-3.40822275846086,8.925848645410268,-2.6646615970020817
6.239570651998342,-3.4527248266402597,8.899202029440247,-2.8054374483600437
6.205043403731939,-3.4918267633002613,8.871147654956646,-2.9445102967928767
6.170125136098937,-3.5252643157638515,8.841702551988718,-3.081580470058895
6.134872492941299,-3.552786213051539,8.810886747288128,-3.2163602032767846
6.0993446308107835,-3.5741535452287994,8.778723145255361,-3.348572861185357
6.063603095358496,-3.5891387498603096,8.745237416643507,-3.4779514309846697
6.0277117078598925,-3.5975243061778372,8.71045790233366,-3.6042363999255285
5.991736464798114,-3.5991012640491027,8.674415538334404,-3.7271731757672732
5.955745452157623,-3.593667758318143,8.63714380657673,-3.8465092490580965
5.919808774574442,-3.5810276785265382,8.59867871408615,-3.961991332472039
5.883998497789176,-3.560989678164552,8.559058800761429,-4.0733627425705885
5.848388601007531,-3.5333667148771966,8.518325173335723,-4.1803613114401985
5.8130549338587585,-3.497976311529144,8.476521560221322,-4.282718127345132
5.778075170743467,-3.454641715433485,8.43369437894787,-4.380157401991242
5.743528753589132,-3.4031941068841958,8.389892804927957,-4.472397743972344
5.70949681252029,-3.3434759659949873,8.345168827488234,-4.559155080068201
5.67606205286034,-3.2753456468738764,8.299577276687552,-4.6401474052137335
5.643308596391601,-3.19868312964683,8.253175802635415,-4.715101456131475
5.611321765095133,-3.113396824956115,8.2060247880741,-4.783761292709224
5.580187796845572,-3.019431196060774,8.158187175147008,-4.845898637999082
5.549993484884965,-2.9167748474483486,8.109728188767017,-4.901324678740915
5.520825736410481,-2.8054686161007996,8.060714941979608,-4.94990287432677
5.492771050249473,-2.6856131052479983,8.01121591323634,-4.991562177937133
5.465914919196993,-2.557375035217082,7.961300291456968,-5.026309957017736
5.440341168844822,-2.4209917661092923,7.911037191886791,-5.054243830117503
5.416131251183729,-2.2767733838299367,7.860494753585616,-5.075561630235586
5.3933635173454295,-2.1251018400986093,7.809739137283261,-5.090568772823708
5.3721124989444435,-1.9664267961321908,7.7588334495550235,-5.099682452687974
5.352448230983121,-1.8012580272271728,7.707836625028143,-5.1034323110397635
5.33443565071085,-1.6301544813114375,7.656802301917746,-5.102457483957285
5.318134105897736,-1.4537103222045955,7.605777727078173,-5.097500239792432
5.30359700267569,-1.2725384989130344,7.554802724680248,-5.089396703880764
5.29087161768656,-1.0872525391710854,7.50390875764144,-5.079065422799766
5.279999092294849,-0.8984473487609825,7.453118103413443,-5.067494711502842
5.271014618807239,-0.7066797979825007,7.402443156298415,-5.055729839056594
5.263947820827414,-0.5124497941944263,7.351885857907849,-5.044861138940321
5.25882332288547,-0.31618238588826486,7.301437246518446,-5.036014086824646
5.255661499026587,-0.11821123775845546,7.251077105650199,-5.03034229148712
5.2544793866490025,0.08123642052158325,7.200773682735328,-5.029024218535634
5.2552917508542185,0.2820535155174629,7.150483440549971,-5.0332643395238135
5.258112286009393,0.4842659037141733,7.100150797154733,-5.044299296623646
5.262954945046534,0.6880447994313306,7.049707804188496,-5.063409615958228
5.2698353930408475,0.8937196520152548,6.999073708028914,-5.0919375040878245
5.278772589561,1.10179243080911,6.948154332988036,-5.131311324862464
5.289790513869091,1.3129544036676055,6.896841219739411,-5.183077466006725
5.302920057905768,1.5281065667387164,6.845010445079343,-5.2489404297716336
5.3182011235731546,1.748384849093668,6.792521040781627,-5.330812036524714
5.335684972064091,1.97519095644716,6.73921292041638,-5.4308704375109205
5.355436881628563,2.210228973326036,6.684904216041271,-5.551628824948148
5.377539171361824,2.455546063474602,6.6293879277917895,-5.696011541526299
5.40209463199657,2.7135716560164465,6.572427812376526,-5.867430153503862
5.429230348556734,2.9871410463950037,6.513753510841488,-6.069840729304286
5.459101759020684,3.27947164897635,6.4530551035484445,-6.307739484620685
5.491896475510448,3.594023858562561,6.389977708702237,-6.58600404778652
5.527836714096074,3.934106057211086,6.324117668224372,-6.90938721298776
5.567177774668185,4.301945797038722,6.255023796094495,-7.281278231400202
5.610197232638572,4.696715384174305,6.182211013780493,-7.701018346479847
5.657164386480315,5.110707508834201,6.105200830315694,-8.158641368215665
5.708271461568657,5.522891421269689,6.023614416633538,-8.62594002682715
5.763500375781354,5.890864399885685,5.937355016365267,-9.045215729081864
5.822409019780211,6.148422058847826,5.846902859074448,-9.325699013731464
5.883893240368689,6.224682276711942,5.7536458689371335,-9.369782699171429
5.946140063135808,6.090143411377277,5.65994804194542,-9.13655613557799
6.007041497249581,5.78806013225694,5.568582480589639,-8.684855414879172
6.064922098572151,5.403643675243684,5.481733926440848,-8.130351514976645
6.1189585353245874,5.00881649169325,5.400430411291081,-7.569587541164111
6.16904670024152,4.641525134660252,5.32473453587944,-7.05224525477899
6.215461951588122,4.314546170040755,5.25421208333165,-6.593814636385913
6.25860741328853,4.028304747141104,5.188273936967791,-6.193350852636716
6.298890460759941,3.7786493380961605,5.126340428441424,-5.84407589246995
6.336676954140903,3.560378618294632,5.067899669516724,-5.538099032715432
6.372280740323849,3.368579538222826,5.01251867918957,-5.268151344267742
6.405966535706077,3.199025034255176,4.959837165746893,-5.028059465198122
6.437956786048629,3.0482104363378357,4.909556571094912,-4.812748170746549
6.468438890412007,2.9132696285360073,4.861429089387447,-4.6180952574557965
6.497571586697367,2.791864570457346,4.815248136812889,-4.440761462460093
6.52549023240194,2.6820813526105747,4.770840522188289,-4.27803703810525
6.552311045928046,2.5823422248872903,4.728060151807236,-4.127715408080224
6.578134468176919,2.4913342615757,4.686782997726434,-3.9879931945073435
6.603047810792676,2.4079524954095923,4.646903065781361,-3.8573925835133993
6.6271273357467715,2.331254794689744,4.6083291399462265,-3.7347015647238675
6.650439883693669,2.2604259961861226,4.570982124298988,-3.618928093141619
6.67304414365553,2.1947492649689266,4.534792843367572,-3.50926493896232
6.694991636305219,2.1335831174958195,4.499700193977948,-3.4050626524730583
6.716327467480177,2.0763429481598,4.465649567453218,-3.3058086061097254
6.737090896961775,2.02248622887614,4.43259148139212,-3.2111104830529027
6.757315759250536,1.9715008110767676,4.400480376561592,-3.120682883899565
6.777030767361304,1.9228959582211622,4.369273547722596,-3.03433594813748
6.796259726943516,1.8761958815798163,4.338930188241221,-2.9519650630077097
6.815021685759314,1.8309356467668596,4.309410537611144,-2.87354088387952
6.833331042226982,1.786659365273759,4.280675128772349,-2.7990990388673005
6.8511976358797195,1.7429205853876635,4.2526841383836755,-2.728729052715117
6.8686268417335965,1.6992847529311395,4.2253968478565245,-2.6625622112403438
6.885619689262908,1.655333530043451,4.198771225744121,-2.6007582999961336
6.902173024563343,1.6106706503331634,4.17276364274416,-2.543491381850714
6.918279731066675,1.5649288671234987,4.147328728925653,-2.490935010648336
6.93392901973791,1.5177774386365421,4.12241937881917,-2.443247486631157
