th1 (rad),w1 (rad/s),th2 (rad),w2 (rad/s)
0.5421119530870194,2.529564488864835,1.2201915173187898,0.005361785749482494
0.5674075979756678,2.530864414672018,1.2202451351762846,-0.1278276867271665
0.5927162421223879,2.5299733167847274,1.218966858309013,-0.2580682061192007
0.6180159752902352,2.5268744603206446,1.216386176247821,-0.3850699005670242
0.6432847198934417,2.521505614570027,1.2125354772421508,-0.5085103185955244
0.668499776039142,2.5137553285340437,1.2074503740561955,-0.6280296436176909
0.6936373293244824,2.5034599876716435,1.2011700776200185,-0.7432267382077875
0.7186719292011988,2.4904021528126528,1.1937378102379406,-0.8536567552034838
0.7435759507293254,2.474310818296911,1.1852012426859058,-0.958831231954134
0.7683190589122945,2.454864342398366,1.1756129303663645,-1.0582217319388045
0.7928677023362781,2.431696860218185,1.1650307130469764,-1.1512681607459456
0.81718467093846,2.404408935093014,1.1535180314395168,-1.237392788717103
0.8412287602893902,2.3725829797995663,1.1411441035523457,-1.3160206790994433
0.8649545900873858,2.3358035329648885,1.1279838967613514,-1.3866065804260561
0.8883126254170347,2.293681793441069,1.1141178309570907,-1.4486673768745086
0.9112494433514454,2.2458829464753824,1.0996311571883457,-1.50181797566422
0.9337082728161993,2.1921539010177207,1.0846129774317035,-1.5458072473380757
0.9556298118263765,2.132348325501911,1.0691549049583227,-1.5805496448105116
0.9769532950813956,2.066445587718125,1.0533494085102175,-1.6061477843512075
0.9976177509585769,1.99456058765612,1.0372879306667055,-1.6229018710342045
1.017563356835138,1.9169425734137897,1.0210589119563636,-1.6313034561177735
1.036732782569276,1.8339626718702506,1.0047458773951858,-1.6320133621209505
1.0550724092879786,1.7460916633487156,0.9884257437739763,-1.625826152007997
1.0725333259214658,1.653871017142659,0.9721674822538964,-1.6136255922643472
1.0890720360928923,1.557881010509112,0.9560312263312529,-1.5963366456428223
1.1046508461979834,1.458709735424607,0.9400678598748247,-1.5748794380082811
1.1192379435522295,1.3569260724902754,0.9243190654947419,-1.550129553583585
1.1328072042771322,1.2530585763383613,0.908817769958906,-1.5228873536917296
1.1453377900405157,1.1475810123458494,0.8935888964219887,-1.4938572735948705
1.1568136001639742,1.0409042775814372,0.87865032368604,-1.4636366094599682
1.1672226429397885,0.9333737670159762,0.8640139575914403,-1.4327123546883056
1.1765563806099482,0.8252709228359186,0.8496868340445572,-1.4014641968906578
1.1848090898383072,0.7168176632054406,0.8356721920756507,-1.3701717441428636
1.1919772664703616,0.6081825285365073,0.821970474634222,-1.3390242684267413
1.1980590917557268,0.49948761480332415,0.8085802319499547,-1.3081316002328773
1.20305396790376,0.3908156146983787,0.7954989159476259,-1.27753518041483
1.2069621240507438,0.2822165157565458,0.7827235641434775,-1.2472186122945867
1.2097842892083093,0.17371369007238507,0.7702513780205317,-1.217117330411341
1.211521426109033,0.06530924857174032,0.7580802047164182,-1.1871272062689298
1.2121745185947503,-0.04301137158151069,0.7462089326537289,-1.1571120526578995
1.2117444048789352,-0.1512755567425047,0.7346378121271498,-1.1269100786715223
1.2102316493115102,-0.259520338500844,0.7233687113404347,-1.0963394003804172
1.2076364459265017,-0.36778980430949604,0.7124053173366305,-1.0652027388736545
1.2039585478834067,-0.47613300739607883,0.701753289947894,-1.0332914473597699
1.1991972178094459,-0.584602286166338,0.6914203754742962,-1.0003890092825052
1.1933511949477824,-0.6932519061166014,0.6814164853814711,-0.9662741449862442
1.1864186758866164,-0.8021369406447839,0.6717537439316087,-0.9307236588605408
1.1783973064801685,-0.911312309450804,0.6624465073430033,-0.8935151544813096
1.1692841833856604,-1.0208318933230265,0.6535113557981902,-0.8544297436729894
1.1590758644524302,-1.1307476412172235,0.6449670583614603,-0.8132548777848989
1.1477683880402578,-1.2411085790422451,0.6368345095836113,-0.7697874366538021
1.1353573022498353,-1.351959618988139,0.6291366352170733,-0.7238372233652105
1.121837706059954,-1.4633400531938032,0.6218982629834212,-0.675231031496223
1.107204305528016,-1.5752815958449249,0.615145952668459,-0.6238174762170694
1.0914514895695668,-1.6878058135248506,0.6089077779062883,-0.569472811145197
1.0745734314343183,-1.8009207555030158,0.6032130497948363,-0.5121079879808577
1.056564223879288,-1.9146165653670755,0.5980919699150277,-0.4516772529362294
1.0374180582256174,-2.028859826452731,0.5935751973856653,-0.3881886074434715
1.01712945996109,-2.1435863721297723,0.5896933113112306,-0.32171648116272167
0.9956935962397924,-2.2586922885690224,0.5864761464996033,-0.25241695738808395
0.9731066733541022,-2.374022868497447,0.5839519769257225,-0.18054583043750672
0.9493664446691277,-2.4893593638653906,0.5821465186213475,-0.10647962610291523
0.9244728510304737,-2.604403566785263,0.5810817223603183,-0.03073943118241261
0.8984288153626211,-2.718760563802934,0.5807743280484942,0.04598310418841148
0.8712412097245917,-2.83192050459195,0.5812341590903782,0.12279897260862153
0.8429220046786723,-2.943240939086399,0.5824621488164644,0.19859666302453427
0.8134895952878083,-3.051932207577896,0.5844481154467097,0.27202246890120596
0.7829702732120293,-3.157049438532706,0.5871683401357217,0.34147161744074683
0.7513997788267022,-3.2574957074671747,0.5905830563101292,0.405097024564993
0.7188248217520304,-3.352041445405174,0.5946340265557791,0.46084322312437237
0.6853044072979787,-3.4393646920305883,0.5992424587870229,0.5065122346632621
0.6509107603776728,-3.518114656196949,0.6043075811336555,0.5398649701626781
0.6157296138157033,-3.586996921730402,0.6097062308352822,0.558755639211338
0.5798596445983993,-3.6448728588318846,0.6152937872273956,0.5612881116132926
0.5434109160100805,-3.6908597503384115,0.6209066683435285,0.5459742118826393
0.5065023185066964,-3.7244141203191594,0.6263664104623549,0.5118678837946782
0.4692581773035048,-3.745381125349823,0.6314850893003017,0.4586494991457993
0.43180436605000655,-3.7539986809148016,0.6360715842917597,0.38664287544081455
0.39426437924085855,-3.7508549237733013,0.6399380130461678,0.29676196779278846
0.35675583000312555,-3.7368082190975502,0.6429056327240957,0.19039978039009475
0.31938774781215007,-3.7128863361991993,0.6448096305279967,0.06928317480181223
0.28225888445015807,-3.680183362984733,0.6455024622760148,-0.06467945364012104
0.24545705082031072,-3.639769694109563,0.6448556677396136,-0.2095349192226101
0.2090593538792151,-3.5926242404021815,0.6427603185473875,-0.36339238707721755
0.17313311147519328,-3.539591541052846,0.6391263946766153,-0.5244961785764506
0.13773719606466484,-3.4813615809460043,0.6338814328908507,-0.6912666606359673
0.10292358025520479,-3.4184674680800757,0.626968766284491,-0.8623156534046477
0.06873890557440403,-3.351295421785699,0.6183456097504446,-1.0364440124041288
0.03522595135654703,-3.280102067772019,0.6079811696264034,-1.2126284233506348
0.0024249306788268407,-3.2050351475183367,0.595854885392897,-1.3900029569143737
-0.02962542079635653,-3.126154947306008,0.5819548558237533,-1.5678392597085198
-0.060886970269416606,-3.043454781763408,0.5662764632266681,-1.7455277858060771
-0.09132151808705069,-2.956879641038216,0.5488211853686074,-1.9225613408865747
-0.12089031449743284,-2.866342638380984,0.5295955719597416,-2.0985214200290154
-0.14955374088124268,-2.771739225852533,0.5086103577594514,-2.27306730927219
-0.177271133139768,-2.6729593383143264,0.4858796846667295,-2.4459276140379083
-0.20400072652291126,-2.569897731203923,0.4614204085263504,-2.6168937051679677
-0.2296997038349505,-2.4624628355478495,0.43525147147467075,-2.7858144811146173
-0.254324332190429,-2.3505844926732853,0.40739332666352457,-2.95259179277293
-0.27783017711716185,-2.2342209706648553,0.3778674087357953,-3.11717583716105
-0.3001723868238104,-2.113365717891299,0.34669565036418476,-3.2795597773931284
-0.3213060440027234,-1.9880543845763696,0.3139000525902535,-3.439772774319763
-0.3411865878484871,-1.858372746650037,0.27950232484705584,-3.5978705089764245
-0.3597703153149875,-1.7244662985173176,0.2435236197572916,-3.7539221280100428
-0.3770149783001607,-1.5865524386682994,0.20598439847719116,-3.907992357031943
-0.39288050268684366,-1.444936339457721,0.16690447490687174,-4.060117313360635
-0.40732986608142085,-1.3000317359083768,0.12630330177326538,-4.210272349364257
-0.4203301834405046,-1.1523879204320981,0.0842005782796228,-4.358330155561368
-0.43185406264482556,-1.0027240683450693,0.04061727672400912,-4.504007509250241
-0.44188130332827624,-0.8519714382540843,-0.00442279836849329,-4.646799744613638
-0.4504010177108171,-0.7013226803156933,-0.05089079581462967,-4.785903670349184
-0.457414244513974,-0.5522850287019233,-0.09874983251812151,-4.920132850334818
-0.4629370948009932,-0.4067301184814866,-0.1479511610214697,-5.047834515552769
-0.46700439598580806,-0.26692736010292795,-0.1984295061769974,-5.166825211816198
-0.4696736695868373,-0.1355408204375532,-0.25009775829515934,-5.274371887118821
-0.47102907779121284,-0.015563598185567698,-0.3028414771663476,-5.367253590738825
-0.47118471377306853,0.08983673851394675,-0.3565140130737358,-5.441940219815186
-0.47028634638792904,0.17757662431976376,-0.41093341527188765,-5.4949101713700905
-0.4685105801447314,0.24500565444320513,-0.4658825169855886,-5.523091582441418
-0.46606052360029937,0.290291369210567,-0.5211134328100028,-5.5243559973225596
-0.4631576099081937,0.3127458537159137,-0.5763569927832284,-5.497941176867654
-0.4600301513710346,0.3129912061202612,-0.6313364045519049,-5.444667114378915
-0.456900239309832,0.2928996146356642,-0.685783075695694,-5.366860646747246
-0.4539712431634753,0.25531934960127145,-0.7394516821631665,-5.268004441987647
-0.4514180496674626,0.20367081040953985,-0.792131726583043,-5.152222196802707
-0.4493813415633672,0.14152730414266024,-0.84365394855107,-5.023750803850784
-0.4479660685219406,0.07227432076404439,-0.8938914565895778,-4.886520680353652
-0.44724332531430017,-0.001108422685306129,-0.9427566633931144,-4.743898875877671
-0.44725440954115325,-0.07614488903830621,-0.9901956521518911,-4.598587708080635
-0.4480158584315363,-0.15087019781514352,-1.0361815292326975,-4.452637417768551
-0.44952456040968775,-0.2237836219686185,-1.080707903410383,-4.307524521263204
-0.45176239662937395,-0.2937770423195,-1.123783148623015,-4.164256689755454
-0.45470016705256894,-0.3600588079668263,-1.1654257155205696,-4.023478838155939
-0.4583007551322372,-0.42208392181795645,-1.205660503902129,-3.8855672190995842
-0.4625215943504168,-0.4794951209111572,-1.244516176093125,-3.7507066044651127
-0.46731654555952834,-0.5320756693243041,-1.282023242137776,-3.6189503702312114
-0.4726373022527714,-0.5797128163118868,-1.318212745840088,-3.490265524486679
-0.4784344304158903,-0.6223701655264823,-1.3531154010849549,-3.3645654455294713
-0.4846581320711551,-0.6600671138518451,-1.3867610555402496,-3.2417330545805694
-0.4912588032096736,-0.6928637129191096,-1.4191783860860554,-3.1216367793465962
-0.4981874403388647,-0.7208495953691579,-1.4503947538795214,-3.0041412090455326
-0.5053959362925563,-0.744135898910751,-1.4804361659699767,-2.889113910661099
-0.5128372952816638,-0.7628493755788986,-1.5093273050765876,-2.7764295125028435
-0.5204657890374528,-0.7771280804149434,-1.5370916002016162,-2.6659718724261516
-0.5282370698416022,-0.7871181949205877,-1.5637513189258776,-2.5576349271683485
-0.5361082517908081,-0.7929716627890572,-1.589327668197561,-2.4513226541553457
-0.5440379684186987,-0.7948444063156297,-1.6138408947391145,-2.346948455574154
-0.551986412481855,-0.7928949586358663,-1.637310379294856,-2.2444341858530126
-0.5599153620682137,-0.7872833954464298,-1.659754721153386,-2.143708979401685
-0.5677881960226779,-0.778170484804161,-1.6811918109474029,-2.0447079889813753
-0.5755699008707196,-0.7657169985555091,-1.7016388908372166,-1.9473711114994985
-0.5832270708562747,-0.7500831466128072,-1.7211126019522116,-1.8516417537681928
-0.5907279023224028,-0.7314281076662703,-1.7396290194898936,-1.7574656732249474
-0.5980421833990655,-0.7099096384755883,-1.757203676222143,-1.6647899159180792
-0.6051412797838214,-0.6856837497047408,-1.7738515753813238,-1.5735618648697407
-0.6119981172808688,-0.6589044401397777,-1.7895871940300212,-1.4837284052876263
-0.6185871616822666,-0.6297234836392585,-1.8044244780828975,-1.3952352083192592
-0.6248843965186591,-0.5982902647308251,-1.81837683016609,-1.308026131638825
-0.6308672991659674,-0.5647516596891313,-1.8314570914824784,-1.2220427327718921
-0.6365148157628587,-0.5292519604288796,-1.8436775188101973,-1.1372238894404634
-0.6418073353671475,-0.49193283877792515,-1.855049757704602,-1.0535055201602508
-0.6467266637549267,-0.4529333487687472,-1.8655848129062045,-0.9708203977026921
-0.6512559972426142,-0.41238996457727284,-1.8752930168832314,-0.889098047739278
-0.6553798968883869,-0.37043665169605655,-1.884183997360624,-0.8082647249331166
-0.6590842634053475,-0.3272049688857014,-1.8922666446099552,-0.7282434588682402
-0.6623563130942045,-0.28282419842230033,-1.8995490791986376,-0.6489541624601161
-0.6651845550784276,-0.23742150215813868,-1.9060386208232387,-0.5703137958304143
-0.667558770100009,-0.19112210093979717,-1.9117417587815428,-0.4922365790222492
-0.669469991109407,-0.1440494749794737,-1.9166641245717653,-0.41463424735192306
-0.6709104858592017,-0.09632558284625271,-1.9208104670452846,-0.33741634361758344
-0.6718737416876642,-0.04807109682700166,-1.9241846304814605,-0.2604905417960839
-0.6723544526559343,0.0005943475063697745,-1.9267895358994214,-0.18376299724189882
-0.6723485091808706,0.049551889603373755,-1.9286271658718404,-0.10713871874409425
-0.6718529902848369,0.09868317212344971,-1.9296985530592814,-0.03052195808926854
-0.6708661585636024,0.14787006096118788,-1.930003772640174,0.046183386987880826
-0.6693874579539906,0.19699435903306356,-1.9295419387702952,0.12307336041547266
-0.6674175143636599,0.2459375157486952,-1.9283112051661404,0.20024352980618598
-0.664958139206173,0.2945803341188858,-1.9263087698680785,0.27778856671266183
-0.6620123358649841,0.34280267751436044,-1.923530884200952,0.3558018289888035
-0.6585843090898404,0.3904831781829327,-1.919972865911064,0.4343749492561947
-0.6546794773080111,0.43749894975687564,-1.915629116418502,0.5135974336799782
-0.6503044878104424,0.4837253061328566,-1.9104931420817022,0.5935562755412502
-0.6454672347491138,0.5290354892784342,-1.9045575793262897,0.6743355884514863
-0.6401768798563295,0.5733004087045297,-1.8978142234417748,0.7560162644854325
-0.6344438757692843,0.6163883955333948,-1.8902540607969205,0.8386756630072448
-0.6282799918139503,0.6581649742756109,-1.881867304166848,0.9223873365234403
-0.6216983420711942,0.6984926555951739,-1.8726434308016138,1.0072208005060606
-0.6147134155152425,0.7372307534750081,-1.8625712227965532,1.0932413547783095
-0.6073411079804925,0.77423523028159,-1.8516388092487701,1.1805099647276107
-0.5995987556776765,0.8093585732515789,-1.839833709601494,1.2690832112888073
-0.5915051699451607,0.8424497058706568,-1.827142877488606,1.359013319300263
-0.5830806728864542,0.8733539374718232,-1.8135527442956034,1.4503482744504075
-0.5743471335117359,0.9019129541367915,-1.7990492615510993,1.5431320395688226
-0.565328003970368,0.9279648536344914,-1.7836179411554112,1.6374048814348525
-0.5560483554340231,0.9513442266772818,-1.7672438923410627,1.7332038195305801
-0.5465349131672502,0.9718822862318616,-1.749911854145757,1.8305632081964436
-0.5368160903049316,0.9894070460175808,-1.7316062220637927,1.9295154633862093
-0.5269220198447558,1.0037435487116984,-1.7123110674299307,2.0300919445749495
-0.5168845843576388,1.014714143841564,-1.6920101479841811,2.132324001235467
-0.5067374429192232,1.0221388150019732,-1.6706869079718265,2.236244191515791
-0.49651605476920346,1.0258355560732855,-1.6483244660566685,2.341887678121564
-0.4862576992084706,1.0256207967911573,-1.624905589275453,2.4492938026553883
-0.47600149124055907,1.0213098796967217,-1.600412651248899,2.558507834403112
-0.4657883924435919,1.0127175936870167,-1.574827572904868,2.669582882235916
-0.4556612165067217,0.999658774799969,-1.5481317440825089,2.782581948133193
-0.44566462875872204,0.9819489934942485,-1.520305924601177,2.8975800866995765
-0.43584513882377957,0.9594053608950449,-1.4913301237341812,3.0146666153316595
-0.42625108521482913,0.9318475061818043,-1.4611834575808647,3.133947292058198
-0.4169326101530111,0.8990988061483901,-1.4298439846602826,3.2555463391915977
-0.4079416220915272,0.8609879896575827,-1.3972885212683666,3.379608136015313
-0.3993317421949514,0.8173512993434711,-1.3634924399082133,3.5062983260174825
-0.39115822920151666,0.7680354774984709,-1.3284294566480386,3.6358039741468366
-0.383477874426532,0.7129019621262741,-1.2920714169065701,3.7683322540317317
-0.37634885480526925,0.6518328452691265,-1.2543880943662529,3.904106926214857
-0.36983052635257796,0.5847393750738686,-1.2153470251041043,4.043361562859485
-0.3639831326018393,0.511574095002131,-1.1749134094755094,4.186328053246751
-0.35886739165181797,0.4323481284835782,-1.133050128943042,4.333218355801578
-0.3545439103669822,0.34715565012110916,-1.089717945385026,4.484196719285089
-0.35107235386577107,0.2562082297633426,-1.0448759781921753,4.639338675396448
-0.34851027156813763,0.15988243572154937,-0.9984825914382108,4.798572070739977
-0.34691144721092215,0.05878466753682138,-0.950496870730811,4.961594469467937
-0.34632360053555394,-0.04616273327843666,-0.9008809260361317,5.127760924445014
-0.3467852278683383,-0.15361124926914976,-0.8496033167916816,5.295937412991151
-0.3483213403610298,-0.2616528308017192,-0.7966439426617701,5.464320000988042
-0.35093786866904697,-0.3676729645798665,-0.7420007426518896,5.630230853826538
-0.35461459831484565,-0.46821534392170705,-0.6856984341136243,5.789922887324495
-0.3592967517540627,-0.5589071183046838,-0.6277992052403794,5.938456822936948
-0.3648858229371096,-0.6345215898646026,-0.5684146370110099,6.0697524434839885
-0.3712310388357556,-0.6892720659687497,-0.50771711257617,6.176939706603734
-0.3781237594954431,-0.7174071486212388,-0.4459477155101327,6.253105560541566
-0.3852978309816555,-0.7140828871812658,-0.383416659904717,6.292406430444629
-0.39243865985346815,-0.6763257772408533,-0.3204925956002707,6.291300735445268
-0.3992019176258767,-0.6037554663340754,-0.25757958824581806,6.249462697635595
-0.4052394722892175,-0.49874401803088597,-0.19508496126946212,6.169952665363757
-0.4102269124695263,-0.36591103311079165,-0.13338543461582456,6.058520557684226
-0.41388602280063425,-0.21116418647300947,-0.0728002290389823,5.922333023202146
-0.41599766466536436,-0.04066752969768467,-0.013576898806960835,5.768637298738726
-0.4164043399623412,0.1399438801559551,0.044109474180426426,5.603777939956817
-0.41500490116078165,0.3259822581905016,0.1001472535799946,5.432711884213675
-0.41174507857887666,0.5138085596683966,0.15447437242213136,5.258940535307178
-0.4066069929821927,0.7007382391799534,0.20706377777520313,5.084689459836752
-0.3995996105903932,0.8848636233259973,0.2579106723735706,4.9111843766782375
-0.3907509743571332,1.0648657354433664,0.30702251614035303,4.738928620008919
-0.38010231700269953,1.2398510116218575,0.35441180234044223,4.567938402098239
-0.36770380688648097,1.409223963009158,0.4000911863614246,4.397924437536592
-0.35361156725638937,1.572594434437854,0.44407043073679053,4.2284241552656265
-0.33788562291201085,1.72971336694521,0.4863546722894468,4.058894132874714
-0.3205884892425587,1.8804301662184444,0.526943613618194,3.888772731065344
-0.3017841875803743,2.0246656022396494,0.5658313409288475,3.717521303594019
-0.2815375315579778,2.1623954376001095,0.6030065539647876,3.5446503502657407
-0.25991357718197666,2.293641197124737,0.6384530574674451,3.3697351933809583
-0.23697716521072928,2.418465484233119,0.6721504094012547,3.1924243683116877
-0.2127925103683981,2.53697000320483,0.7040746530843716,3.012442915748983
-0.1874228103363498,2.649294997396724,0.7341990822418614,2.829592074753715
-0.16092986036238255,2.755619208120999,0.7624950029893985,2.643746423046817
