th1 (rad),w1 (rad/s),th2 (rad),w2 (rad/s),a1 (rad/s^2),a2 (rad/s^2)
3.9025800915644404,-2.427868904566852,4.364348330109568,-3.0989106356697893,9.928274664475513,-2.302237138318034
3.878301402518772,-2.3285861579220968,4.33335922375287,-3.1219330070529696,9.566742531622552,-1.8719369338170269
3.8550155409395512,-2.2329187326058713,4.30213989368234,-3.14065237639114,9.210229371640647,-1.4737861543294435
3.8326863536134925,-2.140816438889465,4.270733369918428,-3.155390237934434,8.859275737169398,-1.10717464651002
3.811278189224598,-2.052223681517771,4.239179467539084,-3.1664619843995343,8.514465312074352,-0.7713740823942365
3.79075595240942,-1.9670790283970272,4.207514847695089,-3.174175725223477,8.176417891063709,-0.46558568884436063
3.7710851621254498,-1.88531484948639,4.1757730904428545,-3.17883158211192,7.845780315701208,-0.18897749202074318
3.752232013630586,-1.806857046329378,4.143984774621735,-3.1807213570321275,7.523216283851715,0.059287213449051177
3.734163443167292,-1.731624883490861,4.112177561051414,-3.180128484897637,7.2093955992330505,0.280028874952194
3.716847194332383,-1.6595309274985304,4.080376276202438,-3.1773281961481152,6.904983185581514,0.4740371654094301
3.7002518850573978,-1.5904810956427151,4.048602994240957,-3.172587824494021,6.610628030965362,0.6420621290865508
3.6843470741009705,-1.5243748153330614,4.016877115996016,-3.166167203203156,6.326952132360498,0.7848103057661858
3.6691033259476398,-1.4611052940094564,3.985215443963985,-3.1583191001454938,6.05453946308595,0.9029452254963148
3.6544922730075453,-1.4005598993785968,3.95363225296253,-3.1492896478905306,5.793924973356636,0.9970917059230164
3.640486674013759,-1.3426206496450304,3.9221393564836244,-3.1393187308313,5.545583646476333,1.0678433990870924
3.627060467517309,-1.287164813180267,3.8907461691753116,-3.1286402968404294,5.309919661148238,1.115773033915663
3.6141888193855065,-1.2340656165687847,3.8594597662069074,-3.117482566501273,5.08725574649093,1.1414447923094988
3.6018481632198185,-1.1831930591038753,3.8282849405418946,-3.106068118578178,4.877822854376305,1.1454282471800747
3.5900162326287797,-1.1344148305601123,3.797224259356113,-3.0946138361063773,4.681750308742961,1.1283132851042341
3.5786720843231787,-1.0875973274726827,3.7662781209950493,-3.083330703255335,4.49905662009687,1.0907254379920615
3.5677961110484517,-1.042606761271714,3.735444813962496,-3.0724234488754143,4.329641173509497,1.0333410591903387
3.5573700434357347,-0.999310349536619,3.704720579473742,-3.062090038283511,4.173277009589274,0.9569017999291409
3.5473769399403685,-0.9575775794407263,3.6740996790909066,-3.0525210202842197,4.0296049210416,0.8622278705090307
3.5378011641459612,-0.9172815302303103,3.6435744688880645,-3.043898741579129,3.8981290845267074,0.7502296043967929
3.5286283488436583,-0.8783002393850433,3.6131354814722734,-3.036396445535161,3.7782144411533807,0.621916879033658
3.519845346449808,-0.8405180949735095,3.582771517016922,-3.0301772767448245,3.669086031661769,0.4784059813476474
3.511440165500073,-0.8038272346568918,3.5524697442494735,-3.025393216931348,3.5698304859687386,0.32092353639792404
3.5034018931535043,-0.7681289297972044,3.52221581208016,-3.022183981567369,3.4793998616627504,0.15080714388667388
3.495720603855532,-0.7333349311805769,3.4919939722644866,-3.020675910128502,3.396618020635952,-0.030497608249810657
3.4883872545437264,-0.6993687509742174,3.4617872131632015,-3.0209808862110004,3.3201897234130087,-0.2214440559160299
3.4813935670339844,-0.6661668537400873,3.4315774043010916,-3.0231953267701606,3.2487126007131484,-0.4203955593061472
3.4747318984965836,-0.6336797277329559,3.40134545103339,-3.027399282363222,3.180692123470342,-0.6256409916384588
3.468395101219254,-0.6018728064982525,3.3710714582097574,-3.0336556922796065,3.1145596273541183,-0.835414718820155
3.4623763731542714,-0.5707272102247113,3.3407349012869614,-3.042009839467808,3.04869334804061,-1.0479210303508546
3.4566691010520243,-0.5402402767443052,3.3103148028922833,-3.0524890497713164,2.9814422840940824,-1.2613627874623048
3.451266698284581,-0.5104258539033644,3.27978991239457,-3.0651026776459394,2.911152525159671,-1.473973807780831
3.4461624397455477,-0.48131432865176765,3.2491388856181107,-3.0798424157237476,2.8361954707315475,-1.6840542152594413
3.44134929645903,-0.4529523739444522,3.218340461460873,-3.096682957876342,2.754997133408482,-1.890007668957611
3.4368197727195855,-0.4254024026103674,3.1873736318821098,-3.115583034565918,2.666067492574283,-2.0903790743656505
3.4325657486934817,-0.39874172768462457,3.1562178015364504,-3.1364868253095746,2.5680286685921656,-2.2838911150033754
3.4285783314166354,-0.3730614409987029,3.124852933283355,-3.1593257364596083,2.4596405558799166,-2.4694777629521383
3.4248477170066485,-0.34846503543990376,3.0932596759187585,-3.18402051408913,2.339822516140353,-2.6463128756914074
3.4213630666522494,-0.3250668102785002,3.0614194707778672,-3.210483642846044,2.2076698139004303,-2.813832094206694
3.4181123985494644,-0.3029901121394959,3.0293146343494066,-3.238621963788111,2.0624636860097176,-2.97174653764142
3.4150824974280694,-0.2823654752793987,2.9969284147115256,-3.268339429164525,1.9036742687115404,-3.120047233804653
3.4122588426752753,-0.2633287325922833,2.9642450204198805,-3.2995399015025715,1.7309560359150915,-3.2589997989377903
3.4096255553493524,-0.24601917223313238,2.931249621404855,-3.3321298994919495,1.5441358896501545,-3.389129528650424
3.407165363627021,-0.23057781333663083,2.8979283224099355,-3.3660211947784537,1.3431945367481253,-3.5111977146754354
3.4048595854936545,-0.2171458679691496,2.864268110462151,-3.401133171925208,1.1282422299541495,-3.6261705851665353
3.402688126813963,-0.2058634456696081,2.830256778742899,-3.4373948777768732,0.899490298227283,-3.7351827141117964
3.400629492357267,-0.19686854268733528,2.79588282996513,-3.474746704917991,0.6572201050179578,-3.8394970114930556
3.3986608069303936,-0.1902963416371557,2.76113536291595,-3.5131416750329216,0.4017511389038199,-3.9404634693996163
3.396757843514022,-0.1862788302481175,2.726003946165621,-3.552546309726918,0.1334098626508254,-4.0394787074028935
3.394895055211541,-0.18494473162160924,2.6904784830683517,-3.592941096800947,-0.1474992528028099,-4.1379480644235755
3.393045607895325,-0.18641972414963734,2.6545490721003424,-3.6343205774451826,-0.44071936830277453,-4.237251572332332
3.3911814106538287,-0.1908269178326651,2.6182058663258907,-3.676693093168506,-0.7460627789610518,-4.338714674453813
3.389273141475502,-0.1982875456222756,2.5814389353942055,-3.720080239913044,-1.0634278012545593,-4.443584074168296
3.3872902660192796,-0.2089218236348212,2.544238132995075,-3.764516080654727,-1.3928108698590973,-4.553008660111618
3.3852010477829313,-0.2228499323334122,2.506592972188528,-3.810046167255843,-1.7343139173473894,-4.668025086828779
3.3829725484595974,-0.24019307150688607,2.4684925105159694,-3.856726418124131,-2.088147289177459,-4.789547310146126
3.3805706177445285,-0.2610745443986607,2.429925246334728,-3.904621891225592,-2.4546285533761543,-4.918359188484703
3.3779598723005417,-0.2856208299324222,2.3908790274224723,-3.9538054831104392,-2.8341776034266113,-5.055109157783253
3.3751036640012173,-0.31396260596668835,2.351340972591368,-4.004356574688272,-3.2273084339854927,-5.200305954737022
3.3719640379415505,-0.3462356903065433,2.3112974068444854,-4.056359634235642,-3.634617904938461,-5.354314383617182
3.368501681038485,-0.38258186935592786,2.270733810502129,-4.109902778071814,-4.056771713432958,-5.517350178839974
3.3646758623449258,-0.42314958649025747,2.2296347827214107,-4.165076279860214,-4.494487678624134,-5.689473093643448
3.360444366480023,-0.46809446327649884,2.1879840199228084,-4.221971010796649,-4.948516321073728,-5.870577433109055
3.355763421847258,-0.5175796264872361,2.145764309814842,-4.280676785127739,-5.419618597390334,-6.060379339823632
3.350587625582386,-0.5717758124611394,2.1029575419635647,-4.341280578525976,-5.908540538555589,-6.258400229368881
3.3448698674577746,-0.6308612178466952,2.059544736178305,-4.403864580819665,-6.415984444152564,-6.463945861128901
3.338561255279308,-0.6950210622882209,2.015506090370108,-4.468504039430954,-6.942576210734995,-6.676080621728504
3.3316110446564258,-0.7644468243955709,1.9708210499757985,-4.535264845648239,-7.488828327531386,-6.893596700955531
3.32396657641247,-0.8393351076708847,1.9254684015193162,-4.604200812657795,-8.055098064274267,-7.114977963143464
3.3155732253357613,-0.9198860883136274,1.8794263933927382,-4.675350592289229,-8.64154041346413,-7.338358472801151
3.306374364452625,-1.0063014924482687,1.832672887469846,-4.748734177017241,-9.248055444027427,-7.561475835628926
3.296311349528142,-1.098782046888543,1.7851855456996735,-4.82434893537353,-9.87422988829292,-7.781619779899331
3.285323529059257,-1.1975243457714722,1.7369420563459381,-4.902165133172524,-10.519273034290183,-7.995576743555017
3.2733482856015423,-1.302717076114374,1.687920405014213,-4.9821209006080736,-11.181947346052361,-8.199571662957696
3.2603211148403988,-1.4145365495748976,1.6380991960081321,-5.064116617237651,-11.860494700370097,-8.38920869012796
3.24617574934465,-1.5331414965785986,1.5874580298357557,-5.14800870413893,-12.552559720164599,-8.559413200076252
3.230844334378864,-1.6586670937802446,1.5359779427943663,-5.233602836139693,-13.255112405844697,-8.704378181382749
3.2142576634410616,-1.7912182178386915,1.4836419144329693,-5.32064661795352,-13.964373107953044,-8.817518908982743
3.1963454812626746,-1.930861948918222,1.430435448253434,-5.408821807043347,-14.675743820159017,-8.891440634579602
3.1770368617734923,-2.077619387119812,1.3763472301830006,-5.497736213389143,-15.383750749571822,-8.917924827214609
3.156260667902294,-2.23145689461553,1.3213698680491093,-5.58691546166129,-16.082004058936405,-8.887940153680761
3.1339460989561387,-2.3922769352048943,1.2655007134324965,-5.675794863198098,-16.76318145506558,-8.791684773562507
3.11002332960409,-2.55990874975555,1.2087427648005156,-5.763711710933722,-17.419042767554824,-8.618666477734488
3.084424242106534,-2.7340991774310983,1.1511056476911783,-5.849898375711067,-18.04048264160354,-8.357826549364914
3.0570832503322234,-2.9145040038471337,1.0926066639340677,-5.933476641204717,-18.617627768794488,-7.997711810241039
3.027938210293752,-3.1006802815350785,1.0332718975220205,-6.013453759307127,-19.13998353014017,-7.526697016390852
2.9969314074784013,-3.2920801168364804,0.9731373599289492,-6.088720729471035,-19.59663241970725,-6.933256562827181
2.9640106063100364,-3.488046441033553,0.9122501526342389,-6.1580532950993065,-19.976483163315923,-6.206280470763864
2.929130141899701,-3.6878112726667123,0.8506696196832458,-6.220116099806945,-20.26856522327131,-5.335425176596166
2.892252029173034,-3.8904969248994252,0.7884684586851763,-6.2734703515729064,-20.462358775550747,-4.311485250130443
2.8533470599240394,-4.095120512654932,0.7257337551694473,-6.316585204074211,-20.54814586938058,-3.126768565323573
2.81239585479749,-4.300601971348738,0.6625679031287052,-6.347852889727447,-20.517365118425367,-1.7754554700443688
2.7693898350840027,-4.505775622532991,0.5990893742314307,-6.365607444427891,-20.36295078713406,-0.25392295499957673
2.724332078858673,-4.709405130404332,0.5354332997871518,-6.368146673977886,-20.079638282427997,1.4389817417353408
2.6772380275546297,-4.910201513228612,0.47175183304737295,-6.3537568565605325,-19.664222275407568,3.30172718061653
2.6281360124223436,-5.106843735982688,0.4082142644817676,-6.320739584754367,-19.11576085103391,5.329943635336463
2.5770675750625167,-5.298001344493027,0.3450068686342239,-6.267440148401002,-18.435728397447342,7.5163193144759575
2.5240875616175864,-5.482358628467501,0.2823324671502139,-6.192276955256243,-17.62812983184704,9.85052888767197
2.4692639753329115,-5.6586399267859715,0.22040969759765144,-6.093771666379523,-16.699597030100584,12.31917197305272
2.4126775760650516,-5.825635897086977,0.1594719809338562,-5.970579946648996,-15.659492503343271,14.905701781968128
2.354421217094182,-5.98223082212041,0.09976618146736624,-5.8215229288293155,-14.520043170271022,17.59033566922514
2.294598908872978,-6.12743125382312,0.041550952179073085,-5.645619572137064,-13.296517039887286,20.34996062298905
2.2333245963347466,-6.260396424221994,-0.014905243542297553,-5.442119965907174,-12.00743771151319,23.158076316254697
2.1707206320925265,-6.380470801337125,-0.0693264432013693,-5.210539202744627,-10.674807751546025,25.984852090115663
2.1069159240791553,-6.487218878852586,-0.12143183522881557,-4.95069068184347,-9.3242864236515,28.79740514422972
2.0420437352906293,-6.580461743089101,-0.17093874204725026,-4.662716630401174,-7.9852462808640405,31.5604259407129
1.9762391178597383,-6.660314205897741,-0.217565908351262,-4.3471123709940445,-6.69062450397579,34.2372732546608
1.9096359758007608,-6.727220450937499,-0.26103703206120243,-4.004739638447436,-5.476496114947506,36.79162719357383
1.8423637712913858,-6.781985412086974,-0.3010844284456768,-3.6368233665116976,-4.381332263484732,39.189721144148265
1.7745439171705162,-6.825798734721821,-0.3374526621107938,-3.244926155070215,-3.4449673936167584,41.403079424829976
1.706285929823298,-6.860248408657989,-0.36990192366149593,-2.830895360821915,-2.707376726766423,43.4115840075032
1.637683445736718,-6.887322175925653,-0.3982108772697151,-2.396779520746883,-2.2074454122629827,45.206608201137094
1.5688102239774615,-6.909396630048283,-0.42217867247718394,-1.944713438735512,-1.9819739759227262,46.7939182666103
1.4997162576769787,-6.92921636980751,-0.44162580686453906,-1.476774256069409,-2.0651941413349584,48.196079712035534
1.4304240939789037,-6.94986831122086,-0.45639354942523314,-0.9948134589490537,-2.4890561314813526,49.454221048917624
1.360925410866695,-6.9747588725356735,-0.46634168401472365,-0.5002712484598775,-3.2844979396206115,50.62918920991231
1.2911778221413384,-7.007603851931879,-0.4713443964993224,0.006020643639245704,-4.483836206606096,51.80234205507732
1.2211017836220195,-7.05244221399794,-0.47128419006293,0.5240440641900189,-6.124349534058123,53.07641575819113
1.15057736148204,-7.1136857093385215,-0.4660437494210298,1.0548082217719301,-8.25307007687598,54.57702209910822
1.0794405043886548,-7.196216410107281,-0.4554956672033105,1.6005784427630123,-10.932733903499827,56.45529636622119
1.007478340287582,-7.30554374914228,-0.43948988277568035,2.1651314064252243,-14.248655743707468,58.89187455643078
0.9344229027961591,-7.448030306579355,-0.4178385687114281,2.754050151989532,-18.315679270695572,62.101322894026126
0.8599425997303656,-7.6311870992863104,-0.39029806719153276,3.3750633809297934,-23.282496377708178,66.33327482017151
0.7836307287375025,-7.8640120630633925,-0.3565474333822348,4.038396129131509,-29.32541274337532,71.85892035403408
0.7049906081068685,-8.157266190497145,-0.3161634720909197,4.756985332671849,-36.60961254926983,78.91151660851365
0.623417946201897,-8.523362315989843,-0.26859361876420124,5.546100498756986,-45.1597352592317,87.4984591943217
0.5381843230419986,-8.97495966858216,-0.21313261377663137,6.421085090700203,-54.49502708867698,96.88087740990083
0.448434726356177,-9.51990993946893,-0.14892176286962933,7.389893864799211,-62.72102393274899,104.28827271692566
0.3532356269614877,-10.147120178796419,-0.07502282422163721,8.432776591968468,-64.71703627745757,102.36664630183051
0.2517644251735235,-10.794290541570994,0.009304941698047464,9.456443054986773,-50.50890007578237,76.91494919287439
0.14382151975781354,-11.299379542328818,0.10386937224791519,10.225592546915516,-11.048186883684332,15.122852791216307
0.030827724334525353,-11.40986141116566,0.20612529771707036,10.37682107482768,41.251872335561785,-65.32983219609646
-0.08327088977713126,-10.997342687810043,0.30989350846534713,9.723522752866716,72.73611872326725,-116.50934613327954
-0.1932443166552317,-10.269981500577371,0.4071287359940143,8.55842929153392,73.92021762978945,-124.4606971709803
-0.2959441316610054,-9.530779324279477,0.4927130289093535,7.3138223198241175,61.431788046365185,-112.37217613108659
-0.3912519249038002,-8.916461443815825,0.5658512521075947,6.190100558513252,47.505774070634445,-97.60831075541657
-0.48041653934195844,-8.441403703109481,0.6277522576927272,5.214017450959086,35.76959992289187,-85.48674976301729
-0.5648305763730532,-8.083707703880563,0.6798924322023181,4.359149953328913,26.507469091985094,-76.55544253139426
-0.6456676534118588,-7.818633012960712,0.7234839317356072,3.5935955280149705,19.25665302550351,-70.23675666704685
-0.7238539835414659,-7.626066482705677,0.7594198870157569,2.891227961344502,13.532550556125083,-65.86448479557521
-0.8001146483685226,-7.490740977144426,0.7883321666292019,2.23258311338875,8.96767065465625,-62.89413283783477
-0.8750220581399669,-7.401064270597864,0.8106579977630894,1.603641785010402,5.3084082798928796,-60.90862690121216
-0.9490327008459456,-7.347980187798935,0.8266944156131935,0.9945555159982805,2.3872115688259194,-59.587046504672436
-1.022512502723935,-7.324108072110676,0.8366399707731763,0.39868505095155615,0.09670179484737063,-58.67578291110968
-1.0957535834450418,-7.323141054162202,0.8406268212826918,-0.1880727781595406,-1.6303834758946003,-57.96882355950163
-1.168984993986664,-7.3394448889211485,0.8387460935010964,-0.7677610137545569,-2.836363030283651,-57.29630888525791
-1.2423794428758754,-7.367808519223985,0.8310684833635509,-1.340724102607136,-3.550248041833492,-56.51916905666478
-1.3160575280681153,-7.403310999642319,0.8176612423374795,-1.9059157931737838,-3.7966891815621135,-55.52764967636072
-1.3900906380645384,-7.441277891457941,0.7986020844057417,-2.461192289937391,-3.602567075299321,-54.241744081480356
-1.4645034169791178,-7.477303562210934,0.7739901615063678,-3.0036097307521947,-3.0012531217680927,-52.611814723152
-1.539276452601227,-7.5073160934286145,0.7439540641988458,-3.529727877983715,-2.034513846427982,-50.61806984405227
-1.614349613535513,-7.527661231892894,0.7086567854190087,-4.035908576424237,-0.7521902629302737,-48.26810320287373
-1.689626225854442,-7.535183134522197,0.6682976996547663,-4.518589608452975,0.7899429045415955,-45.59234901890812
-1.764978057199664,-7.527283705476781,0.6231118035702365,-4.974513098642056,2.533472144280869,-42.637915648968296
-1.8402508942544318,-7.501948984033972,0.573366672583816,-5.4008922551317395,4.420992085418298,-39.46168583204832
-1.9152703840947716,-7.4577390631797895,0.5193577500324986,-5.795509113452223,6.3993464826394915,-36.12371073013595
-1.9898477747265695,-7.393745598353394,0.4614026588979764,-6.156746220753583,8.421911359425431,-32.68178025890084
-2.0637852307101032,-7.30952648475914,0.39983519669044054,-6.483564023342591,10.449662288215832,-29.187713707580127
-2.1368804955576945,-7.205029861876982,0.3349995564570146,-6.775441160418392,12.451059323595919,-25.68551365288513
-2.208930794176464,-7.080519268641023,0.2672451448528307,-7.032296296947243,14.401003056995647,-22.211179079658983
-2.2797359868628746,-6.936509238071067,0.19692218188335825,-7.254408087743833,16.27923316056163,-18.79374749561579
-2.349101079243585,-6.7737169064654505,0.12437810100591991,-7.442345562699991,18.068561715861698,-15.457044024497678
-2.4168382483082396,-6.5930312893068335,0.04995464537892,-7.596916002944968,19.75328307855707,-12.221634312006897
-2.4827685612013077,-6.395498458521263,-0.026014514650529688,-7.719132346065037,21.318010114281577,-9.106569255240432
-2.5467235457865205,-6.182318357378447,-0.10320583811118006,-7.810198038617441,22.747078299964073,-6.130636799404479
-2.608546729360305,-5.954847574378807,-0.18130781849735447,-7.8715044066114865,24.024551505800066,-3.312972462828256
-2.668095205104093,-5.714602059320806,-0.26002286256346935,-7.904634131239769,25.13476727507398,-0.6730083491037541
-2.725241225697301,-5.463254386570067,-0.33906920387586703,-7.911364214730806,26.06328299974644,1.7701512237576764
-2.7798737695630016,-5.202621556572602,-0.4181828460231751,-7.89366270249323,26.79803407579048,3.998759013120771
-2.8318999851287274,-4.934641215814697,-0.49711947304810744,-7.853675112362022,27.33049584133112,5.997644502509412
