th1 (rad),w1 (rad/s),th2 (rad),w2 (rad/s),a1 (rad/s^2),a2 (rad/s^2)
5.032237351240536,2.116502857992141,1.9679015396987067,-1.4897285709171562,9.711070307096024,0.9904309695290907
5.053402379820457,2.2136135610631014,1.9530042539895351,-1.4798242612218653,9.481568617883616,0.5824589058790886
5.075538515431088,2.3084292472419374,1.9382060113773165,-1.4739996721630744,9.189145368959002,0.06580662856537231
5.098622807903507,2.4003207009315273,1.9234660146556857,-1.4733416058774207,8.834145496861955,-0.561023479550299
5.122626014912822,2.4886621559001467,1.9087325985969115,-1.4789518406729236,8.419986197589187,-1.295132560569116
5.1475126364718236,2.5728620178760386,1.8939430801901822,-1.4919031662786149,7.9534110715976265,-2.1288568081556853
5.173241256650584,2.652396128592015,1.8790240485273961,-1.5131917343601717,7.444502702371766,-3.0497701015302914
5.199765217936505,2.7268411556157326,1.8638921311837944,-1.5436894353754747,6.906417592014069,-4.0411166139072865
5.227033629492662,2.7959053315358733,1.8484552368300395,-1.5841006015145476,6.354841010111839,-5.082680473665316
5.2549926828080205,2.8594537416369916,1.832614230814894,-1.6349274062512007,5.807198284300666,-6.152038838906937
5.2835872202243905,2.917525724479998,1.816264956752382,-1.69644779464027,5.281696380702177,-7.226086206082378
5.312762477469191,2.97034268828702,1.7993004788059794,-1.768708656701094,4.796297786776683,-8.28267352983762
5.342465904352061,3.0183056661547867,1.7816133922389685,-1.8515353919994701,4.367741581943686,-9.302185821544244
5.372648961013608,3.0619830819742235,1.7630980383189738,-1.9445572502149127,4.0107210879406745,-10.26889143054904
5.403268791833351,3.1020902928536302,1.7436524658168246,-2.047246164520403,3.7373045818407706,-11.171933745753904
5.434289694761887,3.139463338672038,1.7231800041716205,-2.158965501977942,3.556650076160809,-12.005893782099802
5.465684328148607,3.175029839433646,1.7015903491518412,-2.27902443979894,3.475024621166437,-12.77091796368211
5.497434626542944,3.2097800856453103,1.6788001047538517,-2.4067336194357614,3.4961011273570626,-13.472466353757982
5.529532427399397,3.244741096918881,1.6547327685594941,-2.541458282973341,3.621478085151341,-14.120782056927746
5.561979838368586,3.280955877770394,1.6293181857297607,-2.6826661035426187,3.8513535992479366,-14.730206861138308
5.59478939714629,3.3194694137628735,1.6024915246943345,-2.8299681721540018,4.185285278364128,-15.318471324760456
5.627984091283919,3.361322266546515,1.5741918429727946,-2.9831528854016063,4.622979292245123,-15.90607399803444
5.661597313949384,3.407552059468966,1.5443603141187785,-3.1422136253819506,5.165071260377883,-16.51584143245026
5.695672834544074,3.4592027720727447,1.512938177864959,-3.307372039706453,5.8138842434261315,-17.172735547582505
5.730264862264802,3.517341614507006,1.4798644574678945,-3.479099395182278,6.574171431877948,-17.903953858150906
5.765438278409872,3.5830833288257855,1.4450734635160718,-3.6581389337637873,7.453870889987145,-18.739354731299432
5.801269111698129,3.6576220377256567,1.408492074178434,-3.8455324810767815,8.464915730675882,-19.712235323665396
5.837845332075386,3.7422711950324157,1.3700367493676662,-4.042654834313436,9.62415447039938,-20.860492435167014
5.8752680440257095,3.8385127397364096,1.3296102010245319,-4.251259758665106,10.954440842121526,-22.228200885988123
5.913653171423073,3.9480571481576248,1.2870976034378807,-4.4735417675249876,12.485943495572053,-23.867638305412026
5.953133742904649,4.072916583113345,1.2423621857626308,-4.712218150579107,14.257686655478404,-25.841743264960858
5.993862908735783,4.21549344966813,1.1952400042568396,-4.970635583228716,16.319221412146156,-28.226856477492614
6.036017843232464,4.378685663789591,1.1455336484245524,-5.252904148003642,18.73204659503523,-31.11522709203858
6.079804699870359,4.566006129739944,1.093004606944516,-5.564056418924028,21.569723105336678,-34.615856256562715
6.125464761167759,4.781703360793311,1.0373640427552757,-5.910214981489655,24.914039441094566,-38.85008070962172
6.173281794775693,5.030843755204256,0.9782618929403791,-6.298715788585872,28.8409196552739,-43.93324071804368
6.2235902323277354,5.3192529517569955,0.9152747350545204,-6.738048195766309,33.38147822198156,-49.922274967702656
6.276782761845306,5.653067733976811,0.8478942530968573,-7.237270945443336,38.425796601285434,-56.684216046647805
6.333313439185074,6.037325699989665,0.7755215436424239,-7.804113105909813,43.5032175704636,-63.593204495288184
6.39368669618497,6.472357875694302,0.6974804125833257,-8.440045150862694,47.331565724771266,-68.90501144607265
6.4584102749419126,6.945673532942014,0.6130799610746988,-9.129095265323421,47.08628288754283,-68.73779192911509
6.527867010271333,7.4165363618174425,0.5217890084214646,-9.816473184614573,37.946593944093244,-56.43156137916424
6.602032373889507,7.796002301258375,0.42362427657531887,-10.380788798406215,15.286937237598012,-25.588026474972256
6.679992396902091,7.948871673634355,0.3198163885912567,-10.636669063155937,-17.944296503568733,19.66991472314263
6.759481113638435,7.769428708598667,0.21344969795969734,-10.439969915924511,-47.256707756826536,59.2420693843375
6.837175400724421,7.296861631030402,0.10904999880045223,-9.847549222081136,-60.554341931183544,76.50848514607635
6.910144017034725,6.691318211718567,0.01057450657964086,-9.082464370620373,-60.12777831237582,74.84226383963207
6.97705719915191,6.090040428594809,-0.08025013712656287,-8.334041732224053,-53.866202681932165,65.23004335695907
7.037957603437858,5.551378401775487,-0.16359055444880338,-7.681741298654462,-46.679970062944165,54.42457148858234
7.0934713874556135,5.084578701146046,-0.240407967435348,-7.137495583768638,-40.33956520597527,44.81524187859634
7.144317174467074,4.681183049086293,-0.31178292327303436,-6.689343164982675,-35.19830119162302,36.84604237835382
7.191129004957936,4.329200037170063,-0.3786763549228611,-6.320882741199137,-31.154604809623887,30.347976920514665
7.234421005329637,4.017653989073824,-0.44188518233485247,-6.01740297199399,-28.009890152128015,25.028871524954422
7.2745975452203755,3.737555087552544,-0.5020592120547924,-5.7671142567444456,-25.57715564061597,20.619426893468546
7.311973096095901,3.4817835311463843,-0.5597303546222369,-5.56091998780976,-23.705116728678284,16.904222857254826
7.346790931407365,3.2447323638596015,-0.6153395545003345,-5.391877759237212,-22.27714029729301,13.719135473360069
7.379238255045961,3.0219609608866715,-0.6692583320927066,-5.2546864045036115,-21.20429054153997,10.941400553745558
7.4094578646548275,2.8099180554712717,-0.7218051961377427,-5.1452723989661555,-20.418234960089574,8.479983470723582
7.43755704520954,2.605735705870376,-0.7732579201274044,-5.0604725642589194,-19.86539295887318,6.268003280565104
7.463614402268244,2.407081776281644,-0.8238626457699936,-4.9977925314532685,-19.502401777641623,4.257216503875271
7.487685220031061,2.2120577585052277,-0.8738405710845263,-4.955220366414516,-19.292655024102643,2.41414806575668
7.509805797616113,2.0191312082642012,-0.9233927747486714,-4.93107888575695,-19.20365288045488,0.7174296032691425
7.529997109698755,1.8270946794596523,-0.9727035636062409,-4.923904589724258,-19.204967922562815,-0.8440313440586695
7.5482680564933515,1.6350450002340242,-1.0219426095034834,-4.932344903164845,-19.26670801820634,-2.2723638965755732
7.564618506495692,1.4423779200519609,-1.071266058535132,-4.955068542130601,-19.35842891685917,-3.5617972797823088
7.579042285696212,1.2487936308833691,-1.1208167439564378,-4.990686514928424,-19.448508644873584,-4.699718847342761
7.591530222005045,1.0543085444346332,-1.170723609105722,-5.037683703401851,-19.50403972297233,-5.6679519246302155
7.602073307449391,0.8592681472049098,-1.2211004461397406,-5.094363222648153,-19.491316678624536,-6.444451573115596
7.61066598892144,0.6643549804186645,-1.2720440783662221,-5.158807738379309,-19.37698516118273,-7.005562478970668
7.617309538725626,0.47058512880683717,-1.3236321557500152,-5.228863363169016,-19.129864250778912,-7.328885853522986
7.622015390013694,0.27928648629904806,-1.3759207893817054,-5.3021522217042465,-18.723349321303964,-7.396653253437729
7.624808254876685,0.09205299308600842,-1.4289423115987478,-5.3761187542386235,-18.138156335874083,-7.1993144759824785
7.625728784807545,-0.08932857027273242,-1.482703499141134,-5.448111898998448,-17.36500806677802,-6.738850843176097
7.624835499104817,-0.26297865094051265,-1.5371846181311186,-5.515500407430209,-16.406739652556062,-6.031188185902207
7.622205712595412,-0.4270460474660733,-1.5923396222054207,-5.575812289289231,-15.279278420129708,-5.107081399235818
7.617935252120751,-0.5798388316673704,-1.648097745098313,-5.626883103281589,-14.011080826186856,-4.0110290514529074
7.612136863804078,-0.7199496399292389,-1.7043665761311289,-5.666993393796118,-12.640891740290877,-2.798146155657384
7.604937367404785,-0.8463585573321477,-1.7610365100690901,-5.694974855352692,-11.214066062608655,-1.529387850834042
7.596473781831464,-0.9584992179582342,-1.817986258622617,-5.7102687338610325,-9.778043160387607,-0.26592615356813754
7.586888789651882,-1.0562796495621103,-1.8750889459612272,-5.712927995396714,-8.37776622177496,0.9363141018466662
7.576325993156261,-1.1400573117798598,-1.9322182259151943,-5.703564854378247,-7.051818742298162,2.03103184724643
7.564925420038462,-1.2105754992028415,-1.9892538744589767,-5.683254535905783,-5.829824827964529,2.9842331776742266
7.552819665046434,-1.2688737474824867,-2.0460864198180344,-5.65341220412904,-4.731322381083938,3.7750542262822004
7.540130927571609,-1.316186971293326,-2.102620541859325,-5.615661661866218,-3.765989988773227,4.394956768223173
7.526969057858676,-1.3538468711810583,-2.158777158477987,-5.571712094183987,-2.9348829698301495,4.845783487966859
7.513430589146866,-1.3831957008793598,-2.2144942794198266,-5.523254259304318,-2.2322466499964966,5.137234948357755
7.499598632138072,-1.405518167379325,-2.2697268220128697,-5.47188190982074,-1.6475061663415833,5.284261801946237
7.485543450464279,-1.4219932290427406,-2.324445641111077,-5.419039291801278,-1.1671336071042462,5.304720013501164
7.471323518173851,-1.4336645651137832,-2.37863603402909,-5.365992091666266,-0.7762150998601348,5.217477041688169
7.456986872522713,-1.4414267161123846,-2.4322959549457526,-5.313817321249385,-0.4596475500653205,5.0410242313782
7.4425726053615895,-1.4460231916130377,-2.4854341281582464,-5.263407078935603,-0.20297093065790847,4.79256157334703
7.428112373445459,-1.4480529009196168,-2.5380681989476024,-5.215481463202132,0.007114201908020637,4.487474113361415
7.413631844436263,-1.4479817589005366,-2.5902230135796236,-5.170606722068518,0.18247651505703388,4.139104427058364
7.399152026847258,-1.4461569937499663,-2.641929080800309,-5.1292156777979345,0.33346300314694927,3.7587306593728687
7.384690456909758,-1.442822363718497,-2.693221237578288,-5.091628371204206,0.4689280825483141,3.355674542838604
7.370262233272573,-1.438133082893014,-2.7441375212903303,-5.0580716257758205,0.5963356907279408,2.937481627568122
7.355880902443643,-1.4321697259857344,-2.7947182375480883,-5.028696809500139,0.721899826565532,2.5101327078423634
7.341559205183786,-1.424950727720079,-2.8450052056430897,-5.003595482421716,0.8507397557667038,2.078259322087022
7.327309697906585,-1.416443330162412,-2.895041160467307,-4.982812889200845,0.9870346416903949,1.645346792639151
7.313145264604961,-1.406572983745508,-2.9448692893593154,-4.966359421274454,1.1341686758413456,1.2139158267955763
7.299079534767506,-1.3952312969870946,-2.99453288357206,-4.954220263006499,1.294862196564258,0.7856787766779553
7.285127221797635,-1.382282675021452,-3.044075086202125,-4.946363475239719,1.47128721054648,0.3616698559710278
7.27130439504742,-1.3675698029159873,-3.093538720954522,-4.942746776680009,1.6651675621094952,-0.05764952698209785
7.25762869701826,-1.3509181272948922,-3.142966188721322,-4.94332327194983,1.8778650584470649,-0.47230820916466393
7.244119515745312,-1.3321394767104215,-3.1923994214408205,-4.948046354041477,2.110453408989678,-0.882763015165463
7.230798120978208,-1.3110349426205248,-3.2418798849812354,-4.956873984193131,2.3637820597632446,-1.2898543359168952
7.2176877715520025,-1.2873971220228924,-3.2914486248231665,-4.9697725275523,2.6385320290082133,-1.6947772959881278
7.204813800331774,-1.2610118017328102,-3.3411463500986893,-4.986720300512181,2.935265765918751,-2.099066594398215
7.192203682314446,-1.2316591440736226,-3.3910135531038113,-5.007710966456163,3.2544729166296618,-2.504593491696093
7.179887090873709,-1.199114414907326,-3.441090662768373,-5.032756901373125,3.596613725077531,-2.9135738242146334
7.167895946724636,-1.1631482776565507,-3.491418231782104,-5.061892639615271,3.9621616402895468,-3.3285863364760098
7.15626446394807,-1.1235266612536552,-3.542037158178257,-5.095178502980032,4.351646554101643,-3.7526010251804625
7.145029197335534,-1.0800101957126387,-3.592988943208057,-5.132704513231836,4.765699953425198,-4.189017576695194
7.134229095378408,-1.0323531961783867,-3.6443159883403755,-5.174594688998788,5.2051031292455265,-4.641714345840081
7.123905563416624,-0.9803021648859315,-3.696061935230363,-5.221011832457188,5.670839419643185,-5.115108649746023
7.114102541767765,-0.9235937706894997,-3.748272053554935,-5.272162918954648,6.164151238679477,-5.614229401660995
7.10486660406087,-0.8619522583027049,-3.8009936827444815,-5.328305212971258,6.686602292347956,-6.144803218854163
7.096247081477843,-0.7950862353792254,-3.854276734874194,-5.3897532451598,7.240144797168231,-6.713354983469465
7.088296219124051,-0.722684787407543,-3.908174267325792,-5.456886794994494,7.827190510330029,-7.327323196077441
7.081069371249976,-0.6444128823042428,-3.962743135275737,-5.530160026955269,8.450682637110615,-7.9951889529925335
7.074625242426934,-0.5599060559331366,-4.018044735545289,-5.610111916485194,9.11416266581687,-8.726614326589848
7.069026181867603,-0.46876442927496786,-4.0741458547101415,-5.697378059751093,9.821820980986402,-9.532580161230646
7.064338537574853,-0.37054621946510385,-4.131119635307653,-5.792703861363399,10.578511167415686,-10.425502781630902
7.060633075380203,-0.26476110779094697,-4.189046673921287,-5.896958889179707,11.389692587253057,-11.41929031826525
7.057985464302293,-0.15086418191841638,-4.248016262813084,-6.01115179236236,12.261239564973659,-12.52926618577313
7.056476822483109,-0.028251786268679788,-4.308127780736708,-6.136444454220091,13.19901067131945,-13.771829217725347
7.056194304620423,0.10373832044451471,-4.369492225278909,-6.274162746397344,14.207995276933845,-15.163619249282252
7.057231687824868,0.2458182732138532,-4.432233852742882,-6.425798938890167,15.290725665858645,-16.71978399395029
7.059689870557007,0.39872552987243964,-4.496491842131784,-6.5929967788296695,16.444428700232475,-18.45065107457177
7.063677125855731,0.5631698168747644,-4.56242180992008,-6.777503289575387,17.656045218347394,-20.355630755271626
7.069308824024479,0.7397302690582384,-4.630196842815834,-6.9810595971281035,18.893719374240245,-22.412434880233928
7.076706126715061,0.9286674628006408,-4.7000074387871145,-7.205183945930443,20.09265625777718,-24.558681853962465
7.0859928013430675,1.1295940253784127,-4.772059278246419,-7.450770764470068,21.13259546024356,-26.661952995647024
7.097288741596851,1.3409199799808482,-4.84656698589112,-7.717390294426538,21.80449413623886,-28.47462115661446
7.11069794139666,1.5589649213432368,-4.923740888835385,-8.002136505992683,21.768068355331494,-29.574964784401057
7.126287590610093,1.7766456048965518,-5.003762253895312,-8.297886153836693,20.515551640146597,-29.31438572166559
7.1440540466590585,1.9818011212980178,-5.086741115433679,-8.591030011053348,17.388406764775393,-26.83318334485166
7.163872057872038,2.1556851889457715,-5.1726514155442125,-8.859361844501866,11.73771015902792,-21.26791028370427
7.185428909761496,2.2730622905360507,-5.261245033989231,-9.072040947338909,3.3133446509419233,-12.267206357968128
7.208159532666857,2.3061957370454698,-5.351965443462619,-9.19471301091859,-7.228281055249013,-0.6680938563254842
7.231221490037312,2.23391292649298,-5.443912573571805,-9.201393949481846,-18.18547721888603,11.326977314198922
7.253560619302242,2.0520581543041194,-5.535926513066624,-9.088124176339857,-27.513777195300094,21.103158344155755
7.274081200845283,1.7769203823511184,-5.626807754830022,-8.877092592898299,-33.93966279531397,27.11451168090858
7.291850404668795,1.4375237543979786,-5.7155786807590045,-8.605947476089213,-37.41561703208031,29.44849357529191
7.306225642212774,1.0633675840771755,-5.801638155519897,-8.311462540336294,-38.67366347401216,29.18493810986932
7.316859318053546,0.6766309493370539,-5.88475278092326,-8.0196131592376,-38.57765456786597,27.52176761427159
7.3236256275469165,0.2908544036583942,-5.964948912515636,-7.744395483094885,-37.7842152803245,25.340991206593866
7.326534171583501,-0.0869877491448508,-6.042392867346585,-7.490985571028946,-36.693852278141584,23.165891243310774
7.325664294092053,-0.45392627192626667,-6.117302723056874,-7.259326658595838,-35.51623990176681,21.262409041732926
7.32112503137279,-0.8090886709439348,-6.1898959896428325,-7.0467025681785085,-34.34462258869288,19.744375483072854
7.313034144663351,-1.1525348968308635,-6.260363015324618,-6.84925881334778,-33.208774145774036,18.645117666341985
7.301508795695042,-1.4846226382886039,-6.328855603458096,-6.66280763668436,-32.106892476191504,17.95864199690623
7.286662569312156,-1.805691563050519,-6.395483679824939,-6.483221216715298,-31.02338391693532,17.66116732059568
7.268605653681651,-2.1159254022198724,-6.460315891992092,-6.3066095435093406,-29.938421083221897,17.721559411402225
7.247446399659452,-2.4153096130520915,-6.523381987427186,-6.129393949395318,-28.832998985413838,18.105944146698903
7.223293303528932,-2.7036396029062297,-6.584675926921139,-5.94833450792833,-27.691593009694692,18.77945000331662
7.196256907499869,-2.9805555330031765,-6.644159272000422,-5.760540007895163,-26.50353716304085,19.706657385964345
7.166451352169838,-3.245590904633585,-6.701764672079374,-5.56347343403552,-25.26369208441311,20.85157989567983
7.133995443123502,-3.498227825477716,-6.757399406419729,-5.354957635078721,-23.972680960237714,22.177601414414703
7.099013164868725,-3.737954635080093,-6.810948982770516,-5.1331816209345735,-22.636823751497147,23.647578009909115
7.0616336185179245,-3.9643228725950648,-6.862280798979862,-4.896705840835482,-21.267830937116333,25.224194498378264
7.0219903897919735,-4.1770011819662285,-6.911247857388217,-4.6444638958516995,-19.88229135603932,26.87059495985444
6.980220377972311,-4.375824095526622,-6.957692496346734,-4.375757946253155,-18.50098468871759,28.551261299559407
6.936462137017045,-4.560833942413797,-7.001450075809266,-4.0902453332575615,-17.148056071001925,30.23308331662572
6.890853797592907,-4.732314503123817,-7.042352529141842,-3.787914500091304,-15.850101125763887,31.886543228232963
6.843530652561669,-4.890815514381456,-7.0802316741427544,-3.4690490678089745,-14.635219597320049,33.48692566690537
6.794622497417855,-5.037167710354656,-7.114922164820844,-3.1341798111399206,-13.532101466241317,35.01546023647361
6.744250820314308,-5.172488725017069,-7.1462639629322435,-2.7840252087751844,-12.569208470891146,36.460306880132464
6.692525933064138,-5.298180809725981,-7.174104215019995,-2.41942213997386,-11.77410440824957,37.817302384979556
6.639544124966878,-5.415921853808476,-7.198298436419734,-2.0412491161240647,-11.172967443725748,39.09039484254118
6.585384906428793,-5.527651528245734,-7.218710927580975,-1.650345167698653,-10.790284034391394,40.291693800658614
6.530108391146335,-5.635554368589648,-7.235214379257962,-1.247428229692067,-10.648671530688405,41.44104373732296
6.473752847460439,-5.742041083896532,-7.247688661554883,-0.8330177923188373,-10.76869413507176,42.564965144968234
6.416332436621474,-5.849728025247249,-7.256018839478071,-0.40736814086915496,-11.168403047108018,43.69466387598319
6.357835156369001,-5.96141205571833,-7.260092520886762,0.029578497890676958,-11.862105392198199,44.86252287377323
