th1 (rad),w1 (rad/s),th2 (rad),w2 (rad/s),a1 (rad/s^2),a2 (rad/s^2)
0.6051333365409183,-2.8450382154129708,6.033802677190166,-0.6721891958105928,-10.891261688748726,15.674829010231136
0.5766829543867885,-2.953950832300458,6.02708078523206,-0.5154409057082814,-10.920159122086117,16.28518785109888
0.547143446063784,-3.0631524235213194,6.021926376174977,-0.35258902719729257,-10.97937824322923,16.899840998341453
0.5165119218285708,-3.1729462059536115,6.018400485903004,-0.18359061721387804,-11.068760786472536,17.51310875129342
0.4847824597690346,-3.2836338138183367,6.016564579730865,-0.008459529700943852,-11.18625963771956,18.1168535376306
0.45194612163085124,-3.3954964101955323,6.016479984433856,0.17270900567536215,-11.327059069524402,18.69925914613015
0.41799115752889593,-3.508767000890776,6.0182070744906095,0.35970159713666366,-11.482372422931567,19.243149273275396
0.38290348751998815,-3.6235907251200916,6.021804090461976,0.5521330898694177,-11.63783620549982,19.723737045434145
0.34666758026878725,-3.7399690871750897,6.02732542136067,0.7493704603237591,-11.77144271178246,20.1057341728154
0.30926788939703637,-3.8576835142929142,6.0348191259639075,0.9504278020519131,-11.851035044481154,20.33986976592397
0.2706910542541072,-3.9761938647377257,6.044323403984427,1.153826499711153,-11.831583090285237,20.359151322539283
0.23092911560672996,-4.094509695640578,6.055861668981538,1.3574180129365458,-11.652843303674942,20.0757517002037
0.18998401865032416,-4.211038128677328,6.069435849110904,1.5581755299385829,-11.238652227654987,19.3803271007107
0.14787363736355089,-4.323424650953878,6.0850176044102895,1.7519788009456898,-10.499990874140591,18.146824930498916
0.10463939085401211,-4.428424559695284,6.102537392419746,1.9334470502506789,-9.344760102865859,16.246959014033642
0.060355145257059276,-4.521872160723942,6.121871862922253,2.095916640391015,-7.697011946288675,13.578207815854253
0.015136423649819854,-4.598842280186829,6.142831029326163,2.231698718549558,-5.525640214177462,10.105229398145397
-0.030851999152048434,-4.654098682328604,6.165148016511659,2.332751012531012,-2.8760591296728517,5.905313508208883
-0.07739298597533448,-4.682859273625332,6.188475526636969,2.3918041476131005,0.10999902718603988,1.1965103226993123
-0.12422157871158779,-4.681759283353472,6.2123935681131,2.4037692508400936,3.204626368735026,-3.6774381062475388
-0.1710391715451225,-4.649713019666121,6.236431260621501,2.3669948697776184,6.1411576195832716,-8.315876414616874
-0.2175363017417837,-4.5883014434702885,6.260101209319277,2.28383610563145,8.683170761685664,-12.361278179115597
-0.2634193161764866,-4.501469735853432,6.282939570375592,2.160223323840294,10.682156312261359,-15.583354978541342
-0.3084340135350209,-4.394648172730818,6.304541803613995,2.0043897740548804,12.097588594383147,-17.909323255405464
-0.3523804952623291,-4.2736722867869865,6.324585701354544,1.8252965415008258,12.978279097077664,-19.39828019992542
-0.39511721813019895,-4.14388949581621,6.342838666769552,1.6313137395015715,13.42421660892625,-20.1868888546629
-0.43655611308836106,-4.009647329726947,6.359151804164568,1.4294448509549424,13.550029062018547,-20.43667391931364
-0.4766525863856305,-3.8741470391067616,6.373446252674117,1.225078111761806,13.460974213486155,-20.29883620600588
-0.5153940567766981,-3.7395372969719,6.385697033791735,1.0220897497017472,13.242101307552687,-19.89783048413289
-0.5527894297464171,-3.607116283896373,6.395917931288753,0.8231114448604182,12.956432823833202,-19.327978604753927
-0.5888605925853808,-3.477551955658041,6.404149045737356,0.629831658812879,12.647678531269012,-18.65677532245699
-0.6236361121419612,-3.351075170345351,6.410447362325486,0.443263905588309,12.34441905124081,-17.930496111440707
-0.6571468638454148,-3.227630979832943,6.414880001381369,0.26395894447390195,12.06417313588196,-17.17979271004913
-0.6894231736437442,-3.106989248474123,6.417519590826108,0.09216101737341062,11.816741517492364,-16.42435728645534
-0.7204930661284854,-2.9888218332991996,6.418441200999841,-0.07208255549114279,11.606727201479039,-15.67647032581542
-0.7503812844614774,-2.872754561284409,6.4177203754449295,-0.22884725874929698,11.435339752088206,-14.94355644047626
-0.7791088300743215,-2.7584011637635273,6.415431902857437,-0.3782828231540596,11.301645581925838,-14.2299607580491
-0.8066928417119568,-2.645384707944269,6.411649074625896,-0.5205824307345506,11.203415952710886,-13.538151656413003
-0.8331466887913994,-2.53335054841716,6.406443250318551,-0.6559639472986806,11.137693828193985,-12.86951724277203
-0.858480194275571,-2.42197361013522,6.399883610845564,-0.7846591197264009,11.101168989579017,-12.224881029506452
-0.8826999303769232,-2.31096192023943,6.3920370196483,-0.9069079300214654,11.090424478325044,-11.60482669140377
-0.9058095495793175,-2.200057675456179,6.3829679403480855,-1.0229561969355032,11.102097596125242,-11.00989465314564
-0.9278101263338793,-2.0890366994949265,6.37273837837873,-1.1330551434669596,11.13298452774987,-10.44069366120372
-0.9487004933288286,-1.9777068542174279,6.361407826944061,-1.2374620800789968,11.180107854726879,-9.897956777328972
-0.9684775618710029,-1.8659057756701591,6.349033206143271,-1.3364416478522865,11.240759589565666,-9.382561795072892
-0.9871366196277045,-1.7534981797745024,6.335668789664748,-1.4302672658030153,11.31252792839642,-8.895529646278609
-1.0046716014254495,-1.6403729004905383,6.3213661170067175,-1.5192225622658013,11.393312995306367,-8.438009985693684
-1.0210753304303548,-1.5264397705374746,6.306173891384059,-1.6036026621227382,11.481334940881112,-8.01126015046936
-1.0363397281357296,-1.4116264211286635,6.290137864762832,-1.6837152636274317,11.575136519406598,-7.6166216266681355
-1.0504559923470163,-1.2958750559345975,6.273300712126558,-1.7598814798941131,11.673581470148005,-7.255496703634683
-1.0634147429063623,-1.1791392412331174,6.255701897327617,-1.83243644693046,11.775849507819276,-6.929326946606882
-1.0752061353186935,-1.0613807461549247,6.2373775328583125,-1.9017297163965288,11.881428374530945,-6.639574322544604
-1.0858199427802426,-0.9425664624096153,6.218360235694347,-1.9681254596219748,11.990103140690309,-6.387705170826071
-1.0952456074043389,-0.8226654310027122,6.198678981098127,-2.0320025113302354,12.10194270563151,-6.175176641610744
-1.103472261714366,-0.7016460039463971,6.178358955984825,-2.093754277746343,12.217283190869287,-6.003424665395656
-1.11048872175383,-0.5794731720377042,6.157421413207361,-2.1537885244002997,12.336707594019781,-5.873851905422308
-1.116283453474207,-0.4561060960975064,6.135883527963358,-2.212527043454523,12.46102063123832,-5.787813412107716
-1.120844514435182,-0.33149588978512323,6.113758257528813,-2.2704051775756,12.591217083626697,-5.746596763545892
-1.1241594733330331,-0.20558371894885627,6.091054205753057,-2.3278711452110588,12.728441107033253,-5.751392233898838
-1.1262153105225217,-0.07829930787852374,6.067775494300946,-2.385385067550047,12.873932772664839,-5.803246846484572
-1.126998303601307,0.050440019848124656,6.0439216436254455,-2.443417536014893,13.02895645869107,-5.902993865272383
-1.1264939034028256,0.18072958443503537,6.019487468265297,-2.502447474667617,13.194703460633725,-6.051146137035947
-1.1246866075584754,0.3126766190413726,5.994462993518621,-2.5629589360379765,13.372158153342127,-6.247737455397226
-1.1215598413680616,0.4463982005747939,5.968833404158241,-2.6254363105919487,13.561913034364785,-6.492090502216157
-1.1170958593623137,0.5820173309184418,5.942579041052322,-2.6903572156141102,13.763912869434854,-6.782482718677835
-1.1112756860531292,0.7196564596127903,5.915675468896181,-2.7581820428008887,13.977101981487413,-7.115672694869296
-1.1040791214570014,0.8594274794276645,5.888093648468172,-2.8293387697495818,14.198941946826272,-7.486239975633423
-1.0954848466627247,1.0014168988959273,5.859800260770676,-2.904201169505916,14.424760994992374,-7.885682506053236
-1.0854706776737655,1.145664508845851,5.8307582490756165,-2.9830579945664484,14.646894494545947,-8.301212798220636
-1.074014032585307,1.2921334537913105,5.800927669129952,-3.0660701225486546,14.853584584853085,-8.714205449820206
-1.0610926980473938,1.4406692996398414,5.770266967904465,-3.1532121770468566,15.02763821987774,-9.098291661572649
-1.0466860050509954,1.5909456818386187,5.738734846133997,-3.244195093662583,15.144916240524646,-9.417198551056169
-1.0307765482326092,1.7423948442438653,5.706292895197371,-3.338367079173145,15.17286945458196,-9.622631811856479
-1.0133525997901707,1.8941235387896849,5.67290922440564,-3.4345933972917098,15.06958099206876,-9.652842343047844
-0.9944113644022738,2.0448193487103725,5.638563290432723,-3.531121820722188,14.78412627749626,-9.433014598482183
-0.9739631709151702,2.1926606114853353,5.603252072225501,-3.62545196670701,14.259456829737713,-8.879175808154475
-0.9520365648003168,2.3352551797827124,5.566997552558431,-3.7142437247885547,13.439223481466323,-7.907632378857752
-0.9286840130024897,2.4696474145973757,5.5298551153105455,-3.793320048577132,12.279516533041633,-6.45134461435678
-0.903987538856516,2.592442579927792,5.491921914824774,-3.8578334947207,10.764826011476664,-4.482322891461728
-0.878063113057238,2.700090840042559,5.453343579877567,-3.902656723635317,8.924429302840377,-2.034796077812067
-0.8510622046568125,2.7893351330709626,5.414317012641214,-3.9230046844134376,6.84204826473991,0.7808345784982006
-0.8231688533261029,2.8577556157183617,5.375086965797079,-3.915196338628456,4.650885292194239,3.7843286619391097
-0.7945912971689193,2.904264468640304,5.335935002410794,-3.877353052009065,2.510929167701418,6.7566849279146775
-0.7655486524825162,2.929373760317318,5.297161471890703,-3.809786202729918,0.5747393825820428,9.487440255702438
-0.736254914879343,2.9351211541431383,5.2590636098634045,-3.7149118001728936,-1.044589965388979,11.81917903138367
-0.7069037033379116,2.9246752544892485,5.221914491861676,-3.596720009859057,-2.290532012633957,13.671493908616657
-0.6776569507930191,2.901769934362909,5.185947291763085,-3.4600050707728904,-3.1614249095813616,15.038954394138777
-0.64863925144939,2.8701556852670955,5.1513472410553565,-3.309615526831503,-3.6955408243466934,15.970755676617857
-0.6199376945967191,2.8332002770236286,5.118251085787041,-3.1499079700653243,-3.9521643308841607,16.54481243402219
-0.5916056918264828,2.793678633714787,5.086752006086388,-2.9844598457251026,-3.9957071505458193,16.846005212437877
-0.5636689054893349,2.753721562209329,5.056907407629137,-2.815999793600724,-3.885619636464036,16.952385489192004
-0.5361316898672416,2.7148653658446884,5.02874740969313,-2.6464759387088037,-3.6716808769357483,16.928757129632565
-0.5089830362087947,2.678148557075331,5.002282650306042,-2.477188367412478,-3.3929648329508875,16.825286165057797
-0.4822015506380414,2.644218908745822,4.977510766631918,-2.3089355057619003,-3.0787851789763288,16.67880513242558
-0.45575936155058316,2.613431056956059,4.954421411574298,-2.1421474544376444,-2.7504208868152062,16.5151704696169
-0.42962505098102255,2.5859268480879067,4.932999937029922,-1.9769957497414754,-2.4229414799514926,16.35174420440346
-0.4037657825001435,2.561697433288392,4.913229979532507,-1.8134783076974408,-2.106818709257462,16.199576363205882
-0.3781488081672596,2.5406292461958175,4.895095196455532,-1.651482544065382,-1.809225040345658,16.065156626074412
-0.3527425157053014,2.522536995792361,4.878580371014879,-1.4908309778046378,-1.535024116063719,15.95174608106647
-0.3275171457473778,2.507186754631724,4.863672061236833,-1.3313135169939732,-1.2874995636519586,15.860355203291999
-0.30244527820106054,2.4943117589952046,4.850358926066893,-1.172709964961053,-1.0688775565094222,15.790445659975514
-0.2775021606111085,2.4836229834301102,4.8386318264172825,-1.014805508361298,-0.8806936874965767,15.740426275071354
-0.2526659307768074,2.4748160465551443,4.828483771333669,-0.8574012456105844,-0.7240453570204144,15.708000279126896
-0.22791777031125593,2.4675755929849403,4.8199097588775635,-0.7003212428193154,-0.5997612941655788,15.690407591916607
-0.20324201438140652,2.4615779800432844,4.81290654644937,-0.5434171669001493,-0.5085116297800059,15.684594484433571
-0.17862623458097368,2.4564928637454844,4.807472374780368,-0.38657122205581357,-0.4508755013887191,15.687334007038652
-0.15406130594351883,2.451984108731597,4.80360666255981,-0.22969788198542704,-0.4273783552306283,15.695313833142356
-0.12954146485620285,2.447710325179291,4.801309683739956,-0.07274474365400349,-0.43850762318547803,15.705203225875957
-0.10506436160440995,2.443325248947436,4.800582236303416,0.08430728860475609,-0.48471298347694125,15.713707256782707
-0.08063110911493558,2.4384781191126668,4.801425309189463,0.24144436117258317,-0.5663956991248033,15.71761382588897
-0.05624632792380892,2.4328141621214185,4.803839752801189,0.3986204994314729,-0.6838903582607011,15.713837168838245
-0.03191818630259473,2.4259752585388115,4.8078259577955045,0.5557588711198553,-0.8374415577127066,15.69946018051063
-0.007658433717206613,2.417600842961684,4.813383546506703,0.7127534729249616,-1.027177559048381,15.671776886943865
0.016517574712410228,2.4073290673712004,4.820511081235953,0.8694712417944003,-1.2530826192763007,15.628335655088957
0.040590865386122235,2.3947982411784374,4.829205793653897,1.0257545983452898,-1.5149694945043857,15.566983172904061
0.06453884779790661,2.3796485462333936,4.8394633396373505,1.1814244300743304,-1.812453488678756,15.485908814165303
0.08833533326024055,2.361524011346606,4.851277583938094,1.3362835182159833,-2.144929337841471,15.383688693333168
0.11195057337370662,2.3400747179681916,4.864640419120254,1.490120405149315,-2.511552158717601,15.259328497294142
0.13535132055338853,2.3149591963810154,4.879541623171747,1.6427136901222565,-2.9112236309061137,15.112304041690674
0.15850091251719867,2.285846960071954,4.89596876007297,1.7938367305391634,-3.3425845113787607,14.942598433532078
0.18135938211791822,2.2524211149581665,4.913907127378361,1.943262714874484,-3.8040144889648513,14.750734725447133
0.20388359326749989,2.214380970068518,4.933339754527106,2.0907700621289553,-4.293640268549845,14.537803018563828
0.22602740296818508,2.17144456738302,4.954247455148395,2.2361480923145938,-4.809352625872861,14.305481109619082
0.24774184864201526,2.123351041124291,4.976608936071541,2.3792029034107847,-5.348832992405187,14.05604798260971
0.2689753590532582,2.0698627112002392,5.000400965105649,2.5197633832368815,-5.909589916486274,13.792389714581333
0.2896739861652606,2.0107668120353765,5.025598598938018,2.657687280382695,-6.489005504843012,13.517997696132493
0.3097816542856143,1.9458767569869464,5.052175471741845,2.79286725734402,-7.08439168370508,13.236959454739914
0.3292404218554838,1.8750328401498957,5.080104144315285,2.925236851891419,-7.693055839667188,12.953942804628236
0.3479907502569828,1.7981022817532237,5.109356512834199,3.0547762799377014,-8.312375118537737,12.674174517672464
0.365971773074515,1.7149785305678464,5.139904275633576,3.181518025114426,-8.93987838866793,12.40341519705166
0.38312155838019346,1.6255797466811672,5.171719455884721,3.3055521770849428,-9.573334626557628,12.147932513230893
0.3993773558470051,1.529846400415591,5.20477497765557,3.4270315022172517,-10.210846266438926,11.914475395537387
0.41467581985116103,1.4277379377512016,5.239045292677742,3.5461762561726258,-10.850945873226602,11.710252115534635
0.42895319922867303,1.3192284790189357,5.274507055239469,3.6632787773279722,-11.492694334930198,11.542915387210215
0.4421454840188624,1.2043015356696336,5.311139843012748,3.778707931200074,-12.13577858438954,11.420557554172193
0.4541884993755587,1.0829437498257382,5.348926922324749,3.892913506741796,-12.780606564995184,11.35171850277918
0.4650179368738161,0.9551376841757864,5.387856057392167,4.006430691769588,-13.428396594721017,11.345407925395417
0.474569313715574,0.8208537182285762,5.427920364309863,4.119884771023543,-14.081257189536972,11.411141624384653
0.48277785089785974,0.6800411463332066,5.469119212020098,4.2339961872673895,-14.742251333934682,11.558988138034488
0.4895782623611918,0.5326186329938597,5.5114591738927725,4.349586068647734,-15.415435394035194,11.799616147231903
0.49490444869113037,0.37846427905350777,5.55495503457925,4.467582230120053,-16.105856139642647,12.144323302539872
0.49868909148166546,0.2174057176570813,5.5996308568804505,4.589025463145452,-16.81947766748327,12.60501062068658
0.5008631486582362,0.0492109409822486,5.645521111511905,4.715075569352318,-17.56299009092861,13.194038943731389
0.5013552580680587,-0.12641895992703753,5.692671867205428,4.8470159587896315,-18.34341826511597,13.923857659097346
0.5000910684687884,-0.30985314257819724,5.741142026793325,4.986254535380605,-19.167392811577635,14.806218732144476
0.4969925370430064,-0.5015270706939736,5.791004572147131,5.13431672270205,-20.039853622793004,15.850661779423122
0.49197726633606664,-0.7019256069219036,5.842347739374151,5.292823340496281,-20.96180776767378,17.061749621509847
0.4849580102668476,-0.9115436845986414,5.895275972779114,5.46344083671138,-21.92653352359464,18.4342107913898
0.47584257342086117,-1.130809019834588,5.9499103811462275,5.647782944625278,-22.91328849993647,19.94467189929464
0.4645344832225153,-1.3599419048339527,6.006388210592481,5.847229663618224,-23.87716236879059,21.53805886194902
0.4509350641741757,-1.5987135285218586,6.064860507228663,6.0626102522377145,-24.73338455741228,23.106236773001065
0.43494792888895717,-1.8460473740959813,6.12548660975104,6.293672619967725,-25.334746983015727,24.45684850042525
0.41648745514799734,-2.0993948439261385,6.188423335950717,6.538241104971978,-25.443385107212734,25.27374176925706
0.39549350670873595,-2.353828694998266,6.253805747000437,6.790978522664549,-24.706151342967758,25.08125844602638
0.3719552197587533,-2.6008902084279435,6.321715532227083,7.041791107124813,-22.66030008137791,23.248762423506864
0.34594631767447387,-2.8274932092417226,6.392133443298331,7.274278731359882,-18.821108023386188,19.106469452056192
0.31767138558205665,-3.0157042894755843,6.46487623061193,7.465343425880444,-12.90705088121253,12.249976832130535
0.2875143426873008,-3.1447747982877097,6.539529664870734,7.587843194201749,-5.171786151004061,2.9927315739928555
0.2560665947044237,-3.1964926597977503,6.615408096812752,7.6177705099416775,3.393310387308953,-7.357075667672077
0.22410166810644622,-3.162559555924661,6.691585801912169,7.544199753264957,11.322066742602669,-16.855217349065047
0.19247607254719962,-3.0493388884986343,6.7670277994448185,7.375647579774307,17.3696303236973,-23.867433082377065
0.16198268366221327,-2.8756425852616614,6.840784275242561,7.136973248950536,21.065888171253757,-27.81122203641136
0.13322625780959665,-2.6649837035491237,6.912154007732067,6.858861028586422,22.68465104735206,-29.097605636906874
0.10657642077410542,-2.4381371930756033,6.980742618017931,6.567884972217353,22.837840072599576,-28.571562265065438
0.08219504884334938,-2.2097587923496076,7.046421467740105,6.282169349566699,22.121272162497263,-27.035158365782966
0.06009746091985331,-1.988546070724635,7.109243161235772,6.011817765908869,20.969212759647455,-25.0597132893107
0.04021200021260696,-1.7788539431281605,7.16936133889486,5.761220633015762,19.650891580868567,-22.989240723968884
0.02242346078132535,-1.5823450273194748,7.226973545225018,5.531328225776074,18.315354403765323,-21.005929872927766
0.0066000105081306035,-1.3991914832818215,7.282286827482779,5.321268927046796,17.036604788511138,-19.19320969219022
-0.007391904324687611,-1.22882543539671,7.335499516753247,5.129336830124894,15.84579001563076,-17.579686031087277
-0.019680158678654712,-1.0703675352404025,7.386792885054496,4.953539969814021,14.751141099405945,-16.165806035530615
-0.030383834031058737,-0.9228561242463431,7.436328284752636,4.7918819094587155,13.749452521823768,-14.938856262868066
-0.03961239527352217,-0.7853615990281054,7.484247103847223,4.642493346830035,12.832395045743512,-13.880967012211556
-0.047466011263803225,-0.6570376485706704,7.530672037315523,4.50368367670792,11.989859667471366,-12.97317487947046
