th1 (rad),w1 (rad/s),th2 (rad),w2 (rad/s),a1 (rad/s^2),a2 (rad/s^2)
0.2310172979284742,-1.3063788427063057,1.8219369967102987,0.1814288992847196,-2.340576221255499,-11.245947185117922
0.21795350950141115,-1.3297846049188606,1.823751285703146,0.0689694274335404,-2.3150512857166943,-11.336393438411024
0.20465566345222255,-1.3529351177760276,1.8244409799774812,-0.044394506950569845,-2.270428716950825,-11.425860960501923
0.19112631227446228,-1.3756394049455358,1.8239970349079755,-0.15865311655558909,-2.206199985958893,-11.513132449936327
0.17736991822500692,-1.3977014048051248,1.8224105037424196,-0.27378444105495237,-2.121859420434315,-11.596994336314527
0.16339290417695568,-1.418919999009468,1.8196726593318702,-0.3897543844180976,-2.016913390436013,-11.676245208733102
0.149203704186861,-1.4390891329138282,1.815775115487689,-0.5065168365054287,-1.890890136436471,-11.74970601493539
0.1348128128577227,-1.4579980342781929,1.8107099471226349,-0.6240138966547826,-1.743350159090131,-11.816232024175164
0.12023283251494077,-1.4754315358690941,1.804469808156087,-0.7421762168965342,-1.5738970614508774,-11.87472651884929
0.10547851715624983,-1.491170506483603,1.7970480459871216,-0.8609234820850271,-1.382188702706207,-11.924156149482181
0.09056681209141379,-1.504992393510665,1.7884388111662715,-0.9801650435798489,-1.1679484882164337,-11.963567854868405
0.07551688815630714,-1.5166718783928295,1.778637160730473,-1.0998007221285329,-0.9309765842391842,-11.992107214503271
0.060350169372378845,-1.5259816442352212,1.7676391535091875,-1.2197217942735656,-0.671160807772498,-12.009038064453478
0.04509035293002663,-1.5326932523129462,1.755441935566452,-1.3398121749181005,-0.38848690319697804,-12.013763171365222
0.02976342040689717,-1.536578121344916,1.742043813817271,-1.4599498066317527,-0.08304787875902465,-12.005845723469212
0.014397639193448011,-1.5374086001325062,1.7274443157509534,-1.5800082638664448,0.24494796143622233,-11.98503136364234
-0.0009764468078770506,-1.534959120518144,1.711644233112289,-1.699858577502868,0.595170688947167,-11.951270459634024
-0.016326038013058493,-1.5290074136286724,1.6946456473372602,-1.8193712820992083,0.9671645553750395,-11.904740282721372
-0.03161611214934522,-1.519335768074922,1.676451934516268,-1.938418684926422,1.3603463829176614,-11.845866751069147
-0.04680946983009444,-1.5057323042457453,1.657067747667004,-2.0568773524371133,1.7740070098712215,-11.775345391180736
-0.06186679287255189,-1.487992234147033,1.6364989741426328,-2.1746308063489206,2.20731626450682,-11.694161183721986
-0.07674671521402222,-1.4659190715019648,1.6147526660791436,-2.2915724181861403,2.6593319323776354,-11.603606992689867
-0.09140590592904187,-1.4393257521781884,1.5918369418972822,-2.407608488113039,3.129013158784123,-11.505300333501612
-0.10579916345082375,-1.408035620590347,1.5677608570161519,-2.5226614914480554,3.6152386884615253,-11.40119832001798
-0.11987951965672722,-1.3718832337057318,1.5425342421016712,-2.6366734746482354,4.116830288018625,-11.29361074610098
-0.13359835199378453,-1.3307149308255455,1.5161675073551888,-2.749609582109245,4.632581623797824,-11.185211406247591
-0.14690550130204,-1.2843891145875672,1.4886714115340964,-2.861461696171721,5.161292780419249,-11.079047942648451
-0.15974939244791567,-1.2327761867833746,1.4600567945723792,-2.9722521755982054,5.701810506252581,-10.978550720835127
-0.1720771543157494,-1.1757580817208488,1.4303342728163972,-3.0820376828065568,6.253074165133592,-10.8875414778788
-0.1838347351329579,-1.113227340069513,1.3995138959883318,-3.190913097585345,6.8141672623885325,-10.810242746694259
-0.19496700853365304,-1.0450856674456277,1.3676047650124783,-3.2990155250522872,7.384374299496372,-10.751289322590706
-0.2054178652081093,-0.9712419244506639,1.3346146097619553,-3.406528418278194,7.963242592964916,-10.71574328114282
-0.21513028445261595,-0.8916094985210148,1.3005493255791734,-3.5136858510896225,8.550648558090442,-10.709114245413
-0.2240463794378261,-0.8061030129401103,1.2654124670682771,-3.6207769935437524,9.146867780913372,-10.737386682946337
-0.2321074095672272,-0.7146343351309766,1.2292046971328396,-3.7281508603732156,9.752647930079997,-10.807055906409131
-0.23925375291853695,-0.6171078558301767,1.1919231885291075,-3.8362214194373068,10.369283100722132,-10.925174024161828
-0.24542483147683872,-0.5134150248229554,1.1535609743347344,-3.945473159678925,10.998687372531561,-11.099406122401696
-0.2505589817250683,-0.4034281510976398,1.1141062427379451,-4.056467220902942,11.643463929276601,-11.338095100341384
-0.2545932632360447,-0.28699351180487376,1.0735415705289157,-4.169848171906356,12.306963567593025,-11.650330224175711
-0.2574631983540934,-0.1639238761289435,1.0318430888098522,-4.286351474148113,12.993322053726946,-12.04600860500627
-0.25910243711538283,-0.033990655591674024,0.9889795740683711,-4.406811560198175,13.707458295293792,-12.535868739730187
-0.2594423436712996,0.1030839273612639,0.9449114584663894,-4.532170247595477,14.455002566480134,-13.131458119410135
-0.25841150439768695,0.24763395302606525,0.8995897559904346,-4.663484828789579,15.242102557001612,-13.844967908602055
-0.2559351648674263,0.4000549785960814,0.8529549077025388,-4.8019345078755995,16.07501905181793,-14.688818862344394
-0.2519346150814655,0.5608051691142607,0.8049355626237829,-4.948822696499043,16.959363287991216,-15.674800967021383
-0.24632656339032286,0.7303988019941728,0.7554473356587924,-5.105570706169257,17.898729928329047,-16.812434209576317
-0.23902257537038113,0.9093861012774633,0.7043916285970998,-5.27369504826502,18.89232181769084,-18.10599887175139
-0.2299287143576065,1.0983093194543718,0.6516546781144497,-5.454755036982533,19.930918208957493,-19.549341210225283
-0.2189456211630628,1.2976185015439468,0.5971071277446244,-5.650248449084786,20.990185407412355,-21.117060161620202
-0.20596943614762334,1.5075203556180703,0.5406046432537766,-5.861419050700988,22.019893726142502,-22.75005076707343
-0.19089423259144264,1.7277192928794953,0.48199045274676666,-6.088919558371722,22.92728305933299,-24.33287823956238
-0.1736170396626477,1.9569921234728251,0.42110125716304947,-6.332248340767346,23.5532768704342,-25.660986527906132
-0.15404711842791943,2.192524892177167,0.35777877375537603,-6.588858206046407,23.643205874599918,-26.399680722073263
-0.13212186950614777,2.4289569509231663,0.291890191694912,-6.852855013267139,22.822631445768256,-26.04897697116699
-0.1078322999969161,2.6571832653808487,0.2233616415622406,-7.1133447829788095,20.607970202838118,-23.954732864933
-0.08126046734310761,2.86326296740923,0.1522281937324525,-7.352892111628139,16.50757244404798,-19.44258163812631
-0.05262783766901531,3.0283386918497097,0.0786992726161711,-7.547317928009402,10.268519380004062,-12.15147427924636
-0.022344450750518215,3.1310238856497503,0.003226093336077082,-7.668832670801866,2.2222993599709935,-2.503837199716216
0.008965788105979287,3.15324687924946,-0.07346223337194158,-7.693871042799028,-6.537975113239536,8.053710699526897
0.04049825689847389,3.0878671281170647,-0.15040094379993185,-7.613333935803759,-14.487945349277593,17.502310161072813
0.07137692817964453,2.942987674624289,-0.22653428315796945,-7.438310834193031,-20.41369095920207,24.25786273645824
0.10080680492588742,2.738850765032268,-0.30091739149989977,-7.195732206828448,-23.93227596572164,27.86472346987594
0.1281953125762101,2.4995280053750517,-0.37287471356818425,-6.917084972129689,-25.393227847272517,28.842840118973974
0.15319059262996063,2.2455957269023266,-0.44204556328948114,-6.628656570939949,-25.44158548008983,28.08584145614391
0.1756465498989839,1.9911798721014282,-0.5083321289988806,-6.34779815637851,-24.673567080390008,26.398761761768572
0.19555834861999818,1.744444201297528,-0.5718101105626657,-6.083810538760824,-23.510524876371775,24.337429989160302
0.21300279063297348,1.5093389525338103,-0.632648215950274,-5.840436238869221,-22.20739263942823,22.22843327281873
0.22809618015831157,1.287265026139528,-0.6910525783389662,-5.618151906141033,-20.901770843160055,20.24037937987649
0.24096883041970685,1.0782473177079275,-0.7472340974003765,-5.415748112342269,-19.65952083376339,18.447530329701937
0.2517513035967861,0.8816521093702936,-0.8013915785237992,-5.231272809045249,-18.50623839947939,16.87272472540621
0.26056782469048906,0.6965897253754997,-0.8537043066142517,-5.062545561791187,-17.44638521294711,15.51290660841992
0.2675337219442441,0.5221258732460285,-0.9043297622321635,-4.907416495706988,-16.474153936300976,14.353257549913552
0.27275498067670434,0.3573843338830188,-0.9534039271892334,-4.763883920207852,-15.579374254724298,13.374619284707746
0.27632882401553455,0.20159059133577584,-1.001042766391312,-4.630137727360775,-14.750605031297185,12.557185440841405
0.2783447299288923,0.05408454102280397,-1.0473441436649198,-4.5045658729523606,-13.976680638275372,11.882194136810481
0.27888557533912034,-0.08568226535994974,-1.0923898023944434,-4.385743931584256,-13.247427547162964,11.332583756771362
0.27802875268552085,-0.2181565408315794,-1.136247241710286,-4.272418094016542,-12.553945545967856,10.893132671319467
0.2758471872772051,-0.34369599629125797,-1.1789714226504515,-4.163486767303348,-11.888667241107125,10.55035927454449
0.2724102273142925,-0.4625826687023292,-1.2206062903234849,-4.0579831745579025,-11.245309903855711,10.292326029528748
0.2677844006272692,-0.5750357677408864,-1.2611861220690639,-3.955059914262615,-10.618779433873566,10.10842004464738
0.2620340429498603,-0.6812235620796221,-1.30073672121169,-3.853975713816141,-10.005056890106898,9.989144905726942
0.2552218073290641,-0.7812741309806911,-1.3392764783498514,-3.7540842647588715,-9.401082387438121,9.925938654110748
0.24740906601925716,-0.8752849548550723,-1.3768173209974401,-3.654824878217764,-8.80464296607876,9.911022580330638
0.23865621647070645,-0.9633313845158599,-1.4133655697796177,-3.5557146524144576,-8.214266904340192,9.937280400566182
0.22902290262554786,-1.0454740535592617,-1.4489227163037623,-3.4563418484087958,-7.629124993977566,9.998164985136912
0.21856816208995525,-1.1217653034990374,-1.4834861347878503,-3.3563601985574265,-7.048938500761471,10.087628825608835
0.20735050905496488,-1.192254688506652,-1.5170497367734246,-3.255483910301338,-6.4738933224612305,10.200074175477022
0.19542796216989836,-1.2569936217312643,-1.549604575876438,-3.153483168546568,-5.90455991808638,10.330318919132793
0.1828580259525857,-1.316039220912128,-1.5811394075619039,-3.05017997935524,-5.341818744388897,10.473574527899794
0.16969763374346444,-1.3694574083560171,-1.6116412073554562,-2.945444234076242,-4.786791107158885,10.625432853688642
0.15600305965990427,-1.417325319427606,-1.6410956496962186,-2.8391899055393557,-4.240775470922607,10.781858939752153
0.1418298064656282,-1.4597330741368322,-1.669487548751612,-2.7313713161418343,-3.7051893534217637,10.939187466257145
0.12723247572425989,-1.4967849676710498,-1.6968012619130304,-2.621979441479263,-3.18151695860797,11.09412087873577
0.11226462604754939,-1.5286001372571296,-1.723021056327823,-2.5110382326919054,-2.6712626806260817,11.243727657729812
0.09697862467497809,-1.5553127640633904,-1.748131438654742,-2.398600956114607,-2.1759105527202136,11.385439568535393
0.08142549703434418,-1.5770718695905925,-1.7721174482158881,-2.2847465604292534,-1.6968896321245326,11.517047073329541
0.06565477833843825,-1.5940407659118379,-1.7949649138201806,-2.169576089695958,-1.2355452173839598,11.636692388608049
0.04971437067931987,-1.6063962180856775,-1.8166606747171403,-2.0532091658098777,-0.7931156991314388,11.742859925562817
0.0336504084984631,-1.6143273750769918,-1.8371927663752392,-1.9357805665542496,-0.3707147577000725,11.834364058946749
0.01750713474769318,-1.6180345226539925,-1.8565505720407818,-1.817436925964782,0.030681453011018472,11.910334332567025
0.0013267895211532543,-1.6177277081238823,-1.8747249413004297,-1.6983335826391117,0.4102425529293929,11.970198330207008
-0.01485048756008557,-1.6136252825945885,-1.8917082771268208,-1.5786315993370417,0.7672880707880734,12.013662524333858
-0.030986740386031456,-1.6059524018867077,-1.9074945931201912,-1.458494974093703,1.1012879443981685,12.04069146708448
-0.047046264404898536,-1.594939522442726,-1.9220795428611281,-1.3380880594228581,1.411859869773227,12.05148571469084
-0.0629956596293258,-1.5808209237449937,-1.9354604234553567,-1.2175732022759498,1.6987639755824844,12.046458883432758
-0.07880386886677573,-1.5638332839891689,-1.9476361554781163,-1.0971086134416221,1.9618952822354174,12.026214227517505
-0.09444220170666742,-1.5442143311668146,-1.9586072416125326,-0.9768464711664471,2.2012743803559967,11.991521111276445
-0.10988434501833556,-1.5222015873632546,-1.9683757063241971,-0.8569312600536826,2.4170367338727026,11.9432917231221
-0.1251063608919681,-1.4980312200245276,-1.976945018924734,-0.7374983428224616,2.6094209803488733,11.882558349324158
-0.1400866730922134,-1.471937010221039,-1.9843200023529586,-0.6186727593292201,2.7787565669407717,11.810451493580493
-0.1548060431944238,-1.4441494445516312,-1.9905067299462509,-0.5005682443934152,2.9254510254910056,11.728179094725688
-0.1692475376399401,-1.4148949342967212,-1.995512412390185,-0.3832864534461583,3.049977155382356,11.637007060473325
-0.1833964869829073,-1.3843951627428976,-1.9993452769246467,-0.26691638284142505,3.1528603482826525,11.53824130032824
-0.1972404386103363,-1.352866559260071,-2.002014440753061,-0.15153396983814266,3.2346662550479057,11.433211406128919
-0.210769104202937,-1.320519896709592,-2.0035297804514425,-0.03720185577685346,3.295988961998969,11.323256094479632
-0.22397430317003292,-1.2875600070896023,-2.003901799009211,0.07603070516794286,3.3374398117249315,11.209710492043428
-0.23684990324092894,-1.2541856089723529,-2.003141491957532,0.18812781008837715,3.3596369727073374,11.09389531278445
-0.24939175933065247,-1.2205892392452795,-2.001260213856648,0.29906676321622166,3.3631958326631386,10.97710794630242
-0.2615976517231053,-1.1869572809186482,-1.998269546224486,0.40883784267924583,3.3487202628746027,10.860615448924584
-0.2734672245322918,-1.1534700782899021,-1.9941811677976935,0.5174439971684917,3.3167947752424896,10.7456494046911
-0.2850019253151908,-1.1203021305374772,-1.9890067278260086,0.6249004912154027,3.2679775707056855,10.633402602169216
-0.29620494662056557,-1.0876223548304202,-1.9827577229138547,0.7312345172370949,3.202794457349749,10.525027455393305
-0.30708117016886977,-1.0555944102569228,-1.9754453777414838,0.836484791791028,3.1217335992958586,10.421636083202142
-0.317637114271439,-1.0243770742639642,-1.9670805298235734,0.9407011526230494,3.025241043623455,10.324301950666424
-0.32788088501407864,-0.9941246638277297,-1.9576735182973428,1.0439441721297136,2.9137169624394095,10.234062968763986
-0.3378221316523559,-0.9649874942033356,-1.9472340765760456,1.1462848018173535,2.7875125411030117,10.151925943295437
-0.34747200659438926,-0.9371123687923055,-1.935771228557872,1.2478040612503078,2.6469274419751447,10.07887226026699
-0.3568431302823123,-0.9106430943725541,-1.923293187945369,1.3485927838529777,2.492207776468096,10.015864691272615
-0.36594956122603783,-0.8857210166078732,-1.9098072601068392,1.448751430765704,2.32354452747916,9.96385519701827
-0.37480677139211654,-0.8624855713330816,-1.8953197457991822,1.5483899827358867,2.1410723807491414,9.923793597707917
-0.38343162710544737,-0.8410748475255901,-1.8798358459718234,1.6476279187129659,1.9448689491408861,9.896636962438194
-0.3918423755807033,-0.8216261580341813,-1.8633595667846938,1.7465942883373478,1.7349544109789272,9.883359541828243
-0.4000586371610451,-0.804276613924392,-1.8458936239013204,1.8454278837556302,1.5112916363335862,9.884963023115525
-0.40810140330028905,-0.7891636975610561,-1.827439345063764,1.9442775139867854,1.2737869490808225,9.902486816970272
-0.4159930402758996,-0.7764258280702478,-1.8079965699238962,2.043302382156488,1.0222917757311758,9.937017979303123
-0.4237572985566021,-0.7662029103129361,-1.7875635461023314,2.142672561949519,0.7566055757782106,9.989700213901761
-0.43141932765973146,-0.758636854555154,-1.7661368204828363,2.242569564088537,0.47648064878539736,10.061741171045067
-0.439005696205283,-0.7538720480673,-1.7437111248419508,2.3431869757989876,0.1816296933663854,10.15441692252803
-0.446544416685956,-0.7520557511336362,-1.720279255083961,2.444731145024268,-0.12826261535004746,10.26907201130244
-0.45406497419729236,-0.7533383772871367,-1.6958319436337184,2.5474218651372924,-0.4535222153258982,10.407112782875046
-0.46159835797016374,-0.7578735994403957,-1.6703577249823454,2.651492992966043,-0.7944598329452435,10.569990719607688
-0.4691770939645677,-0.7658181977698482,-1.6438427950526848,2.75719290016212,-1.1513330901815537,10.759171098152388
-0.47683527594226616,-0.7773315286716637,-1.6162708660510636,2.864784611143644,-1.5242913933384439,10.976080309226674
-0.4846085912289828,-0.7925744426050481,-1.5876230199396273,2.9745454142359105,-1.913296374828062,11.222022394561435
-0.4925343356550333,-0.8117074063533287,-1.557877565797268,3.0867656381815247,-2.318007794603363,11.498051475381473
-0.5006514097185666,-0.8348874842993623,-1.5270099094154528,3.2017461529353395,-2.7376209055861938,11.804781404944384
-0.5090002845615602,-0.8622636933552242,-1.4949924478860994,3.319793966984783,-3.1706360706166756,12.142106758570256
-0.5176229214951125,-0.893970054061391,-1.4617945082162516,3.4412150345704857,-3.614534648699251,12.50879979286478
-0.5265626220357263,-0.9301154005483835,-1.4273823578705467,3.5663030324991336,-4.065326806306868,12.901936115415438
-0.5358637760412102,-0.9707686686114522,-1.3917193275455553,3.695322393653288,-4.516927464387959,13.316088065527719
-0.5455714627273247,-1.0159379432553317,-1.3547661036090224,3.8284832743085655,-4.960307823581831,13.742211426849574
-0.555730842159878,-1.06554102149115,-1.3164812708659368,3.9659053885770614,-5.3823661457135685,14.16614373379836
-0.5663862523747895,-1.1193646829482857,-1.2768222169801662,4.107566825915045,-5.764471876270249,14.566643336349491
-0.5775798992042723,-1.1770094017109882,-1.2357465487210157,4.25323325927854,-6.080679275967855,14.91295124028064
-0.5893499932213823,-1.2378161944706667,-1.1932142161282304,4.4023627716813465,-6.2957106422015015,15.16199376735491
-0.6017281551660889,-1.3007733008926818,-1.1491905884114169,4.553982709354895,-6.363020179504337,15.255625745390812
-0.6147358881750157,-1.3644035026877253,-1.1036507613178679,4.706538966808804,-6.223620266314863,15.118814982037879
-0.628379923201893,-1.426639705350874,-1.05658537164978,4.857727116629182,-5.80690611688953,14.66042519165874
-0.6426463202554017,-1.4847087665197691,-1.0080081004834882,5.0043313685457695,-5.035354339717112,13.779136643749583
-0.6574934079205994,-1.5350623099169403,-0.9579647867980305,5.142122734983265,-3.8353102616445516,12.377528717420796
-0.6728440310197688,-1.5734154125333857,-0.9065435594481979,5.265898022157473,-2.155294460744441,10.386309626894965
-0.6885781851451026,-1.5949683571408302,-0.8538845792266231,5.369761118426423,0.009722258149054199,7.796641743946326
-0.7045278687165109,-1.5948711345593396,-0.8001869680423589,5.447727535865886,2.595063945415692,4.691115314210688
-0.7204765800621042,-1.5689204951051827,-0.7457096926837,5.494638689007993,5.456550631974205,1.2565259989883206
-0.7361657850131561,-1.5143549887854406,-0.6907633057936201,5.507203948997876,8.386306047943922,-2.2379164573642325
-0.7513093349010105,-1.4304919283060014,-0.6356912663036414,5.484824784424234,11.155597393819084,-5.498590172579064
-0.7656142541840705,-1.3189359543678105,-0.580843018459399,5.429838882698443,13.569242024619212,-8.280328107855967
-0.7788036137277485,-1.1832435341216183,-0.5265446296324146,5.347035601619884,15.506886661254008,-10.440575161943519
-0.7906360490689647,-1.0281746675090782,-0.47307427361621573,5.242629850000449,16.93456056083451,-11.95279396364863
-0.8009177957440554,-0.858829061900733,-0.42064797511621127,5.123101910363962,17.88832607427718,-12.882386111131767
