th1 (rad),w1 (rad/s),th2 (rad),w2 (rad/s),a1 (rad/s^2),a2 (rad/s^2)
3.2555557020618626,1.0201169313897862,2.9690235663489206,0.14862488164738588,3.291728883192047,-4.546206910768923
3.2657568713757605,1.0530342202217067,2.9705098151653946,0.10316281253969664,3.422090059925355,-4.61980405896852
3.2762872135779775,1.0872551208209602,2.9715414432907914,0.05696477195001144,3.5547399812426965,-4.694733808306711
3.287159764786187,1.1228025206333871,2.9721110910102917,0.010017433866944335,3.689026365509279,-4.769797150775823
3.298387789992521,1.1596927842884799,2.972211265348961,-0.037680537640813895,3.8242125138281646,-4.843656786946412
3.309984717835406,1.1979349094267615,2.9718344599725532,-0.08611710551027801,3.959479652015106,-4.914838752026183
3.3219640669296733,1.2375297059469126,2.9709732889174503,-0.13526549303053986,4.093932529021237,-4.981738581402058
3.3343393639891423,1.278469031237125,2.969620633987145,-0.18508287884456043,4.22660887019626,-5.042632849739215
3.3471240543015135,1.3207351199390875,2.9677698051986994,-0.23550920734195258,4.356493203801057,-5.095696799934124
3.3603314055009044,1.364300051977098,2.9654147131252797,-0.2864661753412938,4.4825354308246945,-5.139028562792394
3.3739744060206753,1.4091254062853449,2.9625500513718666,-0.33785646096921773,4.603674283211755,-5.170680143742333
3.388065660083529,1.4551621491174624,2.9591714867621746,-0.3895632624066411,4.718865512906578,-5.188694917832321
3.4026172815747033,1.5023508042465283,2.955275854138108,-0.4414502115849643,4.827114282699149,-5.191150841844122
3.4176407896171686,1.5506219470735199,2.9508613520222586,-0.4933617200034055,4.927510811425312,-5.176207993768036
3.4331470090879037,1.599897055187773,2.9459277348222246,-0.5451237999410858,5.019267896050003,-5.142158435748247
3.4491459796397814,1.650089734148273,2.940476496822814,-0.5965453842985683,5.101758539328534,-5.087475835005587
3.465646876981264,1.7011073195415582,2.9345110429798282,-0.6474201426486241,5.174551609887451,-5.010861847501118
3.4826579501766797,1.7528528356404327,2.928036841553342,-0.6975287611236353,5.237443308032988,-4.911286051139472
3.500186478533084,1.8052272687207627,2.921061553942106,-0.74664162163503,5.290482252444752,-4.788016275696393
3.5182387512202915,1.8581320912452102,2.9135951377257556,-0.794521784391994,5.333986267399088,-4.640636553686034
3.5368200721327434,1.911471953919201,2.9056499198818355,-0.8409281499288543,5.368549435868665,-4.469050607573576
3.5559347916719353,1.9651574482778877,2.897240638382547,-0.8856186560045901,5.395038656026545,-4.273469744342174
3.575586366154714,2.0191078348381533,2.888384451822501,-0.9283533534480118,5.414579730861303,-4.054385153785069
3.5957774445030957,2.0732536321467663,2.879100918288021,-0.9688972049858625,5.428533842952134,-3.812525774483691
3.6165099808245635,2.1275389705762877,2.8694119462381624,-1.0070224627306994,5.43846601984321,-3.5488039608934168
3.6377853705303265,2.18192363077472,2.8593417216108556,-1.0425105023396335,5.446107788365798,-3.264252027086415
3.659604606838074,2.236384708658378,2.8489166165874593,-1.0751530226104977,5.453316580580975,-2.9599532619170104
3.6819684539246578,2.2909178744641876,2.8381650863613546,-1.1047525552296678,5.462034556175261,-2.636971160437062
3.7048776326693,2.34553822002594,2.8271175608090577,-1.1311222668340384,5.4742493509784715,-2.2962804058801423
3.728333014869559,2.4002807135357247,2.8158063381407175,-1.1540850708928398,5.4919588882398305,-1.9387026234298472
3.752335822004916,2.455200302418123,2.804265487431789,-1.1734720971271384,5.5171418624170485,-1.5648492044322186
3.7768878250290974,2.5103717210422936,2.792530766460518,-1.1891205891714607,5.551734899693705,-1.1750726770762174
3.8019915422395205,2.5658890700392307,2.7806395605688032,-1.2008713159422229,5.59761678813747,-0.7694272834771303
3.827650432939913,2.6218652379206056,2.768630847409381,-1.2085655887769942,5.656599613179202,-0.34763870234670446
3.853869085319119,2.6784312340523977,2.756545191521611,-1.2120419758004612,5.730426171257028,0.09091770696701755
3.8806533976596427,2.7357354957649678,2.7444247717636063,-1.2111327987307912,5.82077268500955,0.5472311364943484
3.9080107526172925,2.7939432226150633,2.7323134437762984,-1.2056604873658476,5.929255606954602,1.0226632114330323
3.9359501848434433,2.8532357786846094,2.72025683890264,-1.1954338552515174,6.057441159920573,1.5189506877179888
3.9644825426302894,2.913810190283815,2.7083025003501247,-1.1802443483743374,6.206856196972227,2.0382039643351364
3.9936206445331277,2.9758787522535375,2.6965000568663813,-1.159862308730986,6.378998942424112,2.582902112020158
4.0233794320556635,3.0396687416777786,2.6849014337790713,-1.1340332876107846,6.575348170164783,3.155884719977341
4.053776119472441,3.1054222233794264,2.6735611009029636,-1.1024744404110112,6.797369360560981,3.760340382009007
4.084830341706235,3.173395916985036,2.6625363564988533,-1.064871036590921,7.046516332459835,4.399791098732125
4.116564300876085,3.2438610803096344,2.651887646132944,-1.0208731256035999,7.324226758298866,5.078071272916728
4.149002911679181,3.317103347892623,2.6416789148769078,-0.9700924128744326,7.631909831103159,5.799299325844959
4.182173945158108,3.3934224462036546,2.6319779907481635,-0.912099419615983,7.970924163065259,6.567839268867692
4.216108169620145,3.4731316878343073,2.6228569965520037,-0.846421026927306,8.34254376652849,7.38824883536076
4.250839486498488,3.5565571254995922,2.6143927862827305,-0.7725385385736985,8.74790972097752,8.26521003419018
4.286405057753484,3.6440362227093672,2.6066674008969937,-0.6898864382317966,9.187964900140177,9.203437265449299
4.3228454199805775,3.7359158717107688,2.599768536514676,-0.5978520655773036,9.663368976422833,10.207557509743175
4.360204578697685,3.832549561474997,2.593790015858903,-0.4957764904798719,10.174390914288265,11.281956669875726
4.3985300743124345,3.9342934706178796,2.588832250954104,-0.3829569237811146,10.720776416971765,12.430586064989214
4.437873009018613,4.041501234787598,2.585002681716293,-0.2586510631312225,11.30158844069531,13.656723568455469
4.478288021366489,4.1545171191945505,2.5824161710849807,-0.12208382744666779,11.915020105818458,14.962685222526867
4.519833192558434,4.273667320252735,2.581195332810514,0.027543024778600878,12.558181303776932,16.349485691757558
4.5625698657609615,4.399249133290504,2.5814707630583,0.19103788169617644,13.226863207351913,17.816449998929528
4.606562357093867,4.531517765364024,2.583381141875262,0.3692023816854717,13.915288878250681,19.36078495671512
4.651877534747507,4.67067065414653,2.5870731656921166,0.5628102312526229,14.615863253983417,20.977126769229017
4.698584241288973,4.816829286686365,2.592701268004643,0.772581498944913,15.318941801016658,22.65709135265829
4.746752534155837,4.970018704696531,2.600427082994092,0.9991524124714959,16.012643538658004,24.388865462588036
4.796452721202802,5.130145140083111,2.610418607118807,1.2430410670973762,16.68274003754755,26.15688848642567
4.847754172603633,5.296972540458587,2.6228490177897807,1.504609951961633,17.312655964607135,27.94168469167565
4.900723898008219,5.470099100104658,2.637895117309397,1.7840267988783896,17.883616943202643,29.719910892268654
4.955424889009266,5.648935269536684,2.655735385298181,2.081225907801076,18.374974900084638,31.46468139324832
5.011914241704633,5.83268501853753,2.6765476443761917,2.3958727217335594,18.764727953619563,33.146217244045566
5.070241091890009,6.0203322980737255,2.7005063715935274,2.727334894174015,19.030230534053022,34.7328379354985
5.1304444148707455,6.210634603414256,2.7277797205352674,3.074663273529,19.14906087482595,36.192270822901854
5.192550760904888,6.402125212162516,2.7585263532705575,3.4365859817580184,19.09998071302955,37.49320050857109
5.2565720130265134,6.5931250192928115,2.7928922130881375,3.8115179868437292,18.86389183775615,38.606925106067514
5.322503263219442,6.781763937670373,2.831007392956575,4.197587237904404,18.424673444071527,39.508940075331914
5.390320902596145,6.966010672111088,2.872983265335619,4.592676638657723,17.769780297613323,40.18024559711431
5.459981009317256,7.143708475087221,2.9189100317221963,4.994479094628867,16.89049919015745,40.608180275845
5.531418094068129,7.312613466988796,2.9688548226684848,5.400560897387317,15.781800248812816,40.78662637036348
5.604544228738017,7.4704314694769245,3.022860431642358,5.808427161090952,14.441775248310876,40.715505664420135
5.679248543432786,7.614849221960033,3.0809447032532673,6.215582217735154,12.870717866533264,40.39957875981072
5.755397035652386,7.743556400625366,3.143100525430619,6.619578005333261,11.069960050337935,39.84665789248969
5.83283259965864,7.854256001128745,3.2092963054839516,7.018044584258158,9.040625428794273,39.06542881412174
5.9113751596699275,7.944662255416687,3.2794767513265333,7.408698872399375,6.782490508743686,38.063140512913726
5.990821782224095,8.012487160504124,3.353563740050527,7.789330277528513,4.293157573747925,36.84345967823916
6.070946653829136,8.055418736241602,3.431457042825812,8.157764874310905,1.567743174487796,35.40480331217686
6.1515008411915515,8.07109616798648,3.5130346915689215,8.511812907432674,-1.4007243178470126,33.73946348160167
6.232211802871416,8.05708892480801,3.5981528206432483,8.84920754224869,-4.620027243832065,31.833825146248927
6.312782692119496,8.010888652369689,3.686644896065735,9.167545793711179,-8.096474843453755,29.669944678161688
6.3928915786431935,7.929923903935151,3.778320354002847,9.464245240492795,-11.831570831119988,27.22868464067934
6.472190817682545,7.811608195623951,3.872962806407775,9.736532086899588,-15.817736562222558,24.494461072236774
6.550306899638785,7.653430830001726,3.9703281272767708,9.981476697621956,-20.03342024795024,21.46142331725838
6.626841207938802,7.453096627522224,4.0701428942529905,10.19609093079454,-24.438224654468026,18.14054075684869
6.701372174214024,7.208714380977543,4.172103803560936,10.377496338363027,-28.96901750503776,14.566645491042115
6.773459318023799,6.919024205927165,4.275878766944566,10.523162793273448,-33.53824765129865,10.804071476833002
6.842649560083071,6.583641729414179,4.3811103948773,10.631203508041779,-38.035723544154365,6.949305752285826
6.908485977377213,6.203284493972635,4.487422429957718,10.700696565564638,-42.33476313046784,3.1292249650050694
6.970518822316939,5.779936862667957,4.594429395613364,10.731988815214688,-46.302825724283124,-0.505830219559206
7.028318190943619,5.316908605425126,4.701749283765511,10.726930513019097,-49.815598436636854,-3.793726607887511
7.08148727699787,4.818752621058757,4.809018588895702,10.688993246940221,-52.772363114945726,-6.575177804906195
7.129674803208458,4.2910289899093,4.915908521365104,10.623241468891159,-55.10977444397919,-8.708492192812827
7.172585093107551,3.739931245469508,5.022140936054016,10.536156546963031,-56.81131192875465,-10.081237812990674
7.2099844055622455,3.171818126181962,5.127502501523646,10.435344168833124,-57.91069227720741,-10.61624752541044
7.241702586824065,2.5927112034098876,5.231855943211977,10.32918169357902,-58.48911488345243,-10.270739225854914
7.267629698858164,2.0078200545753635,5.335147760147768,10.22647430132047,-58.667784456031065,-9.028881187372841
7.287707899403918,1.4211422100150528,5.437412503160973,10.136185489446742,-58.598177463321825,-6.889313057443089
7.3019193215040685,0.8351604353818346,5.53877435805544,10.067292358872312,-58.4527463467976,-3.8495953264388283
7.310270925857887,0.2506329719138586,5.639447281644163,10.028796405607924,-58.418273698737785,0.11067643501733099
7.312777255577026,-0.3335497650735193,5.739735245700242,10.029903169958096,-58.693155727704124,5.046951370537782
7.30944175792629,-0.9204813223505606,5.840034277399823,10.080372683663475,-59.488659350424975,11.066217679849721
7.300236944702784,-1.5153679158548103,5.940838004236458,10.191034860461972,-61.03233666291087,18.341265962173615
7.285083265544237,-2.125691282483919,6.042748352841078,10.374447520083708,-63.567859454055245,27.11681505612948
7.263826352719398,-2.7613698770244715,6.146492828041914,10.645615670645002,-67.33543128518022,37.688321250787844
7.236212653949153,-3.434724189876274,6.252948984748365,11.022498883152881,-72.4897549079305,50.297049145825696
7.20186541205039,-4.159621738955579,6.363173973579894,11.525469374611138,-78.84177866507011,64.78671166612975
7.160269194660835,-4.94803952560628,6.478428667326005,12.173336491272435,-85.14758675503528,79.63834667939854
7.110788799404772,-5.799515393156633,6.60016203223873,12.96971995806642,-87.43414313667596,89.66421995235919
7.052793645473206,-6.6738568245233925,6.729859231819394,13.866362157590013,-76.3573839405546,82.31196390006073
6.986055077227972,-7.4374306639289385,6.8685228533952944,14.68948179659062,-38.507672605579884,39.31407931594177
6.911680770588682,-7.822507389984738,7.015417671361201,15.082622589750038,24.588063564975478,-37.34394041966731
6.8334556966888345,-7.576626754334983,7.166243897258701,14.709183185553364,77.08575344244514,-99.18188754760197
6.7576894291454845,-6.805769219910531,7.313335729114234,13.717364310077345,92.46736392322047,-111.39149246601028
6.689631736946379,-5.881095580678327,7.4505093722150075,12.603449385417242,85.11458845176287,-94.50564078196987
6.630820781139596,-5.029949696160698,7.57654386606918,11.658392977597543,73.0349923851304,-72.67876653689079
6.580521284177989,-4.299599772309394,7.693127795845156,10.931605312228635,62.65104813971223,-53.96539396703021
6.537525286454895,-3.6730892909122717,7.802443848967442,10.391951372558333,54.92517875104916,-39.19197002462749
6.500794393545772,-3.12383750340178,7.906363362693026,10.000031672312058,49.469128213957845,-27.54853356577405
6.469556018511754,-2.6291462212622014,8.006363679416147,9.724546336654317,45.74859281688051,-18.1494923823506
6.443264556299132,-2.1716602930933964,8.10360914278269,9.543051412830811,43.32899290944419,-10.318603892042809
6.421547953368198,-1.7383703639989545,8.199039656910998,9.439865373910383,41.88779798593365,-3.5834587900106643
6.4041642497282085,-1.319492384139618,8.293438310650101,9.404030786010276,41.18312970754171,2.3729706300275963
6.390969325886813,-0.9076610870642009,8.387478618510205,9.427760492310552,41.02114825994958,7.752064050418169
6.38189271501617,-0.4974496044647051,8.48175622343331,9.505281132814734,41.229014678445246,12.664327512176067
6.3769182189715234,-0.08515945768025263,8.576809034761457,9.631924407936495,41.632730573881496,17.141973248405023
6.376066624394721,0.33116784805856236,8.67312827884082,9.803344140420545,42.038610838310326,21.14320779523512
6.379378302875306,0.7515539564416656,8.771161720245026,10.014776218372896,42.21841178673817,24.552297215784833
6.386893842439723,1.1737380743090473,8.871309482428755,10.260299190530745,41.90009029346258,27.18026168608331
6.3986312231828135,1.592738977243673,8.973912474334062,10.532101807391578,40.76847298989745,28.772573736525892
6.4145586129552505,2.0004237071426476,9.079233492407978,10.819827544756837,38.4821390270888,29.03177295868252
6.434562850026677,2.3852450974135357,9.187431767855546,11.110145274343662,34.713077870299024,27.66271782434197
6.458415301000812,2.732375876116526,9.298533220598983,11.386772452587081,29.211779693997137,24.44356928767204
6.485739059761977,3.0244936730564977,9.412400945124855,11.631208145463802,21.89024476823385,19.314293924787687
6.515983996492542,3.2433961207388364,9.528713026579492,11.82435108471168,12.900155512210656,12.458078071537178
6.548417957699931,3.372397675860943,9.64695653742661,11.94893186542705,2.6708888346802646,4.338388875564354
6.58214193445854,3.3991065642077456,9.76644585608088,11.992315754182695,-8.125056916792895,-4.3407355581183875
6.616133000100618,3.3178559950398165,9.886369013622707,11.94890839860151,-18.68581323717044,-12.754526994701742
6.649311560051016,3.1309978626681123,10.005858097608721,11.821363128654493,-28.241172935881337,-20.120716785700658
6.6806215386776975,2.8485861333092988,10.124071728895267,11.620155960797486,-36.20342033408535,-25.846099711978464
6.70910740001079,2.4865519299684453,10.240273288503241,11.361694963677701,-42.256824932437155,-29.60729192588191
6.7339729193104745,2.063983680644074,10.353890238140018,11.065622044418882,-46.367017047011046,-31.351591451494034
6.754612756116916,1.6003135101739634,10.464546458584207,10.752106129903941,-48.72613663618287,-31.237312829156632
6.770615891218656,1.1130521438121348,10.572067519883246,10.439733001612375,-49.66748015312394,-29.547570892480554
6.781746412656777,0.6163773422808954,10.67646484989937,10.14425729268757,-49.58162419190902,-26.60741877419201
6.7879101860795865,0.12056110036180512,10.777907422826246,9.87818310494565,-48.85337148108471,-22.721253398236605
6.789115797083205,-0.36797261444904195,10.876689253875702,9.650970570963285,-47.825275821724425,-18.1346343762179
6.785436070938714,-0.8462253726662863,10.973198959585334,9.469624227201106,-46.78446668931587,-13.016507026730556
6.776973817212052,-1.3140700395594451,11.067895201857345,9.3394591569338,-45.96587232088829,-7.454589713830638
6.763833116816457,-1.773728762768328,11.161289793426683,9.264913259795495,-45.56510726172988,-1.4567627057710868
6.746095829188774,-2.2293798353856267,11.253938926024638,9.250345632737785,-45.75617066356718,5.0471437092678535
6.723802030834918,-2.6869415420212985,11.346442382352016,9.300817069830464,-46.71115338627509,12.20689358616571
6.696932615414704,-3.1540530758840495,11.439450553050321,9.42288600569212,-48.62040352803006,20.25851579386661
6.665392084655864,-3.6402571111643502,11.533679413107242,9.625471163630786,-51.711041926217135,29.53489140644932
6.628989513544221,-4.157367530426521,11.62993412474355,9.92082007769528,-56.25691862026771,40.471459336267166
6.587415838239956,-4.719936716629198,11.729142325520503,10.325534671057952,-62.55677233058582,53.575667585066164
6.540216471073664,-5.345504439935056,11.832397672231082,10.861291346908613,-70.80812477662431,69.26121040738028
6.486761426674313,-6.0535856877012995,11.941010585700168,11.553903450982416,-80.6648328893979,87.25468281713054
6.4262255697973005,-6.860234016595278,12.056549620209992,12.426450279153721,-89.92254379972498,104.80134027428743
6.357623229631348,-7.759459454592528,12.180814123001529,13.474463681896596,-91.31676694164668,112.23984079717576
6.280028635085423,-8.672627124008994,12.315558759820494,14.596862089868354,-68.29690557038754,87.08284831037344
6.1933023638453335,-9.355596179712869,12.461527380719177,15.467690572972089,-4.153547957371345,6.488048732478211
6.099746402048205,-9.397131659286583,12.616204286448898,15.53257106029687,75.63903133567045,-94.4915965234353
6.00577508545534,-8.640741345929879,12.771529997051866,14.587655095062518,112.37799540636392,-136.18912832420148
5.91936767199604,-7.516961391866239,12.917406548002491,13.225763811820503,106.42376758296862,-120.77924007267657
5.844198058077378,-6.452723716036553,13.049664186120696,12.017971411093738,89.42992083281698,-91.75449080258385
5.779670820917013,-5.558424507708383,13.169843900231633,11.100426503067899,74.73230551733691,-66.62568896005472
5.724086575839929,-4.811101452535015,13.280848165262313,10.434169613467352,64.18072373808575,-47.3491754238222
5.675975561314579,-4.169294215154157,13.385189861396986,9.960677859229131,57.030754422020095,-32.58589126356545
5.634282619163037,-3.5989866709339564,13.484796639989277,9.634818946593477,52.373125651439345,-20.921778036241715
5.598292752453697,-3.075255414419563,13.581144829455212,9.42560116623106,49.52345651473862,-11.338056401894745
5.567540198309501,-2.580020849272177,13.675400841117522,9.312220602212111,48.001796355932,-3.160597697479771
5.541739989816779,-2.1000028857128568,13.768523047139643,9.280614625237314,47.460591365130675,4.037677730557248
5.520739960959651,-1.62539697206155,13.861329193392017,9.320991402542887,47.62311760822371,10.505209036468543
5.504485991239036,-1.149165795979313,13.954539107417446,9.426043492907572,48.23634640496778,16.349812580592964
5.492994333279243,-0.666802331929635,14.048799542346522,9.589541618713502,49.034195080946496,21.555726384499813
