th1 (rad),w1 (rad/s),th2 (rad),w2 (rad/s)
2.106342286552989,-1.8760585368476033,0.778674990266328,-2.8287653741493024
2.087581701184513,-1.9985468875657566,0.750387336524835,-2.8339456162983505
2.0675962323088553,-2.1229093124247194,0.7220478803618515,-2.8331291471799
2.046367139184608,-2.248999110961815,0.6937165888900525,-2.8258086969197507
2.0238771480749898,-2.3766565081903046,0.665458501920855,-2.8114609932858823
2.0001105829930865,-2.5057115062990456,0.6373438919879961,-2.7895494289624123
1.9750534679300962,-2.635987495973679,0.609448397698372,-2.7595271540098016
1.9486935929703595,-2.767305691663201,0.581853126158274,-2.7208405261779243
1.9210205360537276,-2.8994904463665008,0.5546447208964947,-2.6729328170758437
1.8920256315900625,-3.0323754906966593,0.5279153927257363,-2.615248032748406
1.861701876683096,-3.1658111286915473,0.5017629123982522,-2.547234663636096
1.8300437653961805,-3.299672409983476,0.47629056576189127,-2.468349132291213
1.7970470412963457,-3.4338682857366587,0.45160707443897913,-2.378058659167992
1.762708358438979,-3.568351745689844,0.4278264878472992,-2.275843219444815
1.7270248409820808,-3.703130927308844,0.4050680556528511,-2.161196220017262
1.6899935317089922,-3.838281186913058,0.38345609345267845,-2.0336234892910294
1.6516107198398617,-3.9739581274821854,0.36311985855976814,-1.8926401483498223
1.61187113856504,-4.110411587909569,0.3441934570762699,-1.7377649278918816
1.5707670226859443,-4.248000609886223,0.3268158077973511,-1.568511522445622
1.528287016587082,-4.387209401755813,0.3111306925728949,-1.3843766505297206
1.484414922569524,-4.528664293560679,0.29728692606759766,-1.184824648826062
1.4391282796339173,-4.6731515855178705,0.28543867957933705,-0.9692687270679468
1.3923967637787387,-4.821635961623804,0.2757459923086576,-0.7370495505000647
1.3441804041625005,-4.975278640134355,0.26837549680365697,-0.48741278305432
1.294427617761157,-5.135453426682037,0.26350136897311377,-0.219488949925788
1.2430730834943364,-5.3037568986701205,0.2613064794738559,0.0677179385886077
1.1900355145076351,-5.482005324386267,0.26198365885974195,0.3753210548787628
1.1352154612637724,-5.67220428203421,0.2657368694085296,0.7044989809988538
1.0784934184434303,-5.876465052098053,0.2727818592185181,1.0563625708542352
1.0197287679224498,-6.09682118629775,0.28334548492706046,1.4316720490572463
0.9587605560594723,-6.334864532297994,0.29766220541763294,1.8302878352038903
0.8954119107364924,-6.591069140271426,0.31596508376967186,2.250167771074208
0.8295012193337782,-6.863612633665871,0.33846676148041394,2.6856434522852464
0.7608650929971195,-7.146490319829549,0.3653231960032664,3.1246956914701793
0.689400189798824,-7.426914080037598,0.3965701529179682,3.545242632867369
0.6151310489984481,-7.6827518822178735,0.4320225792466419,3.911560182710749
0.5383035301762693,-7.882428234111337,0.4711381810737494,4.174341242420026
0.4594792478351559,-7.991342061927721,0.5128815934979496,4.280227481677511
0.3795658272158787,-7.986441694796387,0.5556838683147247,4.193159112009368
0.29970141026791486,-7.870881303919311,0.5976154594348184,3.915934911613173
0.22099259722872175,-7.67414191938588,0.6367748085509501,3.4908776849960175
0.14425117803486295,-7.435848768784367,0.6716835854009103,2.976745688419061
0.06989269034701928,-7.188830145957191,0.7014510422851009,2.4240175813638523
-0.0019956111125526282,-6.952797143548197,0.7256912180987395,1.8651551922999028
-0.07152358254803459,-6.736359213434775,0.7443427700217385,1.316959875892446
-0.13888717468238235,-6.541249412919191,0.757512368780663,0.7863686780126162
-0.20429966881157424,-6.365668731348864,0.7653760555607891,0.2751844218180355
-0.26795635612506286,-6.206281527794923,0.7681278997789694,-0.21703865761135838
-0.33001917140301207,-6.059248981243245,0.7659575132028559,-0.691469085021982
-0.39061166121544455,-5.920716794775171,0.7590428223526361,-1.1492688852223016
-0.44981882916319627,-5.787026748289622,0.7475501335004131,-1.5912869039249515
-0.5076890966460925,-5.654799618390017,0.7316372644611636,-2.017965775509926
-0.5642370928299927,-5.520963693905104,0.7114576067060644,-2.429354182270152
-0.6194467297690437,-5.3827639248621075,0.6871640648833629,-2.8251700075687083
-0.6732743690176648,-5.237766801147979,0.6589123648076758,-3.204887198171927
-0.7256520370291446,-5.0838661523258954,0.6268634928259565,-3.5678323384605686
-0.7764906985524036,-4.919290249395993,0.5911851694413509,-3.91328311015166
-0.8256836010463635,-4.742608377599933,0.5520523383398344,-4.240563616652549
-0.8731096848223628,-4.55273420969265,0.5096467021733089,-4.5491328517144
-0.9186370269192894,-4.348923238543634,0.4641553736561649,-4.838663322261818
-0.9621262593047257,-4.130761918614375,0.4157687404335467,-5.109107449293339
-1.0034338784908694,-3.8981468424856893,0.36467766594061335,-5.360750066705443
-1.0424153469157262,-3.651253121033761,0.3110701652735589,-5.594246171651131
-1.0789278781260638,-3.390492045310565,0.2551277035570476,-5.810644024586188
-1.1128327985791695,-3.1164589969805148,0.19702126331118575,-6.01139467533073
-1.1439973885489747,-2.8298733693149147,0.13690731655787844,-6.198349895067008
-1.1722961222421238,-2.5315129170685444,0.07492381760720836,-6.373751194134698
-1.1976112514128092,-2.2221454743954814,0.011186305665861374,-6.540212952279701
-1.219832706156764,-1.902461446004674,-0.05421582385693563,-6.700702496241869
-1.2388573206168108,-1.5730110875293979,-0.12122284881935431,-6.858518964131922
-1.2545874314921048,-1.2341517304701715,-0.18980803846067354,-7.017270559557439
-1.2669289487968065,-0.8860124552239764,-0.25998074405624794,-7.180845536997515
-1.2757890733490462,-0.5284884424917594,-0.3317891994262231,-7.353364539010371
-1.2810739577739638,-0.1612863118828341,-0.4053228448163268,-7.539088152781237
-1.2826868208927922,0.21594161677427376,-0.48071372634413917,-7.7422293978867485
-1.2805274047250494,0.6033073632556541,-0.5581360203230067,-7.9665796659895145
-1.274494331092493,1.000128828871435,-0.6378018169829018,-8.214790914854103
-1.2644930428037786,1.4039282461745382,-0.7199497261314429,-8.487067233947704
-1.2504537603420331,1.8087663123687332,-0.8048203984709199,-8.77894552695565
-1.232366097218346,2.202779966167224,-0.8926098537404764,-9.077951470821192
-1.2103382975566737,2.5653270243734627,-0.9833893684486883,-9.359630550503072
-1.184685027312939,2.865586955246635,-1.076985673953719,-9.585425162366546
-1.1560291577604727,3.06658187976561,-1.1728399255773843,-9.707790028546219
-1.1253633389628166,3.1381913294597577,-1.2699178258628465,-9.687466783823723
-1.093981425668219,3.0745393222178774,-1.3667924937010838,-9.51669460591426
-1.0632360324460401,2.9003523622492864,-1.4619594397602265,-9.227512184393497
-1.0342325088235473,2.6577579491352754,-1.5542345616041615,-8.873868265315501
-1.0076549293321946,2.3864356706370087,-1.6429732442573166,-8.505325169489499
-0.9837905726258245,2.1132183489591383,-1.7280264959522116,-8.153875892752401
-0.9626583891362331,1.8523042291740972,-1.8095652548797356,-7.834903787412784
-0.9441353468444922,1.6094677614161055,-1.8879142927538635,-7.553146047483504
-0.9280406692303311,1.3859053569220825,-1.9634457532286984,-7.307884817080143
-0.9141816156611103,1.1806685707250286,-2.0365246013995,-7.096115918514258
-0.90237492995386,0.9919705512819815,-2.1074857605846424,-6.9141777928735175
-0.8924552244410402,0.8178209471646563,-2.1766275385133778,-6.758492500710442
-0.8842770149693936,0.6563071361841836,-2.244212463520482,-6.625855729227966
-0.8777139436075517,0.5057014945515192,-2.310471020812762,-6.513515531675208
-0.8726569286620365,0.36448765180384557,-2.375606176129514,-6.4191599009357185
-0.869012052143998,0.23135163990978921,-2.4397977751388713,-6.340870151604737
-0.8666985357449001,0.10515989813268492,-2.5032064766549187,-6.277065811819103
-0.8656469367635732,-0.015065722574795132,-2.5659771347731097,-6.226451777809379
-0.8657975939893211,-0.13017152464580656,-2.6282416525512033,-6.187971545843526
-0.8670993092357792,-0.24089236521468507,-2.6901213680096387,-6.160767235431983
-0.869508232887926,-0.3478683835106213,-2.7517290403639585,-6.144145819606596
-0.8729869167230322,-0.45165805144019655,-2.8131704985600243,-6.137550504192153
-0.8775034972374341,-0.5527477079618661,-2.874546003601946,-6.1405360820663395
-0.8830309743170528,-0.6515577392107426,-2.935951364422609,-6.152747111045713
-0.8895465517091602,-0.7484454938378549,-2.9974788355330664,-6.173897824435261
-0.8970310066475388,-0.8437049196856337,-3.059217813777419,-6.203752737798364
-0.905468055844395,-0.937562795666651,-3.1212553411554027,-6.24210694865169
-0.9148436838010615,-1.030171325157098,-3.1836764106419198,-6.288765137156817
-0.9251453970526325,-1.1215967670370857,-3.246564062013488,-6.3435182752143815
-0.9363613647230034,-1.2118037245638815,-3.3099992447656317,-6.4061170581138684
-0.9484794019686422,-1.3006347159447187,-3.3740604153467704,-6.476241118469536
-0.9614857491280894,-1.387784751883333,-3.4388228265314655,-6.553463213965502
-0.9753635966469227,-1.4727708990568045,-3.5043574586711204,-6.6372078664704866
-0.9900913056374908,-1.5548972874306182,-3.570729537335825,-6.726704462535583
-1.005640278511797,-1.633216812364303,-3.6379965819611813,-6.820935719245898
-1.02197244663544,-1.706491981977857,-3.7062059391536404,-6.918583800762354
-1.0390373664552186,-1.7731590327877618,-3.7753917771612637,-7.017978344065577
-1.0567689567830962,-1.8313015676743687,-3.8455715606019196,-7.1170532363650265
-1.07508197245984,-1.878642377603364,-3.91674209296557,-7.213322010807107
-1.0938683962358735,-1.9125643315943137,-3.988875313073641,-7.303884693304429
-1.1129940395518167,-1.9301724208332969,-4.061914160006685,-7.385480884030346
-1.1322957637601496,-1.928408004191572,-4.135768968846988,-7.454603346927601
-1.1515798438020652,-1.9042216403104515,-4.210315002316264,-7.507681703980634
-1.1706220602051698,-1.8548016120189177,-4.285391819356071,-7.541335658986218
-1.189170076325359,-1.7778416250004914,-4.3608051759459325,-7.552681598643741
-1.206948492575364,-1.6718156148593528,-4.43633199193237,-7.539658035017687
-1.2236666487239576,-1.5362149071175426,-4.511728572282547,-7.501319608244145
-1.239028797795133,-1.3716991051447993,-4.5867417683649885,-7.43804326320176
-1.2527457888465812,-1.180121496679699,-4.661122200997006,-7.351599224089475
-1.2645470038133781,-0.9644124057020913,-4.734638193237901,-7.245063891947625
-1.274191127870399,-0.728333865434321,-4.807088832157377,-7.122585412601993
-1.2814744665247422,-0.4761464228484317,-4.878314686283397,-6.989044368322587
-1.2862359307532265,-0.21224457857936846,-4.948205129966623,-6.849671234600886
-1.2883583765390203,0.05918291771198109,-5.0167018423126315,-6.709683778553669
-1.2877665473619004,0.3344257060503833,-5.083798680098168,-6.573993588362037
-1.2844222903013967,0.6104361800706029,-5.149538615981788,-6.447008666924152
-1.2783179285006907,0.8849248947941692,-5.21400870265103,-6.33253674010092
-1.269468679552749,1.156381257630816,-5.277334070052039,-6.233777432101957
-1.2579048669764408,1.4240413283345115,-5.339671844373058,-6.153382883732475
-1.2436644536930956,1.687825794627975,-5.401205673210383,-6.0935648863422
-1.2267861957468158,1.9482683722186394,-5.462141322073805,-6.056229860833363
-1.2073035120246294,2.206450346369727,-5.5227036206821385,-6.043128590373206
-1.1852390085609321,2.4639524611576693,-5.583134906585871,-6.056013701576139
-1.1605994839493554,2.7228318407620016,-5.643695043601632,-6.096803462913703
-1.1333711655417353,2.985629426197611,-5.704663078230769,-6.167755142768437
-1.1035148712797593,3.255412407426499,-5.766340629658453,-6.27165486985203
-1.0709607472054943,3.5358558132451323,-5.829057178356973,-6.412033503284105
-1.035602189073043,3.8313666789485423,-5.893177513389815,-6.593418578057358
-0.9972885222835575,4.147250545649975,-5.959111699170388,-6.821628105446495
-0.9558160168270577,4.4899074630636955,-6.027327980224853,-7.104095088864215
-0.9109169421964208,4.867008403927046,-6.098368931113495,-7.45016196936762
-0.8622468581571504,5.287506585908115,-6.172870550807172,-7.871151383597153
-0.8093717922980692,5.7610933290129696,-6.251582064643143,-8.379680475139217
-0.7517608590079395,6.2961141760734165,-6.335378869394535,-8.986859378389697
-0.6887997172472053,6.89364428747829,-6.425247463178432,-9.694172954064367
-0.6198632743724224,7.533154959724857,-6.522189192719076,-10.473653882435578
-0.5445317247751739,8.144588585141882,-6.626925731543432,-11.229019871217545
-0.46308583892375504,8.577653953710307,-6.739215930255607,-11.752657823249887
-0.377309299386652,8.636985151065648,-6.856742508488106,-11.774020447736735
-0.29093944787599546,8.258454555242379,-6.974482712965473,-11.204120446869801
-0.20835490232357168,7.620058660346055,-7.086523917434171,-10.287913041716685
-0.1321543157201111,6.949949566016153,-7.1894030478513375,-9.33697540432534
-0.06265482005994957,6.358677994827888,-7.282772801894591,-8.49937582644417
0.000931959888329309,5.8665858166173415,-7.3677665601590325,-7.799700634251767
0.059597818054502726,5.462237338601475,-7.44576356650155,-7.220014533636923
0.11422019144051748,5.128719079505588,-7.517963711837919,-6.73572444954865
0.16550738223557337,4.851140894784435,-7.585320956333406,-6.325548308223872
0.2140187911834177,4.61784248191622,-7.648576439415645,-5.972956258468914
0.26019721600257995,4.419978178662443,-7.708306002000334,-5.665483894360337
0.30439699778920437,4.250853150112902,-7.764960840943937,-5.393765697004276
0.3469055292903334,4.10534847035696,-7.81889849791398,-5.1507275765382134
0.38795901399390303,3.9794833038855297,-7.870405773679362,-4.930991263948969
0.4277538470327583,3.8700928371576744,-7.919715686318852,-4.730454192000341
0.46645477540433505,3.7745915052025016,-7.967020228238855,-4.545999082754085
0.5042006904563601,3.6907964364044457,-8.012480219066395,-4.375295810335426
0.5411086548204045,3.6167933669375536,-8.05623317716975,-4.216667632873849
0.57727658848978,3.550833654911524,-8.098399853498488,-4.069000869895054
0.6127849250388953,3.491256151690336,-8.139089862197439,-3.931681313081112
0.6476974865557986,3.436431772448205,-8.178406675328251,-3.804542751396684
0.6820618042802806,3.384731737459265,-8.216452102842219,-3.6878138896969355
0.7159091216548733,3.3345224095780504,-8.253330241739189,-3.5820507790808325
0.7492543457506537,3.2841899095296516,-8.289150749529997,-3.488043988986952
0.7820962448459503,3.2321956185298077,-8.324031189419866,-3.4066944405441153
0.8144182010312484,3.1771589552027444,-8.358098133825308,-3.3388598201056086
0.8461897905832758,3.1179569902676154,-8.391486732026364,-3.2851841831780693
0.8773693604859519,3.0538233760131366,-8.424338573858144,-3.245934194100929
0.9079075942460832,2.984424654577048,-8.456797915799154,-3.22087224083758
0.9377518407918537,2.9098932030002334,-8.48900663820753,-3.2091952113398126
0.966850772821856,2.830804099626414,-8.521098590320927,-3.2095562867480543
0.9951588138181202,2.7480963017916245,-8.553194153188407,-3.22016829910881
1.0226397768360365,2.6629522729281265,-8.585395836179496,-3.238967510993256
1.0492692995653177,2.5766595198590543,-8.617785511289428,-3.263803479341326
1.0750358947639083,2.490479299917571,-8.650423546082841,-3.292618423181273
1.099940687763084,2.4055423273198078,-8.683349730314655,-3.32358770583144
1.123996111036282,2.3227817430911126,-8.71658560737297,-3.3552070845461883
1.147223928467193,2.242903854414642,-8.750137678218431,-3.3863265169054584
1.1696529670113394,2.1663900996059375,-8.784000943387486,-3.416140368370265
1.1913168680073987,2.0935203966903333,-8.818162347071189,-3.4441484097994435
1.212252071974302,2.024407963858898,-8.852603831169183,-3.470101871425046
1.232496151612891,1.959037593324787,-8.887304849883433,-3.4939459208051638
1.2520865275461388,1.8973019551904704,-8.922244309091486,-3.5157661002748593
1.2710595470980435,1.8390329386040603,-8.957401970094235,-3.5357427363969633
1.289449876484084,1.7840268911813517,-8.992759397458205,-3.5541146916934956
1.3072901453958976,1.7320638172879075,-9.02830054437514,-3.571152153826553
1.3246107835687766,1.6829212436724834,-9.064012065913406,-3.5871372827298087
1.3414399960055015,1.6363837182707708,-9.099883438740704,-3.6023512182659005
1.3578038331882092,1.5922489262998383,-9.135906950923363,-3.61706596642346
1.3737263224512075,1.550331301990098,-9.172077610587598,-3.6315398644559966
1.3892296354711084,1.5104638599659699,-9.208393009232157,-3.646015567305264
1.404334274070768,1.4724988110044361,-9.24485316490521,-3.6607197384736954
1.4190592621808125,1.4363073842318241,-9.281460362289947,-3.675863839283488
1.4334223360231306,1.4017791597650948,-9.318219000682781,-3.691645581381775
1.4474401276207816,1.3688211229323373,-9.3551354564966,-3.708250738818651
1.4611283388501048,1.337356580570668,-9.392217963884786,-3.725855113006804
1.4745019046558114,1.3073240273032847,-9.429476515014853,-3.7446265127058047
1.4875751449288444,1.2786760108737973,-9.46692278014191,-3.7647266579350265
1.5003619050375823,1.2513780167417998,-9.50457004672126,-3.7863129465141747
1.5128756852050003,1.2254073699903032,-9.542433176186403,-3.8095400386951805
1.5251297589049033,1.2007521344957055,-9.580528576573355,-3.834561221878786
1.5371372802498604,1.1774099730448473,-9.618874188792143,-3.8615295154783316
1.548911379980309,1.155386915741708,-9.657489483946925,-3.890598466490268
1.560465249137726,1.1346959658945917,-9.696395468611827,-3.921922569372415
1.571812208796672,1.1153554509408539,-9.735614694305552,-3.9556572188519303
1.5829657633060805,1.0973869991581873,-9.775171266494072,-3.991958070116095
1.5939396332976623,1.0808129891897285,-9.815090847195233,-4.030979635803107
1.6047477631895597,1.0656532770511713,-9.855400643553264,-4.072872891293311
1.6154042959600714,1.0519209528048792,-9.896129372466197,-4.117781586997946
1.6259235054881203,1.039616815722647,-9.937307188336176,-4.165836877334233
1.6363196736453467,1.0287221834446771,-9.978965557109518,-4.217149771506869
1.6466068954797934,1.0191895716966912,-10.021137054824587,-4.271800795965833
1.6567987911967603,1.0109307071220142,-10.063855062784246,-4.329826145431481
1.6669080982679805,1.0038012880724672,-10.10715332423856,-4.391199515816021
1.6769461111487052,0.9975819255515334,-10.15106531939672,-4.45580880862657
1.6869219304042204,0.9919548438099783,-10.195623407482985,-4.523427058186836
1.6968414788423203,0.9864762975846579,-10.240857678064854,-4.593677394192551
1.7067062418181669,0.9805454108758834,-10.286794452006779,-4.665992802118996
1.7165116959269258,0.9733714292376131,-10.33345438002797,-4.739573113459841
1.726245410219302,0.9639433520232662,-10.380850111162568,-4.813344253620804
1.7358848437395344,0.9510085831761302,-10.428983553698776,-4.885928322891807
1.7453949295712958,0.933070270222872,-10.477842836927694,-4.955637142872851
1.7547256322735245,0.9084154226609484,-10.527399208356423,-5.020505174115301
1.763809786500134,0.8751859194837396,-10.577604260097576,-5.078377788545763
1.7725616456949715,0.8314997597276473,-10.628388037983035,-5.127064564441429
1.780876643292248,0.7756185786414194,-10.67965868362745,-5.164552140642002
1.7886328290786622,0.706140429296187,-10.73130420503387,-5.189248451260299
1.795694233371624,0.6221796285462672,-10.783196689546473,-5.200207372569506
1.8019160296570866,0.5234875333036436,-10.83519876327217,-5.1972727334956135
1.807150904990123,0.4104776825132185,-10.887171490607125,-5.181094255884023
1.8112556818152552,0.2841455703542709,-10.938982433165965,-5.153004622555376
1.814097137518798,0.14590600868322512,-10.99051247939152,-5.114790730712639
1.8155561976056303,-0.002606482068615801,-11.041660386698645,-5.06842147129796
1.815530132784944,-0.1597261387944633,-11.092344601411625,-5.015796511169889
1.8139328713969993,-0.32389969199438284,-11.142502566523325,-4.958559708600841
1.8106938744770555,-0.49377284685570644,-11.192088163609332,-4.8979918466998615
1.8057561460084985,-0.6682243528583471,-11.241068082076332,-4.834974168419234
1.7990739024799152,-0.8463616127628881,-11.289417823760525,-4.770002612139108
