th1 (rad),w1 (rad/s),th2 (rad),w2 (rad/s),a1 (rad/s^2),a2 (rad/s^2)
6.190385880154394,-1.00137471387459,1.824647460009612,1.60206321386391,0.3645038860882523,-10.305197638818994
6.180372133015648,-0.9977296750137076,1.8406680921482512,1.49901123747572,0.17542650953613612,-10.30854299199188
6.17039483626551,-0.9959754099183462,1.8556582045230083,1.3959258075558012,0.0033755497175337033,-10.318323965065064
6.160435082166327,-0.9959416544211709,1.8696174625985664,1.2927425679051505,-0.15170477330035606,-10.332838040422656
6.150475665622115,-0.9974587021541744,1.882544888277618,1.1894141875009239,-0.28982737926458657,-10.350504785909393
6.140501078600574,-1.0003569759468203,1.894439030152627,1.08590913964183,-0.41097697060911226,-10.369858154931498
6.130497508841105,-1.0044667456529115,1.9052981215490454,0.9822105580925149,-0.5151230546406547,-10.389540754156963
6.1204528413845765,-1.009617976199318,1.9151202271299705,0.8783151505509452,-0.6022314294241063,-10.408299643177529
6.110356661622583,-1.015640290493559,1.92390337863548,0.7742321541191699,-0.6722741940027241,-10.424983276272599
6.100200258717647,-1.0223630324335864,1.9316457001766718,0.6699823213564439,-0.7252383283979541,-10.438539239951139
6.089976628393312,-1.0296154157175659,1.9383455233902362,0.5655969289569325,-0.7611328817298808,-10.448012482864478
6.079680474236136,-1.0372267445348646,1.9440014926798055,0.4611168041282877,-0.7799948070832144,-10.452543778208106
6.0693082067907875,-1.0450266926056968,1.9486126607210883,0.35659136634620664,-0.781893488504617,-10.451368203627501
6.058857939864731,-1.052845627490743,1.9521785743845503,0.2520776843099316,-0.7669340176458737,-10.443813470185102
6.048329483589823,-1.0605149676672017,1.9546993512276496,0.14763954960808057,-0.7352592937741675,-10.429297979919632
6.037724333913151,-1.0678675606049433,1.9561757467237304,0.04334656980888425,-0.6870510397174998,-10.407328540274312
6.0270456583071015,-1.0747380710021182,1.9566092124218193,-0.060726715593858865,-0.62252984625591,-10.377497712137588
6.01629827759708,-1.0809633694646772,1.9560019452658808,-0.16450169271523474,-0.54195437691584,-10.339480815077524
6.005488643902433,-1.0863829132338356,1.9543569283387285,-0.26789650086600997,-0.4456198824957611,-10.293032657004122
5.994624814770095,-1.0908391120587932,1.9516779633300685,-0.3708268274360512,-0.3338561884499374,-10.237984094315395
5.983716423649507,-1.0941776739432927,1.947969695055708,-0.47320666837920516,-0.20702532713178892,-10.17423856094427
5.972774646910074,-1.0962479272146106,1.943237628371916,-0.5749490539886478,-0.06551898970505636,-10.101768729123114
5.9618121676379285,-1.0969031171116612,1.9374881378320294,-0.675966741279879,0.0902440316175609,-10.020613479842982
5.950843136466812,-1.0960006767954855,1.9307284704192307,-0.7761728760783089,0.2598202520416715,-9.930875365936584
5.939883129698857,-1.0934024742750688,1.9229667416584475,-0.8754816297376747,0.4427436138984271,-9.83271874486265
5.928949104956106,-1.0889750381360845,1.9142119253610708,-0.9738088171863012,0.6385272053497317,-9.72636874144919
5.918059354574745,-1.0825897660825872,1.9044738371892078,-1.0710725046007932,0.8466645003562769,-9.612111173361809
5.907233456913919,-1.0741231210790243,1.8937631121432,-1.1671936163344112,1.066630083159086,-9.49029353469099
5.8964922257031285,-1.0634568202474335,1.8820911759798558,-1.2620965516813212,1.2978798668252947,-9.361327087093935
5.8858576575006545,-1.0504780215791805,1.8694702104630425,-1.3557098225522606,1.5398508655026995,-9.225690055189377
5.875352877284863,-1.0350795129241535,1.8559131122375199,-1.4479667231041544,1.791960632054192,-9.083931865701034
5.8650020821556215,-1.0171599066036114,1.8414334450064784,-1.5388060417611649,2.0536065245293904,-8.936678310973411
5.854830483089585,-0.9966238413583175,1.8260453845888667,-1.6281728248708989,2.324165014038371,-8.784637460180775
5.8448642446760015,-0.9733821912179338,1.8097636563401578,-1.7160191994727065,2.602991290393468,-8.628606089419344
5.8351304227638225,-0.9473522783139992,1.7926034643454307,-1.8023052603669,2.889419457671487,-8.469476358769164
5.825656899980682,-0.9184580837372843,1.7745804117417616,-1.8870000239545917,3.18276363698252,-8.308242434282297
5.816472319143309,-0.8866304473674591,1.7557104115022157,-1.9700824482974146,3.4823203058331256,-8.14600673952688
5.807606014669634,-0.8518072443091278,1.7360095870192416,-2.0515425156926836,3.787372200648548,-7.983985528250047
5.799087942226543,-0.8139335223026423,1.7154941618623147,-2.1313823709751842,4.097194090110093,-7.823513499721445
5.790948607003517,-0.7729615814015414,1.6941803381525629,-2.209617505972399,4.4110606917938755,-7.666047233241108
5.783218991189502,-0.7288509744836026,1.672084163092839,-2.2862779783048097,4.728256954196424,-7.513167298789337
5.775930481444666,-0.6815684049416384,1.6492213833097908,-2.361409651292703,5.0480908630048145,-7.366579006099443
5.7691147973952495,-0.6310874963115902,1.6256072867968638,-2.4350754413536975,5.369908858262801,-7.228111882281464
5.762803922432133,-0.5773884077289622,1.6012565323833268,-2.507356560176512,5.6931138731484685,-7.099718114801278
5.757030038354844,-0.5204572689974775,1.5761829667815617,-2.5783537413245248,6.017185931878587,-6.983470357185935
5.7518254656648695,-0.4602854096786916,1.5503994293683163,-2.648188444896384,6.341705181149551,-6.881559463528398
5.747222611568082,-0.3968683578671961,1.5239175449193525,-2.717004039531668,6.666377184328049,-6.796292888706381
5.74325392798941,-0.3302045860239156,1.4967475045240357,-2.7849669684187317,6.991060288057065,-6.730094658672375
5.739951882129171,-0.26029398314334495,1.4688978348398485,-2.8522679150054553,7.3157948841547595,-6.685507974892644
5.7373489422977375,-0.18713603430179737,1.440375155689794,-2.9191229947543818,7.640834441602875,-6.6652016666299065
5.7354775819547195,-0.11072768988576862,1.41118392574225,-2.9857750114206807,7.96667827837421,-6.671981844425737
5.734370305055862,-0.03106090710202651,1.3813261756280433,-3.052494829864938,8.294106183182109,-6.708810240849643
5.7340596959848416,0.051880154729794584,1.350801227329394,-3.1195829322734343,8.624215183030776,-6.7788308561399395
5.73457849753214,0.13812230656010233,1.3196053980066595,-3.1873712408348336,8.95845898121118,-6.885406664716558
5.735959720597741,0.22770689637221414,1.2877316855983112,-3.256225307481999,9.298690856499668,-7.032168292334645
5.738236789561463,0.32069380493721084,1.2551694325234912,-3.3265469904053457,9.64721110782045,-7.223076749471051
5.741443727610835,0.4171659160154153,1.2219039626194377,-3.3987777579000564,10.006820432702456,-7.462502504209475
5.745615386770989,0.5172341203424399,1.1879161850404372,-3.473402782942151,10.380880913736638,-7.755323382267784
5.750787727974414,0.6210429294798062,1.1531821572110157,-3.550956016764829,10.773386504607737,-8.107043948598392
5.756998157269212,0.7287767945258836,1.1176725970433674,-3.632026456250813,11.18904496652395,-8.523939055874667
5.764285925214471,0.8406672441911232,1.0813523324808594,-3.7172658468095596,11.633372945929446,-9.013223943714433
5.772692597656382,0.9570009736504176,1.0441796740127638,-3.807398086246704,12.112805014861806,-9.583252265306728
5.7822626073928864,1.0781290237990357,1.0061056931502967,-3.9032306088997712,12.634815492554146,-10.243741013142847
5.793043897630877,1.2044771787245772,0.9670733870612991,-4.0056680190312,13.208047787057282,-11.006016246028976
5.805088669418123,1.33655765659515,0.9270167068709871,-4.115728181491489,13.842438137920547,-11.883263480026429
5.818454245984075,1.4749820379743555,0.8858594250560723,-4.234560816291753,14.549305939662437,-12.890747410706382
5.833204066363819,1.6204750973709798,0.8435138168931547,-4.363468290398817,15.341355755975014,-14.045929693901993
5.849408817337529,1.77388865493073,0.7998791339891665,-4.503927587337837,16.232486757300105,-15.36834709990859
5.867147703886836,1.9362135225037311,0.7548398581157881,-4.657611058336923,17.23721585158717,-16.87899079123048
5.8865098391118735,2.1085856810196026,0.7082637475324189,-4.826400966249228,18.36935985589049,-18.598706976560905
5.90759569592207,2.2922792795785076,0.6599997378699267,-5.012388036014837,19.639335866615323,-20.544744258994946
5.930518488717855,2.488672638244661,0.6098758575097784,-5.217835478604786,21.04894060090592,-22.723880796631743
5.955405215100302,2.69916204425372,0.5576975027237305,-5.445074286571104,22.581636475826084,-25.119399949579147
5.982396835542839,2.924978409011981,0.5032467598580195,-5.696268286066895,24.18509367093263,-27.667381859119047
6.011646619632959,3.1668293457213075,0.4462840769973505,-5.9729421046580855,25.741143537776274,-30.215501296801705
6.043314913090172,3.42424078109907,0.38655465595076965,-6.275097117626102,27.017533267774905,-32.45632705464799
6.077557320901163,3.694416113776819,0.3238036847745086,-6.599660388172582,27.60014249410682,-33.83282204439539
6.114501482038931,3.970417538717887,0.2578070808927828,-6.937988608616536,26.824694435547002,-33.441752058914716
6.15420565742611,4.238664483073357,0.18842719480661746,-7.272406129205683,23.782156809668013,-30.037214619404704
6.196592302256843,4.4764860511700375,0.11570313351456063,-7.57277827539973,17.560702315000075,-22.36016854285417
6.241357162768544,4.652093074320038,0.03997535076056333,-7.796379960828272,7.886542913563867,-10.020239028972977
6.287878093511744,4.7309585034556765,-0.03798844884771939,-7.896582351118002,-4.071178650948834,5.394668309935407
6.335187678546301,4.690246716946188,-0.11695427235889941,-7.842635668018648,-15.69143834167781,20.310664806020643
6.382090145715763,4.53333233352941,-0.19538062903908587,-7.639529019958442,-24.34133650006117,31.158437793924655
6.427423469051057,4.289918968528799,-0.2717759192386703,-7.327944642019195,-28.99229618060715,36.587335251662815
6.470322658736345,3.999996006722727,-0.34505536565886225,-6.962071289502567,-30.293849110718252,37.5377100128972
6.510322618803572,3.6970575156155445,-0.4146760785538879,-6.586694189373595,-29.522473631812037,35.77867115581107
6.547293193959728,3.401832779297424,-0.4805430204476238,-6.228907477815484,-27.759634420884478,32.78533145947947
6.581311521752703,3.124236435088579,-0.5428320952257787,-5.901054163220689,-25.674486294890123,29.455346122825325
6.612553886103589,2.867491572139678,-0.6018426368579856,-5.606500701992435,-23.609825686002946,26.237488220248864
6.641228801824986,2.6313933152796487,-0.6579076438779099,-5.344125819789947,-21.71374058679362,23.316857734144122
6.667542734977783,2.4142559094117124,-0.7113489020758094,-5.110957242448506,-20.033649263112096,20.744871216241247
6.6916852940719,2.2139194167805916,-0.7624584745002945,-4.903508530286093,-18.569978133527947,18.512423950065607
6.713824488239705,2.028219635445312,-0.8114935598031554,-4.718384290785437,-17.30371885570535,16.586854399399094
6.734106684594159,1.8551824468882585,-0.8586774027110098,-4.552515746791446,-16.20965682679878,14.929302271646602
6.752658509063042,1.6930858786202707,-0.9042025601789242,-4.40322272407498,-15.262317915492675,13.502236057667552
6.769589367849244,1.5404626994653439,-0.948234787419674,-4.268200363498305,-14.438377360321455,12.272284097859988
6.784993994843898,1.3960789258621293,-0.9909167910546571,-4.1454775225197045,-13.71741595691806,11.210923250301255
6.798954784102519,1.2589047662929487,-1.0323715662798543,-4.033368290016692,-13.08194505370846,10.294255872567183
6.811543831765449,1.1280853157558641,-1.072705249180021,-3.93042573129102,-12.51714042228446,9.502451824822515
6.822824684923008,1.0029139115330195,-1.1120095064929312,-3.8354012130427946,-12.010488968397455,8.819115560262329
6.832853824038338,0.8828090218490449,-1.1503635186233592,-3.747210057440171,-11.551437973528342,8.230687605229688
6.841681914256829,0.7672946421137614,-1.1878356191977608,-3.6649031813878743,-11.131082107446014,7.725919532234058
6.849354860677966,0.6559838210393013,-1.2244846510116396,-3.5876439860655336,-10.741898193061592,7.295430108492266
6.855914698888359,0.5485648391086854,-1.2603610908722949,-3.514689684980611,-10.377526580428956,6.931337321032403
6.861400347279446,0.44478957330439584,-1.295507987722101,-3.445376311770287,-10.032593613194766,6.626956570517936
6.86584824301249,0.34446363717244816,-1.3299617508398038,-3.3791067460651076,-9.702568437575271,6.376554727903721
6.869292879384214,0.24743795279669545,-1.3637528183004548,-3.3153411987860704,-9.383647558656556,6.1751506875662585
6.871767258912181,0.1536014772101299,-1.3969062302883155,-3.253589691910408,-9.07266125486496,6.018354467054529
6.873303273684282,0.0628748646614803,-1.4294421272074196,-3.1934061472398625,-8.76699683212232,5.902238325179889
6.873932022330897,-0.024795103659742898,-1.4613761886798182,-3.1343837639880636,-8.464534566407885,5.823234607981378
6.873684071294299,-0.10944044932382174,-1.492720026319699,-3.0761514179082496,-8.16359298268029,5.778056030901245
6.872589666801061,-0.19107637915062464,-1.5234815404987814,-3.0183708575992374,-7.8628808313262155,5.763634870811054
6.870678903009555,-0.26970518746388683,-1.5536652490747738,-2.960734508891127,-7.561453750974882,5.777078104581708
6.867981851134916,-0.34531972497363567,-1.583272594163685,-2.90296372784531,-7.258674154458004,5.815635931934562
6.86452865388518,-0.4179064665182157,-1.612302231442138,-2.8448073685259643,-6.954173348380413,5.876681400674588
6.8603495892199975,-0.4874482000020198,-1.6407503051273977,-2.7860405545192184,-6.6478152995215085,5.957699050669131
6.855475107219977,-0.5539263529972349,-1.6686107106725898,-2.726463564012527,-6.339661794377634,6.05628064294475
6.849935843690004,-0.6173229709410113,-1.6958753463127152,-2.6659007575830795,-6.029939001753824,6.170126170011235
6.843762613980594,-0.6776223609585496,-1.722534353888546,-2.604199495882967,-5.719005642735472,6.297048474431158
6.836986390371009,-0.7348124173859043,-1.7485763488473758,-2.5412290111386553,-5.407323099209871,6.434979949365988
6.82963826619715,-0.788885648378003,-1.7739886389587622,-2.4768792116449956,-5.0954278550578,6.581979965271121
6.8217494097133695,-0.839839926928581,-1.7987574310752121,-2.4110594119922846,-4.783906669383174,6.7362418628421015
6.813351010444084,-0.8876789936224128,-1.822868025195135,-2.3436969933638636,-4.473374837313888,6.8960985702669895
6.80447422050786,-0.9324127419955517,-1.8463049951287736,-2.2747360076611938,-4.1644578115780755,7.060026135390315
6.795150093087904,-0.9740573201113324,-1.8690523552053855,-2.2041357463072906,-3.8577763490403374,7.226644700624815
6.785409519886791,-1.0126350836017357,-1.8910937126684584,-2.1318692993010426,-3.5539352227665852,7.394716679445861
6.775283169050773,-1.0481744358294016,-1.9124124056614689,-2.057922132506584,-3.2535154134411877,7.563142107547122
6.76480142469248,-1.0807095899638135,-1.9329916269865346,-1.9822907114311128,-2.9570695741119475,7.730951330206332
6.7539943287928415,-1.110280285704933,-1.9528145341008458,-1.9049811981290494,-2.6651204572834644,7.897295343373373
6.742891525935792,-1.1369314902777676,-1.9718643460821363,-1.8260082446953156,-2.3781619089574906,8.061434225388652
6.731522211033014,-1.1607131093673426,-1.9901244285290896,-1.7453939024414291,-2.0966619735560017,8.222724177717454
6.719915079939341,-1.1816797291029026,-2.0075783675535037,-1.6631666606642546,-1.821067617756782,8.380603737736507
6.7080982826483115,-1.1998904052804704,-2.0242100341601463,-1.5793606232868895,-1.5518105692463633,8.534579737492924
6.696099378595507,-1.215408510972934,-2.040003640393015,-1.4940148259119603,-1.289313775970179,8.684213563919187
6.6839452934857775,-1.2283016487326357,-2.054943788652135,-1.4071726902727684,-1.0339980194370522,8.829108233464305
6.671662276998451,-1.2386416289270061,-2.0690155155548626,-1.3188816079381254,-0.7862882583728683,8.968896732967051
6.659275860709181,-1.2465045115107347,-2.082204331634244,-1.2291926406084548,-0.5466193328101698,9.10323200414278
6.646810815594074,-1.2519707048388364,-2.0944962580403286,-1.138160320567027,-0.3154407200756946,9.231778866080518
6.634291108545686,-1.2551251120395934,-2.105877861245999,-1.045842531906222,-0.09322010003011853,9.35420808280216
6.621739857425291,-1.2560573130398947,-2.116336286565061,-0.9523004510782003,0.11955444524874555,9.470192694674193
6.609179284294892,-1.2548617685874073,-2.125859291075843,-0.8575985241314583,0.32237370445768326,9.579406646092888
6.596630666609018,-1.2516380315428304,-2.134435276317158,-0.7618044576705294,0.5147081239748575,9.68152565965806
6.584114286293589,-1.2464909503030819,-2.1420533208938632,-0.6649892010739488,0.6960100871994578,9.776230230879724
6.571649376790559,-1.2395308494310873,-2.1487032129046026,-0.5672268987651515,0.865717606397796,9.863210548929208
6.559254068296248,-1.2308736733671093,-2.154375481892254,-0.46859479327585946,1.0232592939651337,9.942173089492702
6.5469453315625765,-1.220641080427458,-2.159061429825013,-0.36917306238093245,1.1680604330708573,10.012848576748715
6.5347389207583015,-1.2089604760967494,-2.162753160448822,-0.2690445766134453,1.2995499278604323,10.075000974121384
6.522649315997334,-1.195964976818145,-2.1654436062149567,-0.16829456687223143,1.4171678816312352,10.128437138875956
6.510689666229153,-1.1817932980018326,-2.167126551883679,-0.06701019548347187,1.5203735285023683,10.173016764728922
6.498871733249135,-1.166589562716809,-2.1677966538385136,0.034719972163817364,1.6086532307348926,10.208662240028126
6.487205837621967,-1.1505030304094601,-2.1674494541168756,0.1368065945640986,1.6815282504686966,10.235368066866299
6.475700807317872,-1.1336877479047731,-2.1660813881712344,0.2391602752327616,1.7385620113407259,10.253209518329193
6.464363929838824,-1.1163021277913658,-2.163689785418907,0.3416923704160535,1.779366581943794,10.262350255933681
6.453200908560911,-1.0985084619719279,-2.1602728617147466,0.4443158729753903,1.8036081386286646,10.263048685530208
6.442215823941192,-1.0804723805856413,-2.1558297029849927,0.5469463598306924,1.8110111985195543,10.255662895267271
6.431411100135335,-1.0623622686004457,-2.1503602393866856,0.6495029887833651,1.8013614531376767,10.24065409087984
6.4207874774493305,-1.044348654069069,-2.143865209498852,0.7519095296921635,1.77450707666673,10.218588518453926
6.41034399090864,-1.0266035833024016,-2.13634611420193,0.8540954148767028,1.7303584283445081,10.190137939677031
6.4000779550756155,-1.0092999990189566,-2.127805160053163,0.9559967942734732,1.6688861133027157,10.156078796235592
6.389984955085426,-0.9926111378859295,-2.1182451921104284,1.0575575822358292,1.590117408010156,10.117290265610528
6.380058843706567,-0.9767099638058279,-2.10766961628807,1.1587304848919344,1.4941310930988152,10.074751467730074
6.370291744068509,-0.9617686528748397,-2.0960823114391505,1.2594779995692351,1.3810507658849371,10.029538129150408
6.360674057539761,-0.9479581452159903,-2.083487531443458,1.3597733808607393,1.251036725878376,9.9828190478527
6.351194476087601,-0.9354477779572066,-2.0698897976348505,1.4596015713392663,1.1042765380329778,9.935852727442638
6.3418399983080285,-0.9244050125768768,-2.0552937819214576,1.5589600986136927,0.9409743799608856,9.889984565429106
6.332595948182259,-0.9149952687772679,-2.039704180935321,1.6578599442679838,0.7613392708264342,9.846644988015926
6.323445995494486,-0.9073818760690036,-2.023125581492641,1.756326394148143,0.5655722615811272,9.807348925758447
6.314372176733796,-0.9017261534531923,-2.0055623175511594,1.8543998834057276,0.3538526393624757,9.773697023253618
6.305354915199264,-0.8981876270595676,-1.9870183187171022,1.9521368536382637,0.1263231642628161,9.747378974735936
6.296373038928668,-0.8969243954169394,-1.9674969501807196,2.049610643385623,-0.11692568455277905,9.730179379062516
6.287403794974499,-0.8980936522624672,-1.9470008437468633,2.146912437176248,-0.37587252294835977,9.723986514921446
6.278422858451874,-0.9018523774919508,-1.925531719375101,2.2441523023254626,-0.6505830561492401,9.73080445258012
6.269404334676954,-0.9083582080534433,-1.9030901963518463,2.341460346851264,-0.941229425965393,9.752768943750098
