th1 (rad),w1 (rad/s),th2 (rad),w2 (rad/s)
4.3852252563277725,2.4716075765000376,2.118123258058243,1.0466656303005417
4.409941332092773,2.568286011061138,2.1285899143612483,1.0718580474274135
4.435624192203384,2.6678530389436466,2.1393084948355225,1.103653826894625
4.4623027225928205,2.770411083946532,2.1503450331044687,1.142368150418272
4.490006833432286,2.876060331083416,2.1617687146086513,1.1883177830779086
4.51876743674312,2.984895921057118,2.1736518924394304,1.2418177799601737
4.548616395953691,3.0970046867639476,2.186070070239032,1.303177502567986
4.579586442821331,3.212461414435895,2.1991018452647118,1.3726958868918993
4.61171105696569,3.3313246264023006,2.212828804133631,1.4506559228403275
4.645024303229713,3.4536319018855095,2.2273353633620343,1.53731833095078
4.679560622248568,3.579394777173311,2.242708546671542,1.6329144580967019
4.715354570020301,3.7085932970054274,2.259037691252509,1.7376384599467576
4.752440502990355,3.8411703245993483,2.2764140758519766,1.8516388941521205
4.790852206236349,3.9770257572204746,2.294930464793498,1.975009913469568
4.830622463808553,4.116010835478651,2.3146805639281935,2.107782319692365
4.871782572163339,4.257922774523292,2.335758387125117,2.2499148130961126
4.914361799908573,4.402499979957261,2.358257535256078,2.401285842063932
4.958386799708145,4.549418135759154,2.3822703936767176,2.5616865159357727
5.003880981065737,4.698287460578575,2.4078872588360754,2.730815082053992
5.050863855671523,4.8486514174763125,2.435195409656615,2.9082734762545166
5.099350369846285,4.999987126598189,2.4642781444191604,3.0935664263861136
5.149350241112267,5.151707668414617,2.4952138086830216,3.2861035149164923
5.200867317796413,5.303166377796841,2.5280748438321865,3.4852044872810626
5.253898981574381,5.453663120389182,2.562926888704997,3.6901079304498334
5.308435612778273,5.602452419868648,2.5998279680094956,3.899983250069073
5.364460136976959,5.748753177938689,2.638827800510186,4.113945658758134
5.421947668756346,5.891759610069962,2.6799672570977675,4.33107367109449
5.480865264857045,6.030652920819088,2.7232779938087126,4.550428402710353
5.541171794065236,6.1646131728897915,2.768782277835816,4.771073810908547
5.602817925794134,6.292830770313366,2.8164930159449013,4.99209690747187
5.665746233497267,6.4145169800525474,2.86641398501962,5.212626929773989
5.729891403297793,6.528912955108635,2.91854025431736,5.4318524752561546
5.795180532848879,6.635296789017533,2.972858779069922,5.649035680799035
5.861533500739054,6.7329882171992645,3.0293491358779123,5.86352265061657
5.928863382911047,6.821350675234202,3.087984362384078,6.074749488796535
5.997076889663389,6.899790519533692,3.1487318572720433,6.282243459889305
6.066074794858726,6.967753306963251,3.2115542918709363,6.485618969852288
6.135752327928358,7.024717115912722,3.2764104815694592,6.684568221810962
6.205999499087485,7.070182975914811,3.343256163787569,6.87884655436751
6.276701328846634,7.103662564533437,3.4120446293312443,7.068252619325744
6.347737954491968,7.1246634410974305,3.482727155524502,7.252603712219554
6.4189845889029415,7.132672232006573,3.5552531926466973,7.431706750466784
6.4903113112230075,7.127136378208294,3.629570260151365,7.605325622532231
6.5615826750050905,7.107445317648894,3.7056235163766873,7.773145931899131
6.632657128181579,7.072912315543223,3.7833549756956786,7.934738555674581
6.703386251337012,7.022758575515075,3.8627023612524245,8.08952394647146
6.773613837092163,6.956101750818632,3.943597600717139,8.236739729765189
6.843174854600349,6.871951486277494,4.025964998014791,8.375414861552505
6.911894369463124,6.76921507952192,4.109719146630316,8.504354343760518
6.979586520258343,6.646716627185327,4.194762690067921,8.622139118146576
7.046053686530197,6.503232937990197,4.280984081249387,8.72714607180843
7.111086015910098,6.337548829136152,4.368255541967471,8.817592818064963
7.17446150420146,6.14853295100694,4.456431470148121,8.891610757360105
7.235946833711529,5.935232853704701,4.545347577721722,8.94734760350191
7.295299162248576,5.6969846392948025,4.634821053756741,8.983096969543261
7.3522690086415246,5.433528551299932,4.724652023452173,8.997447942476022
7.406604294154524,5.145117924177078,4.8146265028769335,8.989442469285832
7.4580554733962945,4.8326060737029195,4.904520927569791,8.958723915911614
7.5063815341333235,4.49749510853619,4.994108166728908,8.905657715478885
7.551356485218686,4.141933188414247,5.083164743883697,8.831405856516687
7.592775817102829,3.7686526520100023,5.171478802448863,8.737941713047213
7.630462343622929,3.3808498833461016,5.258858219579335,8.627999960583153
7.66427084245639,2.9820170050940127,5.345138219185166,8.504966469073757
7.6940910125073305,2.5757432122739266,5.430187883875904,8.372722757399353
7.7198484446300695,2.1655077985005042,5.513915111449897,8.235466479151054
7.741503522615075,1.7544866823372818,5.5962697762414075,8.097531965604107
7.759048389438448,1.3453898377004938,5.677245095897448,7.963232889318474
7.772502287815453,0.9403399016714984,5.756877424790633,7.836743717741771
7.781905686832167,0.5407943054435678,5.835244861968051,7.722029637868053
7.787313629886603,0.14750628932941262,5.912465158346731,7.622827936348856
7.788788692779897,-0.23948479718260307,5.98869343771022,7.542678791035106
7.786393844808071,-0.6208461383517558,6.064120225620571,7.485000693369728
7.780185383424554,-0.9979398534296624,6.138970232554269,7.453205194573614
7.770205984890257,-1.3728190616363176,6.213502284500005,7.4508467497407915
7.756477794273894,-1.7482415216445761,6.288010751997413,7.48180512441589
7.738995379057449,-2.1277075232979645,6.362828803241571,7.550498589411105
7.717718303824469,-2.5155228589882084,6.438333789135682,7.66212317673924
7.692563075234587,-2.916875278530233,6.514955020903074,7.822900705773596
7.663394322449285,-3.3378842141496627,6.5931840279608105,8.040282704885499
7.630015480307788,-3.7855164546860856,6.673586855009665,8.322967869747957
7.592160315760927,-4.267104993163604,6.756816533707145,8.680377844058748
7.549489265829291,-4.788861136899136,6.843620312147732,9.12075474565551
7.5016006544603,-5.352059448544802,6.934827859604288,9.646049971800938
7.448080059974852,-5.944432176302765,7.031288359322297,10.240157883607074
7.388635738211824,-6.523895080302633,7.133689938158368,10.84640138282236
7.3233967874087975,-6.998169838688814,7.242153951986592,11.33902440122353
7.253415089021909,-7.229694286740946,7.355544195998827,11.52930684956929
7.1811181461545,-7.118396230419947,7.47083726449452,11.279223745001293
7.1099341838503,-6.715293392598064,7.583629501944533,10.657266094403056
7.04278124992432,-6.184695085399327,7.690202162888564,9.884938208416447
6.980934299070327,-5.660045727465565,7.789051544972729,9.139066855800124
6.924333841795671,-5.196723616091598,7.88044221353073,8.489565047202284
6.872366605634755,-4.80371798176085,7.965337864002753,7.944325652447579
6.8243294258171465,-4.473539767728697,8.044781120527228,7.490188917734496
6.77959402813986,-4.195393494389909,8.119683009704573,7.1105326935805175
6.737640093195961,-3.9593952065066507,8.190788336640379,6.790657050597902
6.698046141130894,-3.7574871175427345,8.258694907146358,6.51877942601853
6.660471269955467,-3.583343440161654,8.323882701406543,6.285749394733852
6.624637835553851,-3.432045501101799,8.386740195353882,6.084510561518865
6.590317380542833,-3.299760399871215,8.44758530096907,5.9096048103853125
6.55731977654412,-3.1834791734531156,8.506681349072924,5.756780335224451
6.525484984809589,-3.080816620448669,8.564249152425168,5.622697614791657
6.494676818605102,-2.989861583159776,8.620476128573085,5.504712885821609
6.464778202773505,-2.9090654759944283,8.675523257431301,5.400719321205934
6.4356875480135605,-2.837159030624246,8.729530450643361,5.309030183718648
6.407315957707318,-2.77308978069654,8.782620752480549,5.228292210813066
6.379585059900353,-2.7159749874956973,8.834903674588679,5.157420574744654
6.352425310025396,-2.665066412757433,8.886477880336125,5.095548941304848
6.3257746458978215,-2.6197246349247196,8.937433369749174,5.041989622101453
6.299577399548574,-2.5794015321747095,8.98785326597019,4.996199837563727
6.273783384226827,-2.543630107632416,9.037815264345827,4.957750969478273
6.248347083150503,-2.5120209317182787,9.08739277404061,4.926298693196196
6.223226873833321,-2.4842640359073886,9.136655760972573,4.901553307381676
6.198384233474247,-2.460134140589244,9.18567129404639,4.883251485108595
6.173782892068354,-2.4394959477392333,9.234503808897475,4.871132695201915
6.149387932590962,-2.4223055366629014,9.283215135849494,4.864924821571135
6.125164877224333,-2.4086044562182622,9.331864384065206,4.8643429838894985
6.10107883266215,-2.398505273433415,9.380507813904101,4.869102759673623
6.077093779927816,-2.3921705214858147,9.429198841500837,4.878944774458531
6.053172074712958,-2.3897897213721024,9.477988289245422,4.893664013214143
6.029274177499237,-2.391559992148332,9.526924929377564,4.913136204537815
6.005358577577753,-2.3976743546307695,9.576056291422942,4.937335720483526
5.9813818340314455,-2.4083191194906948,9.625429648627778,4.966343291465637
5.957298642836538,-2.423679205988939,9.675093081542434,5.0003454197051775
5.933061850776649,-2.443948862835653,9.725096535739485,5.039629325303024
5.908622362148292,-2.4693451842933962,9.775492828992515,5.084577434812826
5.883928910305358,-2.5001225600372265,9.826338603340643,5.135664504190506
5.858927684704986,-2.5365871854907924,9.877695248382548,5.193459274067686
5.8335618128500775,-2.5791116092374353,9.929629841123225,5.258631617531926
5.807770696757703,-2.6281498745686482,9.982216157298543,5.331965642976177
5.781489198012016,-2.684254154016652,10.035535813728305,5.414379119174148
5.7546466564718495,-2.7480939679497425,10.089679604920047,5.50694977829155
5.727165716792352,-2.820479202495759,10.144749102702962,5.610949409098795
5.698960924767395,-2.9023882420475644,10.20085859679395,5.72788708519742
5.669937042346919,-2.9950025980135715,10.258137467645923,5.859563292917418
5.639987016366783,-3.09974936048046,10.316733100575098,6.008136990510477
5.608989522761979,-3.2183523941985643,10.376814470480202,6.176207447042998
5.576805998819993,-3.352891929349473,10.438576544950632,6.366911409046595
5.543277079526498,-3.5058689373712575,10.502245659041098,6.5840322405739515
5.508218390152786,-3.6802630049976774,10.568085981446837,6.832107911355927
5.4714157601028095,-3.879555108525775,10.636407060560396,7.116501956693206
5.432620209017552,-4.107648661934019,10.707572080127328,7.443350542026296
5.391543722398212,-4.3685406060416625,10.78200558554759,7.819187789296624
5.3478583163377955,-4.6654253444098615,10.860197463440556,8.24981923439946
5.301204062893697,-4.998589878701657,10.94269565578455,8.737562940483386
5.25121816410668,-5.360944166469774,11.030071285189385,9.275255752831828
5.1976087224419825,-5.729669031696362,11.122823842717702,9.8348920109559
5.140312032125019,-6.054138600267891,11.221172762827262,10.351025670895638
5.0797706461223395,-6.248965425310089,11.324683019536218,10.711047459579694
5.017280991869239,-6.217592065602315,11.431793494132016,10.787379258514491
4.955105071213215,-5.9212015080162255,11.539667286717162,10.531740524718133
4.895893056133053,-5.426022526269158,11.644984691964343,10.038656102622351
4.841632830870362,-4.8486813783335885,11.745371252990566,9.468640314841577
4.793146017087025,-4.274320341833335,11.840057656138981,8.936378470538216
4.750402813668692,-3.738626465764594,11.929421440844363,8.488192426012795
4.713016549011046,-3.247716961475866,12.01430336510449,8.130598440825743
4.680539379396287,-2.7960861575023737,12.095609349512747,7.855123482684936
4.652578517821263,-2.3752746368327067,12.174160584339596,7.6499765045345915
4.628825771452936,-1.977065845353759,12.250660349384942,7.504163796639232
4.609055112999399,-1.5943953171073377,12.325701987351335,7.408512579661936
4.593111159828325,-1.2214519510892288,12.399787113147955,7.355632232058993
4.580896640317433,-0.8535447692141358,12.473343435468545,7.339581648348254
4.572361192625292,-0.48693657155782094,12.546739251952028,7.355503336712351
4.567491826909714,-0.11870678552685093,12.62029428531915,7.399299701228978
4.566304759054445,0.25334350047726656,12.694287282331441,7.467364567569717
4.568838194059217,0.630747808991243,12.768960928007138,7.5563650387493375
4.575145672149129,1.014400426208304,12.844524578394632,7.663066201610236
4.585289676411212,1.4045625247313058,12.921155240410734,7.78419354735785
4.599335301658525,1.8008589801857209,12.998997175884313,7.916331428268183
4.617343891460382,2.2022770684989834,13.078160490166994,8.055858981914103
4.639366662145372,2.607178410658913,13.158719079986135,8.198926977881436
4.665438446251962,3.013334959127259,13.24070834976495,8.341479441942589
4.695571795843234,3.417997918863646,13.324123144184375,8.479322265977858
4.729751775031871,3.8180048150584383,13.408916366844153,8.608237144535071
4.7679318231824555,4.209924386575551,13.494998738289503,8.724133389631833
4.810031067048211,4.590232128035014,13.582240072185822,8.82322341870678
4.855933388328561,4.95550233218514,13.67047230637289,8.902201586990024
4.9054884116504125,5.3025970933657565,13.75949432224279,8.958402472368126
4.95851438258407,5.628830616263797,13.849078346966472,8.989915355588202
5.014802688746708,5.932089369424096,13.938977500522354,8.995637109531401
5.074123582440949,6.210894980995239,14.028933871617667,8.97525520271618
5.136232532250902,6.46440585657367,14.11868642364483,8.929163870691267
5.200876590816638,6.692363023245939,14.207978062351742,8.858326910921372
5.2678002210490975,6.894993358818422,14.296561331460955,8.764107577166673
5.336750154637282,7.072887606364546,14.384202407232621,8.648088446102829
5.4074790307009275,7.226871033869179,14.47068329169365,8.511902120249442
5.47974774103962,7.3578819823885855,14.555802312896144,8.357088561357918
5.553326560863505,7.466869163019955,14.639373198509723,8.184988512604898
5.6279952524937045,7.554713774596211,14.721223083635772,7.99667645908493
5.703542390239667,7.622178338103363,14.801189848226622,7.792931899592534
5.7797641736207,7.669881104201206,14.879119167222548,7.574244709402587
5.856462984662712,7.698293069631975,14.954861614316574,7.340848912503185
5.933445915359032,7.7077538316384295,15.028270103441606,7.092778829992782
6.010523453675416,7.698502385729412,15.099197891741534,6.829941838740537
6.087508477532711,7.670719194301126,15.16749731012894,6.5522024339422655
6.164215669475722,7.624576146725512,15.233019334468363,6.259472638711009
6.240461430942977,7.560291210006759,15.295614060855472,5.951803881330042
6.3160643430430445,7.478184542339832,15.355132099668772,5.62947523851992
6.390846188466443,7.3787326112174485,15.411426852053971,5.293072515387349
6.464633514578618,7.262616510727933,15.464357577207844,4.943552200764333
6.5372596796858975,7.130760372321747,15.513793099215487,4.582284183072843
6.608567283409115,6.984355724317964,15.559615941046216,4.211067554625712
6.678410840652294,6.824868100513802,15.601726616592472,3.8321151498475308
6.746659521657432,6.654023293391129,15.640047768090948,3.448004795648409
6.813199754591343,6.473772427442641,15.674527816047432,3.0615985040259743
6.8779374788657694,6.286237338729513,15.705143801087692,2.6759346185748574
6.940799852253065,6.093640234935711,15.73190314727344,2.294101584671969
7.001736254602422,5.89822378665022,15.75484416312016,1.9191047679499849
7.060718492468924,5.70216916974346,15.77403521079966,1.5537389124525074
7.117740184166358,5.507519795833171,15.789572599924185,1.2004780493260698
7.17281538212469,5.31611746116612,15.801577380417445,0.8613920481192503
7.225976556736351,5.129555646066783,15.810191300898637,0.5380951080087839
7.277272113197019,4.949152167967017,15.815572251978725,0.23172715718524933
7.326763634876689,4.775940870073883,15.817889523550578,-0.05703477381148997
7.374523043577428,4.610679973638473,15.817319175812463,-0.3279409732183914
7.4206298433138125,4.453873405055252,15.81403976608028,-0.5811165074183345
7.465168577364365,4.305800884180129,15.808228601006096,-0.8169991372173689
7.508226586206166,4.166552708176228,15.800058609633922,-1.0362742882430527
7.549892113287928,4.036065771607224,15.789695866751492,-1.2398122628916675
7.590252771004001,3.914158197409826,15.777297744122576,-1.4286112710073138
7.629394352978099,3.800560822012113,15.763011631412503,-1.603748338111582
7.66739996119822,3.69494455150783,15.746974148031388,-1.766338896331354
7.704349406713298,3.5969432181647654,15.729310759068074,-1.9175049404330071
7.740318838894946,3.5061720011205066,15.710135709663744,-2.0583510299683017
7.775380558906151,3.422241747075366,15.68955219936406,-2.189947086127411
7.809602976376905,3.3447696667335696,15.667652728502786,-2.313316800073554
7.843050673044241,3.273386924955944,15.64451956050205,-2.4294304712787866
7.8757845422938,3.20774361805552,15.620225255789263,-2.539201173067324
7.907861978474355,3.1475115648818237,15.59483324405859,-2.643483254905169
7.939337094123173,3.092385246598257,15.568398411509538,-2.7430723062972793
7.970260946589156,3.0420811241507204,15.540967688446566,-2.8387058051002
8.000681757830664,2.9963354479442055,15.512580630395563,-2.9310637408470273
8.030645112310106,2.9549005531053907,15.483269992987093,-3.0207685338416823
8.06019411784116,2.917539505829516,15.453062307648677,-3.1083835598004192
8.089369512899456,2.8840188315986985,15.421978472050673,-3.194409538137912
8.118209701215443,2.8540989171869846,15.390034376669295,-3.279277955872026
8.146750690387313,2.827521545031421,15.357241597110574,-3.3633405952427404
8.175025905837627,2.8039939142366412,15.323608191158147,-3.446854147189352
8.203065844979994,2.783168474858545,15.289139649686254,-3.5299588934318864
8.23089752972858,2.764618037625589,15.253840060751935,-3.612650648705743
8.258543710104835,2.7478060623051346,15.217713554264877,-3.694745770284511
8.286021770727887,2.7320529849681927,15.180766096562031,-3.7758403569637
8.313342300577569,2.7165011826865504,15.143007692992395,-3.855267143151219
8.340507312404434,2.7000839337397218,15.104455021560883,-3.9320573808063473
8.36750815174183,2.6815075166207643,15.065134447752818,-4.004920202924906
8.394323226908039,2.659259774001778,15.02508524572357,-4.072257712121339
8.420915824648057,2.6316612611731176,14.984362668602357,-4.132237865447136
8.447232437259789,2.5969732671040093,14.943040289947886,-4.18294465513919
8.473202169930829,2.553566637870927,14.901210843396495,-4.222610722674111
8.49873783630954,2.500134650527751,14.858984736169754,-4.249908945050172
8.523739182814817,2.4359068046060774,14.816485646719253,-4.264243189682998
8.548098250860876,2.3608015675242653,14.773843214822422,-4.265952792919969
8.571706266536118,2.275461212946024,14.731183686893223,-4.256353045864995
8.59446087866558,2.1811469267552726,14.688620156434572,-4.237583111622482
8.616272347933132,2.0795226774105298,14.646244325318348,-4.2123026284734335
8.637067574707237,1.972393860298322,14.604121299033613,-4.183329598301044
8.65679151331022,1.8614716135189724,14.562288003050602,-4.1533177886934505
8.675406229445409,1.7482091050290332,14.520754825163667,-4.1245367183237995
8.6928883204957,1.633721590674673,14.479509457980429,-4.09876896489811
8.709225536402446,1.5187760568956434,14.438521768331448,-4.077303633640879
8.724413296971402,1.4038255294260815,14.397748731995039,-4.060990438688596
8.738451552265664,1.2890643986513766,14.357138827608154,-4.050321157286599
8.751342196252178,1.1744878969071593,14.316635616035288,-4.045515031638347
8.76308707522125,1.0599461827542689,14.276180465718905,-4.046595063467245
8.773686537048793,0.9451890402099994,14.235714515084233,-4.053449917697903
8.783138427450893,0.8299005953834625,14.195180015907253,-4.065880841145161
8.791437433404727,0.7137251462634137,14.154521207495801,-4.083635293383372
8.798574684867361,0.596285815627947,14.113684854561967,-4.106429773330128
8.80453754302364,0.47719777296354804,14.072620556828666,-4.133964316012366
8.809309520753276,0.3560775523120806,14.031280913668542,-4.165930783432696
8.812870296276397,0.23254969873174236,13.989621605834216,-4.202016631194675
