th1 (rad),w1 (rad/s),th2 (rad),w2 (rad/s),a1 (rad/s^2),a2 (rad/s^2)
0.6889020037524387,3.131194963376303,0.6687074419431,1.3013575411601268,-6.614475491393412,0.7353796482839335
0.7202139533862018,3.065050208462369,0.6817210173547013,1.3087113376429662,-7.172943992441588,1.3538873825747841
0.7508644554708255,2.993320768537953,0.6948081307311309,1.322250211468714,-7.683082889789666,1.8986816656910745
0.780797663156205,2.9164899396400563,0.708030632845818,1.3412370281256247,-8.143440519071117,2.36697174687196
0.8099625625526056,2.8350555344493453,0.7214430031270742,1.3649067455943444,-8.553881991850993,2.758347022376534
0.8383131178970991,2.7495167145308352,0.7350920705830176,1.3924902158181098,-8.915418881683582,3.0744924222535515
0.8658082850424074,2.6603625257139996,0.7490169727411987,1.4232351400406453,-9.229994329350586,3.318824543901116
0.8924119102995474,2.568062582420494,0.7632493241416052,1.4564233854796564,-9.500250723392082,3.496092610812577
0.9180925361237523,2.4730600751865732,0.7778135579964017,1.4913843115877823,-9.72930281660234,3.611981987753422
0.942823136875618,2.37576704702055,0.7927274011122796,1.5275041314653166,-9.920532862664157,3.6727484077081924
0.9665808073458235,2.2765617183939084,0.8080024424269328,1.5642316155423985,-10.077417682565438,3.684900684656506
0.9893464245297626,2.175787541568254,0.8236447585823568,1.6010806223889635,-10.203391644408054,3.6549402872709718
1.0111042999454452,2.0737536251241733,0.8396555648062464,1.6376300252616733,-10.30174498467818,3.589158737430607
1.0318418361966868,1.9707361752773915,0.8560318650588631,1.6735216126359793,-10.375553881719837,3.4934886901430446
1.0515491979494607,1.866980636460193,0.8727670811852228,1.7084564995374099,-10.427637071326526,3.373401584427026
1.0702190043140627,1.7627042657469278,0.889851646180597,1.7421905153816801,-10.460533269906298,3.233843508499076
1.0878460469715319,1.6580989330478648,0.9072735513344138,1.7745289504666708,-10.476493902397467,3.0792009010590387
1.1044270363020106,1.5533339940238902,0.9250188408390805,1.8053209594772612,-10.477486313558051,2.9132884550568794
1.1199603762422494,1.4485591308883097,0.9430720504338531,1.83445384402783,-10.465203533839885,2.73935273579138
1.1344459675511325,1.3439070955499108,0.9614165888741314,1.8618473713857437,-10.441077610457684,2.5600863130841773
1.1478850385066315,1.239496319445334,0.9800350625879888,1.8874482345165855,-10.406294401151719,2.37764847511036
1.1602800017010848,1.1354333754338166,0.9989095449331546,1.911224719267689,-10.361808512576605,2.1936897513303735
1.171634335455423,1.0318152903080506,1.0180217921258314,1.9331616167809926,-10.308357730428426,2.0093784872835654
1.1819524883585035,0.9287317130037663,1.0373534082936413,1.9532554016538284,-10.246476836658585,1.8254285790138536
1.1912398054885411,0.8262669446371804,1.0568859623101796,1.9715096874439668,-10.176511150955346,1.642128198422645
1.199502474934913,0.724501833127627,1.0766010591846193,1.9879309694281933,-10.098630480004465,1.459369934358238
1.2067474932661892,0.6235155283275823,1.0964803688789013,2.0025246687717755,-10.01284441482948,1.276683243654434
1.212982648549465,0.5233870841792875,1.116505615566619,2.0152915012083197,-9.919020081564103,1.0932704467969256
1.218216519391258,0.42419688336364647,1.1366585305787023,2.026224205676289,-9.816903512658643,0.9080476964812978
1.2224584882248943,0.32602784823706005,1.1569207726354651,2.035304682641102,-9.706145743326443,0.7196923634846385
1.2257187667072649,0.2289663908037956,1.1772738194618761,2.0425016062759482,-9.586334525837549,0.5266980837863755
1.2280084306153027,0.13310304554542013,1.1976988355246356,2.047768587113812,-9.457032166098635,0.32743825386288894
1.2293394610707569,0.03853272388443378,1.2181765213957738,2.051042969652441,-9.31781940601055,0.12023801947847239
1.2297247883096012,-0.054645470175671715,1.2386869510922982,2.0522453498472255,-9.168344505303866,-0.09654622277430382
1.2291783336078446,-0.1463289152287104,1.2592094045907705,2.0512798876194824,-9.008375755228593,-0.32444205600293496
1.2277150444555576,-0.2364126727809963,1.2797222034669653,2.048035467059453,-8.837854664860028,-0.5647746440701028
1.2253509177277475,-0.3247912194295966,1.3002025581375598,2.042387720618752,-8.656946128075548,-0.8185836876296145
1.2221030055334516,-0.4113606807103521,1.3206264353437474,2.034201883742456,-8.466081175048334,-1.0865497811382758
1.2179893987263481,-0.49602149246083543,1.340968454181172,2.0233363859310733,-8.265987623459447,-1.3689367282567602
1.2130291838017397,-0.5786813686954299,1.3612018180404826,2.0096470186485056,-8.057704237704117,-1.665556092670793
1.2072423701147854,-0.6592584110724711,1.3812982882269675,1.9929914577217978,-7.842574976309362,-1.9757590388118407
1.2006497860040608,-0.7376841608355647,1.4012282028041856,1.9732338673336793,-7.622221541178881,-2.29845835815983
1.193272944395705,-0.8139063762473535,1.4209605414775224,1.950249283752081,-7.398494578523591,-2.6321806838078734
1.1851338806332314,-0.8878913220325895,1.440463034315043,1.9239274769140022,-7.173406227894989,-2.9751456602280006
1.1762549674129055,-0.9596253843115393,1.4597023090841832,1.8941760203117222,-6.949048893921116,-3.325365774532249
1.1666587135697901,-1.0291158732507504,1.4786440692873004,1.8609223625663998,-6.727506741169466,-3.680758204044772
1.1563675548372827,-1.096390940662445,1.4972532929129645,1.824114780525952,-6.51076718933469,-4.039258814826835
1.1454036454306582,-1.161498612555792,1.515494440718224,1.7837221923776838,-6.300639479639364,-4.3989285608390265
1.1337886593051003,-1.2245050073521857,1.5333316626420008,1.7397329067692935,-6.098686255517883,-4.758043920320919
1.1215436092315785,-1.2854918699073645,1.5507289917096938,1.6921524675660844,-5.906172288136281,-5.115165358233331
1.1086886905325049,-1.3445535927887273,1.5676505163853547,1.641000813983751,-5.724032326502418,-5.469180658853638
1.0952431546046175,-1.4017939160537516,1.5840605245251922,1.5863090073952146,-5.5528579311469475,-5.819322831586103
1.08122521544408,-1.457322495365221,1.5999236145991445,1.5281157790793536,-5.39290136816759,-6.165164731857215
1.0666519904904277,-1.511251509046897,1.615204772389938,1.4664641317607814,-5.244093392208819,-6.506594283824054
1.0515394753999587,-1.5636924429689851,1.629869413707546,1.4013981889225409,-5.106071098814234,-6.843775142951526
1.0359025509702688,-1.6147531539571274,1.6438833955967713,1.3329604374930255,-4.978211932444708,-7.177097847629114
1.0197550194306975,-1.6645352732815744,1.6572129999717016,1.2611894590167343,-4.859670275298276,-7.507126136646708
1.0031096666978818,-1.7131319760345571,1.669824894561869,1.1861181976502673,-4.749413660601293,-7.834542356367561
0.9859783469375363,-1.76062611264057,1.6816860765383717,1.1077727740865917,-4.646256402861854,-8.160094947623518
0.9683720858111305,-1.8070886766691885,1.6927638042792377,1.0261718246103566,-4.548889194828468,-8.484550052038806
0.9503011990444387,-1.8525775686174732,1.7030255225253412,0.9413263240899685,-4.455903902616682,-8.808648424987366
0.9317754233582639,-1.89713660764364,1.7124387857662409,0.8532398398400949,-4.365813350363826,-9.133068151812234
0.9128040572818276,-1.9407947411472783,1.7209711841646418,0.7619091583219726,-4.277066308544907,-9.458393157779081
0.8933961098703548,-1.9835654042327273,1.7285902757478615,0.6673252267441818,-4.188058192121626,-9.785087173598315
0.8735604558280275,-2.025445986153944,1.7352635280153033,0.5694743550081987,-4.097138154966346,-10.113472642986167
0.8533059959664882,-2.066417367703607,1.7409582715653853,0.468339628578337,-4.00261335963555,-10.443714004859668
0.832641822289452,-2.1064435012999625,1.7456416678511686,0.36390248852974033,-3.902751230690857,-10.775804817862447
0.8115773872764525,-2.145471013606871,1.749280692736466,0.25614444035111583,-3.7957804864321165,-11.109558289777214
0.7901226771403838,-2.183428818471192,1.751842137139977,0.1450488574533437,-3.679891704677517,-11.444600904860017
0.7682883889556719,-2.220227735517967,1.7532926257145105,0.03060284840474352,-3.5532381248799765,-11.780368989473619
0.7460861116004922,-2.255760116766767,1.753598654198558,-0.08720084148999267,-3.413937328790363,-12.116108206643148
0.7235285104328245,-2.2898994900546707,1.752726645783658,-0.20836192355642413,-3.260074378752852,-12.450876113164389
0.7006295155322778,-2.322500233842199,1.750643026548094,-0.332870684688068,-3.0897069273405977,-12.783548041282561
0.6774045131938559,-2.3533973031156052,1.7473143197012133,-0.4607061651008936,-2.900872743086583,-13.112826675164735
0.6538705401626999,-2.382406030546471,1.7427072580502043,-0.591834431852541,-2.69160002178743,-13.437255775926808
0.6300464798572352,-2.4093220307643453,1.736788913731679,-0.7262069896118091,-2.4599207676916834,-13.755238563944415
0.6059532595495917,-2.433921238441262,1.7295268438355609,-0.8637593752512532,-2.2038874299780846,-14.065061289997212
0.5816140471651791,-2.455960112741043,1.7208892500830484,-1.0044099881512254,-1.9215928636321893,-14.364922514173116
0.5570544460377687,-2.475176041377365,1.710845150201536,-1.1480592132929566,-1.611193547147265,-14.652968560533768
0.532302685623995,-2.4912879768488376,1.6993645580686065,-1.2945888988982943,-1.2709358305226013,-14.92733552419537
0.5073898058555066,-2.5039973351540636,1.6864186690796237,-1.443862254140248,-0.899184805483368,-15.186198074750083
0.482349832503966,-2.5129891832088975,1.6719800465382213,-1.5957242348877487,-0.4944551873818709,-15.42782512652904
0.45721994067187705,-2.5179337350827162,1.6560228041893439,-1.7500024861530392,-0.055443378979216765,-15.650642234916853
0.4320406033210499,-2.5184881688725085,1.6385227793278134,-1.9065089085022078,0.4189403428012192,-15.853300334174705
0.4068557216323248,-2.5142987654444964,1.6194576902427913,-2.065041911843955,0.929540804902649,-16.0347501642849
0.38171273397787986,-2.50500335739547,1.5988072711243517,-2.2253894134868037,1.4769295837733885,-16.194321453361873
0.35666270040392517,-2.4902340615577363,1.5765533769894837,-2.3873326280204226,2.061381005695366,-16.33180564189644
0.33176035978834784,-2.469620251500783,1.5526800507092795,-2.550650684439387,2.682854321678453,-16.44754067086522
0.30706415727334,-2.4427917082839983,1.5271735438648857,-2.715126091148039,3.340983933888251,-16.542496122869224
0.28263624019050004,-2.4093818689451156,1.5000222829534053,-2.8805510523767315,4.035079503968319,-16.618356816547628
0.2585424215010489,-2.3690310739054325,1.471216772429638,-3.0467346205422077,4.764137591038694,-16.677602815233918
0.23485211076199455,-2.3213896979950457,1.440749426224216,-3.213510648694547,5.526866110635808,-16.72358371383523
0.2116382137820441,-2.2661210368886877,1.4086143197372705,-3.380746485832899,6.321722328655863,-16.76058498382924
0.1889770034131572,-2.2029038136021293,1.3748068548789414,-3.5483523356711917,7.146964244887625,-16.793884020432888
0.1669479652771359,-2.131434171153253,1.3393233315222295,-3.7162911758755204,8.000713991528935,-16.829793228862304
0.14563362356560336,-2.0514270312379637,1.3021604197634742,-3.8845891081641435,8.881030140814762,-16.875686804138695
0.1251193532532237,-1.962616729829816,1.2633145286818328,-4.053345976205531,9.785983373452742,-16.94000646711707
0.10549318595492554,-1.8647568960952887,1.2227810689197776,-4.222746040876702,10.713726468449048,-17.032238783662798
0.08684561699397265,-1.7576196314107984,1.1805536085110104,-4.39306842871333,11.662544486965935,-17.16285196792405
0.06926942067986466,-1.640994186541139,1.1366229242238772,-4.56469694839257,12.630863451261881,-17.343171923002075
0.05285947881445327,-1.5146855520285203,1.0909759547399516,-4.738128667622591,13.61718434458726,-17.585163618326717
0.037712623294168066,-1.3785137085826478,1.0435946680637256,-4.913980303805858,14.619891642173746,-17.901061503840587
0.02392748620834159,-1.2323147921609103,0.994454865025667,-5.092990918844264,15.636858387450925,-18.302756560771222
0.011604338286732485,-1.075946208286401,0.9435249558372244,-5.276018484451976,16.6647279625401,-18.80079042559146
0.0008448762038684738,-0.909298928661,0.8907647709927047,-5.46402638870789,17.697689136372514,-19.402718475401926
-0.008248113082741527,-0.732322037297275,0.8361245071056258,-5.65805357346191,18.72546728042694,-20.110471021078
-0.015571333455714277,-0.5450673644930055,0.7795439713710067,-5.85915828367269,19.730124266275055,-20.916153547009802
-0.021022007100644332,-0.34776612183025496,0.7209523885342798,-6.068319819142788,20.68109843341612,-21.795487407122422
-0.02449966831894688,-0.14095513749609373,0.6602691903428519,-6.286274693214012,21.527770821558335,-22.697859069752223
-0.025909219693907817,0.07432257071948961,0.5974064434107118,-6.513253283911534,22.188867784488203,-23.53191970470423
-0.02516599398671292,0.29621124856437164,0.5322739105715965,-6.748572480958576,22.53859420726796,-24.146383861422773
-0.022203881501069205,0.5215971906370512,0.4647881857620107,-6.990036319572804,22.39136475266339,-24.308250441429767
-0.016987909594698692,0.7455108381636851,0.39488782256628263,-7.233118823987102,21.49173096106215,-23.687013189155262
-0.00953280121306184,0.9604281477743066,0.32255663432641163,-7.469988955878654,19.52477481285927,-21.86525631611487
7.148026468122709e-05,1.1556758959028994,0.2478567447676251,-7.688641519039803,16.17257642399844,-18.410398200110723
0.01162823922371022,1.3174016601428837,0.17097032957722708,-7.87274550104091,11.241506119790326,-13.041832785748467
0.024802255825139057,1.429816721340787,0.09224287456681797,-8.003163828898394,4.8463601280922015,-5.875811349379155
0.039100423038546925,1.4782803226217092,0.01221123627783402,-8.061921942392186,-2.450951381760949,2.389152440898279
0.053883226264764016,1.4537708088040997,-0.06840798314608784,-8.038030417983203,-9.713365649108221,10.568511813704411
0.06842093435280501,1.3566371523130174,-0.14878828732591987,-7.932345299846158,-15.964540353099576,17.438797358770312
0.08198730587593518,1.1969917487820216,-0.22811174032438145,-7.757957326258455,-20.581375103523868,22.25309046024448
0.0939572233637554,0.991177997746783,-0.305691313586966,-7.535426421656011,-23.451328845703692,24.934906916702108
0.10386900334122322,0.756664709289746,-0.3810455778035261,-7.28607735248899,-24.840810017418605,25.888446176042528
0.11143565043412068,0.50825660911556,-0.453906351328416,-7.027192890728564,-25.158782617388404,25.67969939330106
0.11651821652527627,0.256668782941676,-0.5241782802357017,-6.770395896795554,-24.78604128189452,24.814760936029256
0.11908490435469303,0.008808370122730808,-0.5918822392036572,-6.522248287435262,-24.00797587348991,23.65929655093379
0.11917298805592033,-0.2312713886121683,-0.6571047220780099,-6.2856553219259235,-23.013050036468794,22.443998233877874
0.11686027416979865,-0.46140188897685624,-0.719961275297269,-6.061215339587145,-21.915483823901933,21.299326963303443
0.11224625528003009,-0.6805567272158756,-0.7805734286931405,-5.848222069954111,-20.779831032758104,20.290352363914398
0.10544068800787133,-0.8883550375434566,-0.8390556493926816,-5.645318546314967,-19.64000301141142,19.442720780109003
0.09655713763243677,-1.0847550676575708,-0.8955088348558313,-5.450891338513877,-18.512099979012422,18.759651041793084
0.08570958695586106,-1.269876067447695,-0.9500177482409701,-5.263294828095946,-17.402464104147366,18.232296101748176
0.07301082628138411,-1.4439007084891686,-1.0026506965219295,-5.080971867078464,-16.312516342455943,17.84578713931694
0.058571819196492424,-1.607025871913728,-1.053460415192714,-4.902513995685295,-15.241565494009288,17.582649838180135
0.04250156047735514,-1.7594415268538208,-1.102485555149567,-4.726687497303494,-14.188381101866298,17.42468562483007
0.024907145208816935,-1.9013253378724837,-1.1497524301226019,-4.552440641055193,-13.152025754025916,17.3539827544263
0.0058938918300920976,-2.0328455954127427,-1.1952768365331539,-4.3789008135109295,-12.132247724969735,17.353447339278553
-0.014434564124035331,-2.15416807266244,-1.2390658446682632,-4.205366340118144,-11.129614385717359,17.407077135903428
-0.03597624485065973,-2.2654642165196135,-1.2811195080694446,-4.03129556875911,-10.145494485644836,17.500101982046477
-0.058630887015855865,-2.366919161376062,-1.3214324637570358,-3.8562945489386453,-9.181954690354168,17.619057327689447
-0.08230007862961648,-2.4587387082796037,-1.3599954092464224,-3.680103975661751,-8.241610675063162,17.751824470987213
-0.10688746571241252,-2.5411548150302354,-1.3967964490030398,-3.502585730951879,-7.3274582832542015,17.88765274950244
-0.13229901386271486,-2.6144293978627773,-1.4318223063125586,-3.3237092034568545,-6.442701388726853,18.017169064263665
-0.15844330784134264,-2.6788564117500457,-1.4650593983471272,-3.143537512814218,-5.590587583073364,18.132375214191505
-0.1852318719588431,-2.7347622875807795,-1.4964947734752694,-2.962213760672303,-4.774259175783467,18.226631515127686
-0.2125794948346509,-2.7825048793386142,-1.5261169110819923,-2.7799474455210262,-3.996624412400531,18.29462482712164
-0.24040454362803707,-2.8224711234626194,-1.5539163855372027,-2.59700119724981,-3.2602518386487316,18.332319655365023
-0.26862925486266326,-2.8550736418491067,-1.5798863975097008,-2.4136780006961596,-2.5672891360382617,18.336891949504857
-0.29717999128115435,-2.8807465332094893,-1.6040231775166625,-2.230309081201111,-1.9194064210697313,18.306646302527636
-0.32598745661324924,-2.8999405974201866,-1.6263262683286737,-2.0472426181758343,-1.3177628946405153,18.240918254759034
-0.3549868625874511,-2.9131182263665916,-1.646798694510432,-1.8648334356282439,-0.7629948394382913,18.13996422654892
-0.384118044851117,-2.9207481747609743,-1.6654470288667145,-1.6834337933627548,-0.25522228941318237,18.004842173896904
-0.41332552659872673,-2.923300397655106,-1.682281366800342,-1.5033853716237857,0.20592876634777754,17.837286362617842
-0.4425585305752778,-2.921241109991628,-1.6973152205165798,-1.3250125079976072,0.6212920430013352,17.639579695403167
-0.47177094167519407,-2.915028189561615,-1.710565345596556,-1.1486167110435754,0.9921179570878552,17.414426829615213
-0.5009212235708103,-2.9051070099907363,-1.7220515127069917,-0.9744724427474233,1.3200253560526782,17.164830932727156
-0.5299722936707176,-2.8919067564302097,-1.731796237134466,-0.8028241334201517,1.6069511702248938,16.893976385311092
-0.5588913612350197,-2.8758372447279608,-1.7398244784686674,-0.6338843695670408,1.8551008830895548,16.605119108940357
-0.5876497336822993,-2.857286235897065,-1.7461633221643378,-0.46783317847763717,2.066902366716301,16.301485516942286
-0.6162225960412699,-2.836617212229902,-1.750841653949114,-0.30481832330821435,2.2449652576736607,15.98618040338114
-0.6445887681635689,-2.8141675596531655,-1.7538898371821963,-0.14495651927440295,2.392047681573519,15.662103437322852
-0.6727304437601006,-2.79024708283743,-1.7553394023749402,0.011664515098825573,2.511031791053568,15.331873346256296
-0.7006329145884749,-2.7651367649268943,-1.755222757223952,0.16498324856138855,2.604909272674703,14.997758380578702
-0.7282842822377438,-2.739087672200147,-1.7535729247383383,0.31496083236717554,2.676777701767155,14.661611274719206
-0.7556751589597452,-2.7123198951824756,-1.7504233164146665,0.46157694511436764,2.729848366059352,14.324806687482031
-0.78279835791157,-2.6850214115218822,-1.7458075469635228,0.6048250119891879,2.7674659078877886,13.98817905219399
-0.8096485720267889,-2.6573467524430043,-1.7397592968436308,0.7447068025111279,2.7931397995498717,13.651958952194208
-0.8362220395512189,-2.6294153544475054,-1.7323122288185195,0.88122639203307,2.810587190430702,13.315706643110488
-0.8625161930956939,-2.6013094825431984,-1.7234999648981888,1.0143834584641749,2.823785940957259,12.978242292439585
-0.888529287921126,-2.5730716231336257,-1.713356130313547,1.1441658813885707,2.8370355455728755,12.637574067812913
-0.9142600041524622,-2.544701267677897,-1.7019144714996612,1.2705416220666998,2.85502196888265,12.2908275942981
-0.9397070168292412,-2.5161510479890707,-1.6892090552789942,1.3934498980096808,2.8828799775349747,11.934183767224601
