th1 (rad),w1 (rad/s),th2 (rad),w2 (rad/s),a1 (rad/s^2),a2 (rad/s^2)
4.2556442678938975,-2.726149213576539,1.368429927618633,-0.13856213549068055,9.50316296501095,1.4675209380255545
4.228382775758132,-2.6311175839264296,1.367044306263726,-0.12388692611042501,9.253763353154117,1.2102897872999139
4.202071599918868,-2.5385799503948885,1.3658054370026218,-0.11178402823742586,8.9837669602275,0.9106542699065984
4.176685800414918,-2.4487422807926134,1.3646875967202476,-0.10267748553835988,8.699556549766537,0.5794825759476412
4.152198377606992,-2.361746715294948,1.363660821864864,-0.09688265977888347,8.406617995061351,0.22621899498281176
4.128580910454042,-2.2776805353443343,1.3626919952670753,-0.09462046982905535,8.109554746047353,-0.14109229588905645
4.105804105100599,-2.196584987883861,1.3617457905687846,-0.09603139278794591,7.812133801083672,-0.51573292273275
4.083838255221761,-2.1184636498730245,1.360785476640905,-0.1011887220152734,7.517352657880625,-0.8922028218868736
4.062653618723031,-2.043290123294218,1.3597735894207523,-0.11011075023414214,7.227518501166221,-1.2660938546992326
4.042220717490089,-1.971014938282556,1.3586724819184108,-0.12277168878113447,6.944332714069612,-1.633955722774162
4.022510568107263,-1.90157161114186,1.3574447650305994,-0.1391112460088761,6.668975523679474,-1.9931624874787486
4.003494851995844,-1.8348818559050653,1.3560536525705107,-0.1590428708836636,6.402187114269598,-2.341785472381348
3.9851460334367936,-1.7708599847623692,1.354463223861674,-0.18246072560747706,6.144342817573274,-2.67847623628783
3.96743743358917,-1.7094165565866364,1.3526386166055993,-0.20924548797035536,5.89552100776864,-3.0023616558797497
3.9503432680233033,-1.65046134650895,1.3505461617258958,-0.23926910452915284,5.655563103739524,-3.3129519187068506
3.9338386545582136,-1.5939057154715548,1.3481534706806042,-0.27239862371622137,5.424125641554459,-3.6100613451190933
3.917899597403498,-1.5396644590560102,1.345429484443442,-0.3084992371674123,5.20072476151255,-3.8937413683536866
3.902502952812938,-1.4876572114408848,1.342344492071768,-0.34743665085094916,4.984773693158284,-4.164224642309333
3.887626380698529,-1.437809474509302,1.3388701255632585,-0.3890788972740425,4.775613952468753,-4.421879059134849
3.8732482859534363,-1.3900533349846145,1.334979336590518,-0.43329768786539097,4.572541017608867,-4.667170394677651
3.85934775260359,-1.3443279248085258,1.330646359711864,-0.47996939181216747,4.374825247668057,-4.900632319403576
3.845904473355505,-1.3005796723318452,1.3258466657937424,-0.5289757150062032,4.1817287718968235,-5.1228425848326875
3.8328986766321864,-1.258762384612877,1.3205569086436804,-0.5802041408545301,3.992519019728234,-5.334404297908953
3.8203110527860575,-1.2188371944155947,1.314754867235135,-0.6335481838336197,3.806479494889165,-5.53593131164529
3.8081226808419015,-1.180772399466703,1.308419385396799,-0.6889074969500726,3.622918327542973,-5.7280368786688305
3.7963149568472345,-1.1445432161912732,1.3015303104272982,-0.7461878657367609,3.441175071513102,-5.91132482771564
3.784869524685322,-1.1101314654761423,1.2940684317699305,-0.8053011140139172,3.2606261521845457,-6.086382627399338
3.7737682100305605,-1.0775252039542969,1.2860154206297914,-0.8661649402879106,3.08068931626616,-6.253775794497526
3.7629929579910177,-1.0467183107916354,1.2773537712269123,-0.9287026982328859,2.9008273878590796,-6.414043184783907
3.7525257748831016,-1.0177100369130445,1.2680667442445834,-0.992843130080725,2.7205515961970357,-6.567692773244443
3.742348674513971,-0.9905045209510741,1.2581383129437762,-1.0585200578131695,2.5394247085550834,-6.715197588102932
3.7324436293044605,-0.9651102738655233,1.2475531123656445,-1.1256720336941988,2.3570641764381093,-6.8569915105498165
3.7227925265658053,-0.9415396321011422,1.2362963920287025,-1.194241948799697,2.1731454833557784,-6.993464690721453
3.713377130244794,-0.9198081772675845,1.2243539725407055,-1.2641765957069115,1.987405867240481,-7.124958361735175
3.704179048472118,-0.8999341185951797,1.2117122065836365,-1.3354261793242632,1.7996485787419774,-7.251758858947659
3.6951797072861665,-0.8819376328077599,1.1983579447903938,-1.4079437679137399,1.609747827006025,-7.37409067265098
3.686360330958089,-0.8658401545376997,1.1842785071112565,-1.4816846746402497,1.4176545557521743,-7.4921083808453455
3.677701929412712,-0.8516636089801779,1.169461660364854,-1.5566057584487032,1.2234031829757908,-7.605887326386246
3.66918529332291,-0.83942957715042,1.153895602780367,-1.6326646317125657,1.0271194256530847,-7.715412921784334
3.660790997551406,-0.8291583828938891,1.1375689564632414,-1.709818760930409,0.8290293143802278,-7.820568487634569
3.652499413722467,-0.8208680897500868,1.1204707688539373,-1.7880244458067547,0.6294694795303923,-7.921121559854515
3.6442907328249663,-0.8145733949547829,1.1025905243958698,-1.8672356614052998,0.42889875745299266,-8.016708639874595
3.6361449988754186,-0.810284407380253,1.0839181677818168,-1.9474027478040459,0.2279111191933559,-8.106818414433027
3.628042154801616,-0.8080052961883194,1.0644441403037763,-2.0284709319483762,0.027249861426562116,-8.190773542030161
3.6199621018397328,-0.8077327975740538,1.0441594309842925,-2.110378667368678,-0.172177084417416,-8.267711196268195
3.6118847738639923,-0.8094545684182279,1.0230556443106058,-2.19305577933136,-0.3692809780246481,-8.336562677529002
3.60379022817981,-0.8131473781984744,1.0011250865172923,-2.27642140610665,-0.5627756234569369,-8.396032559159732
3.5956587543978253,-0.8187751344330437,0.9783608724562257,-2.3603817316982476,-0.7511608156900956,-8.44457802766998
3.587471003053495,-0.8262867425899447,0.9547570551392432,-2.4448275119749474,-0.9327066573623367,-8.480389312489997
3.5792081356275958,-0.8356138091635681,0.9303087800194938,-2.529631405099847,-1.1054397725462923,-8.501372381588096
3.5708519975359603,-0.846668206889031,0.9050124659684953,-2.614645128915728,-1.2671327310983482,-8.505135403099548
3.56238531546707,-0.8593395342000145,0.878866014679338,-2.699696482946724,-1.415298313754873,-8.488980832934354
3.55379192012507,-0.8734925173375633,0.8518690498498708,-2.7845862912760673,-1.5471905805389465,-8.449905368991258
3.545056994951694,-0.8889644231429528,0.8240231869371101,-2.86908534496598,-1.6598150295994736,-8.384610388237181
3.5361673507202647,-0.9055625734389475,0.7953323334874502,-2.952931448848352,-1.749950414749135,-8.289525813996498
3.527111724985875,-0.9230620775864389,0.7658030189989667,-3.035826706988317,-1.8141849781134833,-8.160850591681886
3.5178811042100104,-0.9412039273675737,0.7354447519290835,-3.1174352129051357,-1.8489698849299696,-7.9946130088127765
3.508469064936335,-0.9596936262168735,0.7042703998000321,-3.1973813429932636,-1.8506924423659865,-7.786753890052787
3.498872128674166,-0.9782005506405334,0.6722965863700995,-3.2752488818937913,-1.8157711557651097,-7.533235129141205
3.4890901231677605,-0.9963582621981845,0.6395440975511616,-3.350581233185203,-1.7407737365077678,-7.230174984602922
3.4791265405457787,-1.0137659995632622,0.6060382852193096,-3.4228829830312324,-1.622557753279761,-6.8740099781053825
3.468988880550146,-1.0299915770960597,0.5718094553889973,-3.491623082812286,-1.458431676826844,-6.461681045971666
3.4586889647791854,-1.0445758938643281,0.5368932245608744,-3.5562398932720027,-1.2463316335177752,-5.990838828002802
3.448243205840542,-1.0570392101995059,0.5013308256281543,-3.616148281552031,-0.985006371696354,-5.46005975772976
3.4376728137385473,-1.0668892739164695,0.465169342812634,-3.6707488791293286,-0.6741999865567644,-4.86906119828019
3.4270039209993826,-1.073631273782037,0.42846185402134074,-3.7194394911121305,-0.31481919645990597,-4.218900643841253
3.4162676082615624,-1.076779465746636,0.39126745911021943,-3.761628497550543,0.0909301233716537,-3.512141501033292
3.405499813604096,-1.0758701645129196,0.353651174134714,-3.796749912560876,0.5394533440501015,-2.752966775003626
3.3947411119589668,-1.0704756310724186,0.3156836750091052,-3.824279580310912,1.025739833281902,-1.9472226897471188
3.3840363556482425,-1.0602182327395997,0.2774408792059961,-3.843751807208383,1.5434106339544527,-1.1023773002189685
3.3734341733208466,-1.0447841264000552,0.23900336113391224,-3.8547755802105725,2.0848486786442284,-0.22738464350345822
3.3629863320568463,-1.023935639613613,0.2004556053318065,-3.8570494266456072,2.641412291205688,0.6675473432547325
3.3527469756607102,-0.9975215167015561,0.16188511106535042,-3.85037395321306,3.2037246530613728,1.5712777708607872
3.3427717604936946,-0.9654842701709424,0.12338137153321982,-3.834661175504452,3.762023641423283,2.4721257870388387
3.333116917791985,-0.9278640337567096,0.08503475977817529,-3.8099399176340634,4.3065492040522955,3.3583103894502306
3.323838277454418,-0.8847985417161865,0.046935360601834654,-3.776356813739561,4.8279404185410195,4.218405886954058
3.314990292037256,-0.8365191375307763,0.00917179246443904,-3.7341727548700203,5.317612505990302,5.041779364328085
3.3066251006619485,-0.7833430124708733,-0.02816993508426116,-3.6837549612267395,5.7680857384796935,5.818978024442696
3.2987916705372395,-0.7256621550860765,-0.06500748469652856,-3.6255651809823126,6.173243192451866,6.5420395981459665
3.2915350489863786,-0.6639297231615577,-0.10126313650635169,-3.560144785000853,6.528501871901199,7.204707280237884
3.284895751754763,-0.5986447044425458,-0.13686458435636023,-3.488097712198474,6.83089066316259,7.802540556010575
3.2789093047103375,-0.5303357978109199,-0.17174556147834497,-3.4100723066383685,7.079037544173264,8.332923331768928
3.2736059467322285,-0.4595454223691873,-0.20584628454472864,-3.3267430733206793,7.273076235512068,8.794979603132994
3.269010492508537,-0.3868146600140666,-0.23911371527793543,-3.2387932772893495,7.414488168026899,9.189413482523953
3.265142345908396,-0.3126697783337976,-0.27150164805082894,-3.14689914246411,7.505898824792079,9.51829425464183
3.262015648125058,-0.23761079008587682,-0.30297063947547004,-3.051716199917692,7.550848217757184,9.78480822908332
3.259639540224199,-0.162102307908305,-0.33348780147464696,-2.953868117626859,7.553553865457657,9.992997907814047
3.258018517145116,-0.08656676925372842,-0.3630264826509155,-2.8539381385487186,7.518681747692348,10.147506024162759
3.2571528494525785,-0.011379951776804939,-0.3915658640364027,-2.752463078307091,7.451136993083194,10.253338064410526
3.2570390499348103,0.06313141815402701,-0.41909049481947364,-2.649929697662986,7.355882117139668,10.315652625422757
3.2576703641163505,0.13669023932542368,-0.4455897917961035,-2.5467731714087583,7.2377869493481075,10.33958492461957
3.259037266509605,0.20906810881890475,-0.47105752351019103,-2.4433773221625623,7.101511280051843,10.330105317366685
3.2611279475977937,0.2800832216194232,-0.49549129673181663,-2.3400762689888954,6.951418874135322,10.291911974013802
3.263928779813988,0.3495974103607764,-0.5188920594217056,-2.237157149248757,6.791519861408005,10.229354963942157
3.2674247539175956,0.4175126089748564,-0.5412636309141932,-2.1348635996093357,6.625437555253501,10.146387825767542
3.271599880007344,0.4837669845273914,-0.5626122669102865,-2.0333997213516604,6.456395352350752,10.046542150946896
3.276437549852618,0.5483309380508989,-0.5829462641238031,-1.9329342998421915,6.287219388874656,9.932920628287164
3.2819208592331273,0.6112031319396455,-0.602275607122225,-1.8336050935593198,6.120352938382592,9.808204246644133
3.2880328905525236,0.6724066613234714,-0.6206116580578183,-1.7355230510928785,5.957879017318312,9.674669806958278
3.2947569571657582,0.7319854514966545,-0.6379668885687471,-1.6387763530232957,5.801548223589681,9.53421445180593
3.302076811680725,0.7900009337325513,-0.65435465209898,-1.5434342085052364,5.652809404872554,9.388384506033239
3.3099768210180502,0.8465290277812768,-0.6697889941840324,-1.449550363444904,5.512841291574092,9.238406484901255
3.318442111295863,0.9016574406970177,-0.6842844978184814,-1.3571662985958914,5.382583708643952,9.08521863551084
3.327458685702833,0.9554832777834572,-0.6978561608044404,-1.266314112240783,5.262767388525005,8.929501817392945
3.337013518480668,1.0081109516687072,-0.7105193019268482,-1.1770190940668537,5.153941742162493,8.771708894249409
3.3470946279973552,1.059650369090332,-0.7222894928675168,-1.0893020051243596,5.056500210106226,8.612092103296133
3.3576911316882585,1.1102153711913942,-0.7331825129187604,-1.0031810840913982,4.970703018879191,8.450728098124445
3.3687932854001725,1.159922401380186,-0.7432143237596743,-0.9186738031101537,4.896697318080955,8.287540534174159
3.380392509413974,1.2088893745609957,-0.7524010617907758,-0.835798397768412,4.8345347805570755,8.122320192132959
3.392481403159584,1.2572347223665665,-0.76075904576846,-0.7545751958470824,4.784186820267487,7.954742722840224
3.40505375038325,1.3050765905692414,-0.7683047977269308,-0.6750277686186802,4.745557628116162,7.784384155715576
3.4181045162889423,1.3525321668504031,-0.7750550754131177,-0.5971839270615245,4.718495251680404,7.610734348370544
3.431629837957446,1.399717119367207,-0.781026914683733,-0.521076583577819,4.702800956035398,7.433208573734263
3.445627009151118,1.446745128927561,-0.7862376805195112,-0.44674449784047643,4.698237104132893,7.2511574474317735
3.4600944604403936,1.4937274999688899,-0.7907051254979159,-0.3742329233661587,4.704533789913381,7.063875395977073
3.4750317354400826,1.5407728378680237,-0.7944474547315775,-0.30359416940638795,4.721394448129504,6.870607858373269
3.490439463818763,1.5879867823493188,-0.7974833964256414,-0.23488809082265527,4.748500653678464,6.670557401996637
3.506319331642256,1.6354717888861035,-0.799832277333868,-0.1681825168026889,4.7855163114799195,6.4628889196116575
3.522674049531117,1.6833269520009027,-0.8015141025018948,-0.10355362760657232,4.832091426567113,6.246734058957261
3.539507319051126,1.7316478662665737,-0.8025496387779605,-0.0410862870169997,4.887865633727982,6.021195020097472
3.5568237977137915,1.7805265226038536,-0.8029605016481305,0.019125663183975017,4.952471657142936,5.785347838865414
3.57462906293983,1.830051239175283,-0.8027692450162908,0.07697914157262917,5.025538863238756,5.538245257216566
3.592929575331583,1.8803066278076705,-0.8019994536005645,0.13236159414479481,5.106697064510987,5.278919262915073
3.6117326416096596,1.9313735984527804,-0.8006758376591165,0.18515078677394553,5.195580728372129,5.00638336131251
3.6310463775941875,1.9833294057365018,-0.7988243297913771,0.23521462038707064,5.29183374312214,4.719634620517367
3.6508796716515524,2.0362477431677233,-0.7964721835875064,0.2824109665922443,5.395114892853168,4.417655507364453
3.6712421490832297,2.090198892096255,-0.793648073921584,0.32658752166588884,5.5051041944400465,4.099415504554566
3.6921441380041924,2.1452499340406557,-0.7903821987049251,0.3675816767114345,5.621510252713193,3.763872468354037
3.7135966373445988,2.2014650365677877,-0.7867063819378107,0.40522040139497484,5.744078794503236,3.4099736504694684
3.7356112877102765,2.25890582451282,-0.7826541779238609,0.4393201378996695,5.8726025486211935,3.0366562662536163
3.7582003459554048,2.317631849999032,-0.7782609765448643,0.4696867005622057,6.006932647255991,2.642847443336767
3.781376664455395,2.377701176471592,-0.7735641095392422,0.49611517499557334,6.146991735161393,2.2274633291935086
3.805153676220111,2.439171093823206,-0.7686029577892864,0.5183898082875085,6.29278898700754,1.7894070721499329
3.8295453871583427,2.5020989836932817,-0.7634190597064113,0.5362838790090078,6.444437251285914,1.3275653170711268
3.8545663769952756,2.566543356206141,-0.7580562209163213,0.549559532179719,6.602172562378926,0.840802773710945
3.880231810557337,2.63256508182993,-0.7525606255945241,0.5579675599168284,6.766376292366827,0.3279543219078665
3.906557461375636,2.7002288447535983,-0.7469809499953558,0.5612471031359071,6.937600252710931,-0.21218598677104278
3.9335597498231722,2.7696048472807075,-0.7413684789639967,0.5591252432681967,7.116595105274346,-0.7808797864409681
3.9612557982959795,2.840770798333451,-0.7357772265313147,0.551316445403787,7.304342504505102,-1.379463993389673
3.989663506279314,2.913814223378502,-0.7302640620772769,0.5375218054698903,7.5020914701062615,-2.0093761530797156
4.018801648513099,2.9888351380795646,-0.724888844022578,0.5174280439390931,7.711399583427588,-2.6721866824186837
4.048689999893894,3.0659491339138403,-0.7197145635831871,0.49070617711490633,7.934179710441976,-3.3696392781507556
4.079349491233033,3.14529093101826,-0.714807501812038,0.4570097843333988,8.17275307483387,-4.103700864768724
4.110802400543215,3.2270184617665985,-0.710237403968704,0.41597277568571156,8.429909624228953,-4.876622505678236
4.143072585160881,3.311317558008888,-0.7060776762118469,0.3672065506289292,8.708976725149101,-5.691012649603464
4.17618576074097,3.398407325260379,-0.7024056107055576,0.31029642413289454,9.013897238067964,-6.549923844161845
4.210169833993574,3.4885462976410584,-0.6993026464642287,0.2447971856912761,9.349317871174968,-7.456953471493657
4.245055296969984,3.5820394763528083,-0.6968546746073159,0.17022765097633952,9.720688225454147,-8.416357891060057
4.280875691733512,3.6792463586073496,-0.6951523980975525,0.08606407206573895,10.134369833569579,-9.433177172592071
4.317668155319586,3.7805900569430455,-0.6942917573768951,-0.00826769966018176,10.59775225150975,-10.51336361197046
4.355474055889016,3.886567579458143,-0.6943744343734969,-0.11340133577988637,11.11936899748466,-11.663900144880657
4.394339731683598,3.99776126943299,-0.6955084477312957,-0.23004033722869294,11.708998304983988,-12.892882371378597
4.434317344377928,4.11485125248283,-0.6978088511035826,-0.3589691609424789,12.377719592522912,-14.20951633357907
4.475465856902757,4.238628448408059,-0.7013985427130074,-0.5010643242782696,13.137871632701323,-15.62394685136074
4.517852141386837,4.370007164735073,-0.70640918595579,-0.657303792791877,14.002814704259514,-17.14676687057185
4.5615522130341875,4.510035311777668,-0.7129822238837088,-0.8287714614975955,14.98632312355791,-18.78794799714334
4.606652566151964,4.659898543013247,-0.7212699384986847,-1.016650941469029,16.101304367658987,-20.554745189164173
4.6532515515820965,4.820911586689837,-0.731436447913375,-1.2221983933606708,17.35732186879687,-22.447816270930584
4.701460667448995,4.994484805377805,-0.7436584318469818,-1.4466765560699766,18.756041659043408,-24.45429247567305
4.751405515502773,5.18204522196824,-0.7581251974076816,-1.6912194808267071,20.283176588338282,-26.53577083078614
4.803225967722455,5.384876987851623,-0.7750373922159487,-1.9565771891345687,21.89476734025404,-28.60818426649139
4.857074737600971,5.603824661254164,-0.7946031641072944,-2.242659031799483,23.494957373921718,-30.50959890474726
4.913112984213513,5.838774234993381,-0.8170297544252892,-2.5477550208469553,24.90276485284479,-31.95260177180185
4.971500726563447,6.087801883521829,-0.8425073046337588,-2.8672810385649736,25.80948998288427,-32.464029571926474
5.032378745398666,6.345896783350671,-0.8711801150194085,-3.1919213342842383,25.742189774080735,-31.334697368338592
5.095837713232172,6.603318681091478,-0.9030993283622509,-3.5052683079676243,24.07937909073294,-27.645770787957296
5.161870900043088,6.844112471998807,-0.9381520114419272,-3.7817260158471973,20.205614911755333,-20.49603119030355
5.230312024763076,7.046168621116361,-0.9759692716003991,-3.986686327750233,13.878924289416881,-9.535503520001946
5.300773710974239,7.18495786401053,-1.0158361348779015,-4.082041362950252,5.692033414791562,4.365550134571625
5.372623289614344,7.241878198158445,-1.056656548507404,-4.038385861604536,-2.828606981428031,18.966164038126934
5.445042071595928,7.213592128344165,-1.0970404071234494,-3.8487242212232666,-9.881858547623468,31.595117490356415
5.51717799287937,7.11477354286793,-1.135527649335682,-3.5327730463197025,-14.378693903620407,40.57669301038989
5.58832572830805,6.970986603831726,-1.170855379798879,-3.1270061162158034,-16.319653106956572,45.79935844881496
5.658035594346367,6.8077900727621605,-1.2021254409610371,-2.669012531727654,-16.389177806034922,48.158908885798446
