th1 (rad),w1 (rad/s),th2 (rad),w2 (rad/s),a1 (rad/s^2),a2 (rad/s^2)
5.063570442274389,-2.7196749629811245,4.603516722224658,-0.8513872488699142,5.354627560423254,8.228153902451693
5.0363736926445775,-2.666128687376892,4.595002849735959,-0.7691057098453973,5.735610851511064,7.583102526458378
5.0097124057708085,-2.6087725788617813,4.587311792637505,-0.6932746845808135,6.103615845854001,6.946292315497516
4.98362467998219,-2.547736420403241,4.580379045791696,-0.6238117614258384,6.45798814206862,6.321816259578862
4.958147315778158,-2.4831565389825547,4.574140928177438,-0.5605935988300498,6.797851748440727,5.713769007396919
4.933315750388332,-2.4151780214981473,4.568534992189138,-0.5034559087560806,7.122165697093909,5.126153746128523
4.909163970173351,-2.3439563645272083,4.563500433101577,-0.45219437129479534,7.429793695040396,4.56277799369463
4.8857244065280785,-2.2696584275768044,4.558978489388629,-0.406566591357849,7.719582347532619,4.027144082145578
4.8630278222523105,-2.192462604101478,4.554912823475051,-0.3662951505363932,7.990442515599946,3.5223414762220147
4.841103196211296,-2.112558178945479,4.551249871969687,-0.3310717357741731,8.241427889637112,3.050948704346604
4.819977614421841,-2.0301439000491075,4.547939154611945,-0.300562248730707,8.471804990645815,2.6149524206086077
4.79967617542135,-1.9454258501426493,4.544933532124638,-0.27441272452462095,8.681109572137943,2.215689946637205
4.780221916919924,-1.8586147544212699,4.542189404879392,-0.2522558250582489,8.869185704427869,1.8538196977262458
4.761635769375712,-1.7699228973769912,4.539666846628809,-0.23371762808098645,9.036205501015067,1.5293214483983875
4.743936540401942,-1.6795608423668404,4.537329670347999,-0.21842441359700257,9.182669257101004,1.241525790270833
4.727140931978274,-1.5877341497958304,4.535145426212029,-0.20600915569429423,9.30938746524184,0.989169741496486
4.711263590480315,-1.494640275143412,4.533085334655087,-0.19611745827932936,9.417447542122455,0.7704735846511664
4.696317187728881,-1.4004657997221874,4.531124160072293,-0.1884127224328177,9.508169005798797,0.5832328306941117
4.682312529731659,-1.3053841096641994,4.529240032847965,-0.1825803941258766,9.58305123565984,0.4249187905773634
4.669258688635017,-1.209553597307601,4.527414228906706,-0.17833120622010296,9.643717862707097,0.29278152052784745
4.657163152661941,-1.11311641868053,4.525630916844506,-0.1754033910148245,9.691861372975756,0.1839497390416097
4.646031988475135,-1.0161978049507725,4.523876882934357,-0.1735638936244084,9.729190792833265,0.09552349369887676
4.635870010425627,-0.9189058970224399,4.522141243998113,-0.17260865868741965,9.757384496872268,0.024656680515208078
4.626680951455403,-0.8213320520537172,4.520415157411239,-0.17236209188226756,9.778049354820208,-0.03137218720181976
4.618467630934866,-0.7235515585055151,4.518691536492416,-0.17267581375428576,9.792686700281463,-0.07510142724968158
4.611232115349811,-0.6256246915027005,4.516964778354874,-0.17342682802678258,9.802665013670092,-0.1088394179746695
4.604975868434784,-0.5275980413659995,4.5152305100746055,-0.17451522220652926,9.809198785514775,-0.13462853113972983
4.599699888021124,-0.4295060535108518,4.51348535785254,-0.17586150751792656,9.813332761445203,-0.15421830302402448
4.595404827486016,-0.33137272589639977,4.511726742777361,-0.17740369054816682,9.815930648053122,-0.16904621414723256
4.592091100227052,-0.23321341941586854,4.509952705871879,-0.17909415268963916,9.817667353216311,-0.18022446495716307
4.5897589660328935,-0.13503674588370543,4.508161764344983,-0.18089639733921078,9.819023917546978,-0.18853128940157207
4.588408598574056,-0.03684650670823564,4.506352800371591,-0.1827817102332265,9.820284439942945,-0.1944056008379261
4.588040133506974,0.06135633769119382,4.504524983269259,-0.18472576624160578,9.821534488749725,-0.19794408253954826
4.588653696883886,0.1595716825786911,4.502677725606842,-0.18670520706700125,9.822660704565958,-0.19890019303684495
4.590249413709673,0.2577982896243507,4.500810673536172,-0.1886942089973697,9.823351529110804,-0.19668493602825696
4.592827396605916,0.3560318049154587,4.498923731446198,-0.19066105835765226,9.823099227309953,-0.19036963114088368
4.59638771465507,0.4542627971885582,4.497017120862622,-0.1925647546690611,9.821203598103805,-0.17869130229342522
4.600930342626956,0.5524748331695963,4.495091473315931,-0.19435166769199533,9.81677798346446,-0.16006165997989297
4.606455090958652,0.650642613004241,4.493147956639011,-0.19595228429179426,9.808758371642709,-0.1325809729990328
4.612961517088694,0.7487301967206681,4.4911884337960934,-0.1972780940217846,9.795916532041618,-0.0940583775652767
4.620448819055901,0.8466893620410842,4.489215652855876,-0.19821867779743735,9.776878192208533,-0.04204032262798084
4.628915712676312,0.9444581439631696,4.487233466077901,-0.19863908102371716,9.750147244096517,0.026151143018247572
4.638360294115944,1.0419596164041347,4.485247075267664,-0.1983775695935347,9.714136815826977,0.11336872127574915
4.648779890279985,1.1391009845624045,4.483263299571729,-0.1972438823807772,9.667207736761272,0.22257775582518272
4.6601709001256095,1.2357730619300171,4.481290860747921,-0.19501810482252538,9.607714435656954,0.3567812644824563
4.672528630744909,1.3318502062865867,4.479340679699696,-0.19145029217770082,9.534057638552222,0.5189326982306877
4.685847132807775,1.4271907826721089,4.477426176777919,-0.18626096519539395,9.444742395835512,0.7118382578465186
4.700119040634497,1.521638206630464,4.475563567125965,-0.17914258261692875,9.338439023317944,0.9380520274090337
4.715335422700801,1.6150225968636434,4.473772141299796,-0.16976206234283842,9.214043587231123,1.1997686569988386
4.731485648669437,1.7071630327359546,4.472074520676368,-0.15776437577285002,9.070733733175954,1.4987196488554906
4.748557278996797,1.797870370067714,4.47049687691864,-0.14277717928429512,8.908015114222765,1.8360802371300935
4.766535982697475,1.8869505212099418,4.469069105125797,-0.12441637691299418,8.725753573403098,2.2123941623971533
4.785405487909574,1.9742080569439728,4.4678249413566675,-0.10229243528902264,8.524188705620162,2.6275231357894584
4.805147568479014,2.0594499440001743,4.466802017003777,-0.07601720393112806,8.303925515966355,3.08062637282426
4.825742067919015,2.142489199159838,4.466041844964466,-0.04521094020288545,8.065902555375143,3.570173309288453
4.847166959910614,2.223148224713589,4.465589735562437,-0.009509207110000917,7.811336986127764,4.093989712674836
4.86939844215775,2.301261594574867,4.465494643491337,0.03143069001674745,7.541649245986752,4.649334241417079
4.892411058103499,2.3766780870347346,4.465808950391505,0.07792403243091824,7.258372022456622,5.2329995366356625
4.916177838973846,2.4492618072593006,4.4665881907158145,0.13025402779727485,6.963049807805536,5.841429611100165
4.940670457046439,2.518892305337356,4.467890730993787,0.1886683239082765,6.6571361459704885,6.470843982617503
4.965859380099812,2.585463666797061,4.46977741423287,0.25337676373445156,6.341895695745956,7.1173588638095975
4.991714016767783,2.6488826237545204,4.472311181870214,0.32455035237254753,6.018317459529573,7.7770967376576365
5.018202843005328,2.7090657983498163,4.47555668539394,0.4023213197491239,5.6870441343769125,8.44627759634127
5.0452935009888265,2.7659362396935854,4.479579898591431,0.48678409571253656,5.348320790184217,9.121287646095837
5.072952863385762,2.8194194475954277,4.484447739548556,0.5779969721734949,5.001964252895906,9.798723981465086
5.101147057861716,2.869439090124387,4.490227709270291,0.6759842119881457,4.647352921386928,10.475416241382122
5.12984144876296,2.9159126193382563,4.4969875513901725,0.7807383744019669,4.28343545441073,11.148428304855853
5.159000574956343,2.9587469738823637,4.504794935134192,0.8922226574505254,3.908755916668518,11.815044516490753
5.188588044695166,2.997834533049049,4.513717161708697,1.010373102615433,3.521492571771146,12.472745721620893
5.218566390025656,3.0330494587667607,4.523820892734851,1.135100559831642,3.119507489448421,13.11918060008286
5.248896884613324,3.064244533661245,4.535171898333168,1.2662923658324705,2.700404390926992,13.75213753458095
5.2795393299499365,3.0912485775705147,4.547834821991493,1.40381374117828,2.2615925742003142,14.369521670983673
5.310451815725641,3.113864503312518,4.561872959403275,1.5475089578881167,1.8003552333504598,14.96934105060049
5.341590460758766,3.1318680556460223,4.577348048982157,1.6972023683941215,1.313920928934398,15.549704817795659
5.372909141315226,3.145007264935366,4.594320072666098,1.852699416572078,0.7995373239183448,16.108835594689673
5.40435921396458,3.1530026381745495,4.612847066831819,2.013787772518975,0.25454654514710623,16.645097198594883
5.4358892403463255,3.1555481036260207,4.632984944557008,2.1802387445049236,-0.32353833559939477,17.157037958929422
5.467444721382586,3.1523127202700265,4.654787332002058,2.351809124094218,-0.9369561595255822,17.64344894852194
5.498967848585286,3.1429431586747705,4.678305423243,2.5282436135794373,-1.5876203287565578,18.10343544349472
5.530397280172034,3.127066955387205,4.703587859378794,2.7092779680143844,-2.277041659286271,18.53649881778534
5.561667949725906,3.104296538794342,4.730680639058938,2.8946429561922375,-3.0062516976783065,18.942624801001685
5.592710915113849,3.074234021817559,4.75962706862086,3.0840692042022546,-3.775726364483819,19.322372500453852
5.6234532553320244,3.036476758172721,4.7904677606628825,3.277292929206793,-4.58530899770523,19.676956696434075
5.653818022913752,2.990623668195669,4.82324068995495,3.4740624961711335,-5.434130485629462,20.008313497321677
5.683724259595708,2.9362823633393744,4.857981314916661,3.6741456311443503,-6.320521937399094,20.319136236056067
5.713087083229102,2.8730771439653835,4.894722771228105,3.877336993504911,-7.241911895470625,20.61286412094364
5.7418178546687555,2.8006580250106774,4.933496141163154,4.083465634714347,-8.194694989030491,20.893600053942183
5.7698244349188625,2.7187110751203725,4.974330797510297,4.2924016352537695,-9.17405156235447,21.16592537669331
5.797011545670066,2.6269705594968276,5.017254813862834,4.504060889020702,-10.173687425282713,21.434566960345
5.823281251265034,2.5252336852440003,5.062295422753041,4.718406558624152,-11.185448561173493,21.703854549577603
5.8485335881174745,2.4133791996322653,5.109479488339283,4.935445104119928,-12.1987464875901,21.976881937043057
5.872667380113797,2.291391734756364,5.158833939380482,5.155213923490359,-13.199705528155006,22.254253031734418
5.89558129746136,2.159394679474814,5.210386078615386,5.377756453807703,-14.16991457230953,22.53225353695485
5.917175244256109,2.0176955337517186,5.264163643153463,5.603078989177252,-15.084637968841756,22.8002459871995
5.937352199593626,1.866849154063301,5.320194433045235,5.831081449049247,-15.910326924638802,23.037057061664118
5.956020691134259,1.707745884816913,5.378505247535728,6.061452019665888,-16.601306262933697,23.206152374203754
5.973098149982428,1.541732822187576,5.439119767732387,6.293513543407925,-17.09565716496355,23.24956177336765
5.988515478204303,1.3707762505379404,5.502054903166466,6.526009161141602,-17.310692863636667,23.08098732407537
6.002223240709682,1.1976693219015737,5.567314994777882,6.756819034382355,-17.139210335515575,22.57954422526513
6.0141999339286984,1.026277218546418,5.634883185121706,6.982614476635006,-16.44908308745514,21.587420656724536
6.0244627061141625,0.8617863876718665,5.704709329888056,7.198488683202251,-15.090701518767679,19.91738118003138
6.033080569990881,0.7108793724841898,5.776694216720078,7.397662495002566,-12.91845098455115,17.378427436737923
6.040189363715723,0.5816948626386782,5.850670841670104,7.5714467693699445,-9.83144560506015,13.826877518785215
6.04600631234211,0.4833804065880767,5.926385309363804,7.709715544557796,-5.83114957944906,9.240283551359168
6.050840116407991,0.4250689107935861,6.003482464809382,7.802118380071388,-1.0772079492388915,3.7900402781718467
6.055090805515927,0.4142968313011972,6.081503648610096,7.8400187828531065,4.094539272113717,-2.134535696675747
6.059233773828939,0.4552422240223344,6.159903836438627,7.818673425886349,9.225135574082998,-7.994156934300427
6.063786196069162,0.5474935797631644,6.23809057069749,7.738731856543344,13.851289282246206,-13.251611223734614
6.069261131866794,0.6860064725856264,6.315477889262923,7.606215744305998,17.63285791733386,-17.532192848248762
6.07612119659265,0.8623350517589651,6.391540046705983,7.43089381582351,20.420680287038238,-20.703739425626917
6.0847445471102395,1.0665418546293475,6.465848984864218,7.223856421567241,22.241795745020884,-22.849303607253248
6.095409965656533,1.2889598120795562,6.53808754907989,6.995363385494708,23.233471358071583,-24.176712528949523
6.1082995637773285,1.5212945256602721,6.608041182934837,6.753596260205213,23.57279211248302,-24.9269057224103
6.123512509033931,1.7570224467851023,6.675577145536889,6.50432720298111,23.428985721490832,-25.315007061594386
6.141082733501782,1.9913123040000107,6.7406204175667,6.251177132365166,22.941728065071743,-25.506243528590105
6.160995856541782,2.2207295846507282,6.803132188890352,5.996114697079265,22.21711126249411,-25.614435588437935
6.183203152388289,2.4429006972756695,6.863093335861144,5.739970341194885,21.332107118688697,-25.710596733965293
6.207632159361046,2.6562217684625566,6.920493039273093,5.482864373855232,20.3415240688694,-25.833882526213575
6.234194377045672,2.8596370091512506,6.975321683011645,5.224525548593096,19.28455537784466,-26.001376922978995
6.262790747137184,3.0524825629296974,7.027566938497576,4.964511779363306,18.18992746026404,-26.215692329039626
6.293315572766481,3.2343818375323377,7.077212056291209,4.70235485607291,17.07956545121379,-26.470466812601515
6.325659391141804,3.4051774920444755,7.124235604851938,4.437650187946895,15.971023056050555,-26.754189621471802
6.359711166062249,3.564887722604981,7.168612106731407,4.170108291732177,14.878985827011476,-27.052803258735658
6.395360043288299,3.7136775808750957,7.210313189648729,3.8995802591448205,13.816119290469617,-27.351439042814597
6.43249681909705,3.8518387737797917,7.249308992240177,3.6260658687166747,12.79347117833791,-27.635537944334175
6.471015206834848,3.979773485563171,7.285569650927344,3.349710489273333,11.82057844063672,-27.891521458836838
6.51081294169048,4.097979269969538,7.319066755820077,3.0707952746849645,10.905382066155765,-28.107113919763076
6.551792734390175,4.2070330906310955,7.349774708566927,2.789724135487334,10.054015703339047,-28.27137446308974
6.593863065296486,4.307573247664486,7.3776719499218,2.5070103908564363,9.270505351370488,-28.37446838298988
6.636938797773131,4.400278301178191,7.402742053830365,2.2232657070265374,8.556394874462212,-28.407189177841467
6.680941580784912,4.485842249922813,7.4249747109006305,1.9391938152481227,7.910294659095434,-28.360231205755877
6.7258000032841405,4.564945196513768,7.444366649053112,1.655591503190564,7.327338645579625,-28.22320783885414
6.771449455249278,4.638218582969564,7.460922564085018,1.3733594248020224,6.798530351540729,-27.983413594914058
6.817831641078974,4.706203886484972,7.474656158333038,1.093525288852882,6.309966170858815,-27.624347331434794
6.864893679943823,4.76930354819356,7.4855914112215665,0.817281815538534,5.84195279786873,-27.124059294136668
6.912586715425759,4.827723076172247,7.493764229376952,0.5460412225971673,5.368098585439455,-26.45347672790171
6.960863946187481,4.8814040620266415,7.499224641602924,0.28150645531815016,4.854573918093233,-25.575026109999303
7.0096779868077475,4.929949801207574,7.502039706156105,0.025756194218157114,4.259920288247581,-24.44212823598995
7.058977484819823,4.97254900409005,7.502297268098286,-0.2186650881417424,3.5360412658868556,-23.0004929647837
7.108702974860724,5.007909416748919,7.500110617216869,-0.4486700177895794,2.631277090845334,-21.192503894462956
7.158782069028213,5.034222187657372,7.495623917038973,-0.6605950567342089,1.4965843345286352,-18.966123122838688
7.209124290904787,5.049188031002658,7.489017966471631,-0.8502562879625958,0.09549229594363508,-16.289204751131944
7.259616171214813,5.050142953962094,7.480515403592006,-1.0131483354739153,-1.5827270473082158,-13.168296323045931
7.310117600754435,5.034315683489012,7.470383920237267,-1.1448312987043745,-3.5095372805673595,-9.66769210935099
7.360460757589324,4.999220310683339,7.458935607250223,-1.2415082197978844,-5.6087917236024145,-5.920701869467142
7.4104529606961576,4.943132393447315,7.446520525052244,-1.3007152384925558,-7.760112813391223,-2.1237109479456597
7.459884284630631,4.865531265313403,7.433513372667319,-1.3219523479720123,-9.817497674183288,1.4919014148932672
7.5085395972837645,4.767356288571571,7.4202938491875985,-1.3070333338230797,-11.639390655682986,4.704381896235167
7.55621316016948,4.6509623820147405,7.407223515849368,-1.259989514860728,-13.119199811491374,7.346657233449463
7.602722783989627,4.519770383899827,7.39462362070076,-1.1865229425262334,-14.203997166223868,9.333946740095927
7.6479204878286255,4.377730412237589,7.382758391275498,-1.093183475125274,-14.895605488191041,10.665435326423822
7.691697791951001,4.228774357355678,7.371826556524246,-0.9865291218610358,-15.237387034095535,11.404768095756797
7.733985535524558,4.076400487014722,7.361961265305635,-0.8724814409034678,-15.295217790045756,11.651725370734916
7.774749540394705,3.923448309114265,7.353236450896601,-0.7559641871961187,-15.140373974169895,11.5164442946634
7.8139840234858475,3.772044569372566,7.345676809024639,-0.6407997442494847,-14.838135192260658,11.101901512314786
7.851704469179573,3.6236632174499595,7.339268811582144,-0.5297807291263369,-14.442290173189742,10.49508244326378
7.887941101354073,3.4792403157180622,7.333971004290881,-0.4248299046936991,-13.993922185222608,9.76456174307811
7.922733504511254,3.3393010938658363,7.3297227052439435,-0.327184287262918,-13.52258503755638,8.961764187675794
7.956126515449912,3.2040752434902724,7.326450862371314,-0.23756664538616004,-13.048441783646773,8.123803168741635
7.9881672678848155,3.0735908256538047,7.324075195917453,-0.15632861369874368,-12.584522312311636,7.276626775008447
8.018903176141354,2.9477456025306883,7.322511909780465,-0.0835623459486592,-12.138703822847997,6.437853055223967
8.04838063216666,2.8263585643022084,7.3216762863209786,-0.01918381539641953,-11.715288545677241,5.619077260286809
8.076644217809683,2.709205678845436,7.3214844481670145,0.03700695720644856,-11.31618823569466,4.827640046129777
8.103736274598138,2.5960437964884897,7.321854517739079,0.08528335766774633,-10.941778208688962,4.067931421683806
8.129696712563023,2.4866260144016,7.322707351315756,0.1259626718845844,-10.591494759416673,3.3423276076290764
8.154562972707039,2.3807110668074336,7.323966978034602,0.15938594796087519,-10.264242623916573,2.6518518433345393
8.178370083375112,2.278068640568268,7.325560837514211,0.1859044663942206,-9.958666211827753,1.9966341288542753
8.201150769780796,2.1784819784499905,7.3274198821781535,0.20587080768276333,-9.673325310313412,1.3762276238243334
8.222935589565296,2.0817487253468565,7.329478590254981,0.21963308392100667,-9.406804954306855,0.7898243785150841
8.243753076818765,1.987680675803788,7.331674921094191,0.2275313277061575,-9.157780603640132,0.23640114637663748
8.263629883576803,1.8961028697673865,7.333950234371252,0.22989533916992388,-8.925053427968658,-0.28518294342371897
8.282590912274477,1.8068523354877,7.336249187762951,0.22704350973568668,-8.707565937200169,-0.7761216122449691
8.300659435629354,1.7197766761156983,7.338519622860308,0.21928229361323698,-8.504404971684489,-1.2376189837497467
8.317857202390512,1.6347326263988533,7.3407124457964406,0.2069061037757395,-8.31479681741994,-1.6708621763052447
8.3342045286545,1.551584658224654,7.342781506834198,0.19019748201268705,-8.138097655478667,-2.0770039458952927
8.349720375236746,1.4702036816698674,7.344683481654325,0.16942744255373413,-7.973781484513938,-2.457151979909893
8.364422412053445,1.390465866824728,7.346377756079862,0.14485592275463519,-7.8214269221986275,-2.812362538503841
