th1 (rad),w1 (rad/s),th2 (rad),w2 (rad/s),a1 (rad/s^2),a2 (rad/s^2)
6.227726078775429,2.0285935928208474,5.807113909614914,-1.0296464812709325,-4.268436446432014,10.067959886082827
6.2480120147036375,1.9859092283565272,5.796817444802205,-0.9289668824101043,-4.501109070777425,10.351039173601182
6.267871106987203,1.9408981376487529,5.787527775978104,-0.8254564906740924,-4.690446603707528,10.561346735483198
6.287280088363691,1.8939936716116776,5.779273211071363,-0.7198430233192604,-4.844907753833819,10.710003696456376
6.306220025079807,1.8455445940733395,5.77207478083817,-0.6127429863546967,-4.972228748333171,10.807281165748993
6.324675471020541,1.7958223065900079,5.765947350974623,-0.5046701746972068,-5.079252285460342,10.862354228075178
6.342633694086441,1.7450297837354045,5.7609006492276515,-0.396046632416455,-5.171871598332885,10.883217080998795
6.360083991923795,1.6933110677520757,5.756940182903487,-0.287214461606467,-5.255051357968122,10.876706216314991
6.377017102601315,1.6407605541723944,5.754068038287422,-0.1784473994433171,-5.332894695884737,10.848588814810263
6.39342470814304,1.587431607213547,5.7522835642929895,-0.06996151129521448,-5.408733768105841,10.80368471929661
6.4092990242151755,1.5333442695324886,5.751583949180037,0.038075335897751625,-5.485228487040134,10.746000315461957
6.4246324669105,1.4784919846620872,5.751964702539015,0.1455353390523712,-5.564463739653476,10.678860557589964
6.439417386757121,1.4228473472655525,5.7534200559295385,0.25232394462827085,-5.648039557901095,10.60503116428523
6.453645860229777,1.3663669516865415,5.755943295375821,0.3583742562711231,-5.737151531477498,10.526826972945631
6.467309529746642,1.3089954363717666,5.759527037938533,0.4636425260005794,-5.832660550846466,10.446204986447777
6.48039948411036,1.250668830863302,5.764163463198538,0.5681045758650571,-5.93515202362783,10.364842160628877
6.492906172418993,1.1913173106270238,5.769844508957188,0.6717529974713459,-6.044985252734323,10.28419878777429
6.504819345525264,1.1308674580996807,5.7765620389319015,0.7745949853490888,-6.162333875429097,10.205568671435838
6.516128020106261,1.0692441193453897,5.784307988785392,0.8766506720634472,-6.287218262224617,10.130117332173686
6.526820461299715,1.0063719367231434,5.793074495506027,0.977951845385184,-6.419530645463713,10.058909345757115
6.536884180666946,0.9421766302685063,5.802854013959879,1.0785409388427551,-6.5590535409061195,9.992925665771955
6.546305946969631,0.876586094859445,5.813639423348307,1.1784701955004746,-6.705471771131109,9.93307146172388
6.5550718079182255,0.809531377148134,5.825424125303312,1.2778009101177135,-6.8583781113756235,9.880174630728925
6.563167121689707,0.7409475960343777,5.838202134404489,1.3766026564250027,-7.0172722607892775,9.834974720695659
6.570576597650051,0.6707748734264849,5.851968160968739,1.4749524036319592,-7.181552492912382,9.79810153146735
6.5772843463843165,0.5989593484973611,5.866717685005058,1.5729334189466326,-7.350498953148768,9.770042128851125
6.58327393986929,0.5254543589658734,5.882447019194525,1.670633840235144,-7.523247142664913,9.751094405376119
6.588528483458949,0.4502218875392243,5.899153357596877,1.768144784288905,-7.698749655880155,9.741304646321078
6.593030702334341,0.37323439098042277,5.916834805439765,1.865557830752116,-7.875723730596868,9.740385818110623
6.596763046244145,0.2944771536744541,5.935490383747286,1.9629616889332222,-8.052581652898983,9.74761252210436
6.599707817780889,0.21395133714546427,5.955120000636619,2.0604378141542656,-8.227340593910682,9.761687829240582
6.601847331152343,0.13167793120635746,5.975724378778161,2.1580546924466715,-8.397508159409892,9.78057668621631
6.603164110464407,0.04770284961225854,5.997304925702628,2.2558604593088347,-8.559940013376853,9.801300542441975
6.60364113896053,-0.03789655052150999,6.019863530295717,2.3538734647332547,-8.710666737833607,9.819688760536243
6.603262173455315,-0.12500321789984606,6.043402264943049,2.452070352338617,-8.844689157856648,9.830084991170102
6.602012141276316,-0.21345010947841253,6.067922968466435,2.550371202250318,-8.955745502818225,9.825012139893925
6.599877640181532,-0.3030075645065948,6.093426680488938,2.648621323649257,-9.03606111754502,9.794809400846866
6.596847564536466,-0.39336817568204496,6.119912893725431,2.7465694176577258,-9.076103389054795,9.727271066237465
6.592913882779645,-0.4841292095725929,6.147378587902008,2.8438421283201003,-9.064382583285216,9.607341542262605
6.588072590683919,-0.5747730354054451,6.1758170091852085,2.9399155437427265,-8.987364300795056,9.416955586959622
6.582324860329865,-0.6646466784133956,6.205216164622636,3.0340850996123225,-8.829590335339477,9.13515612531796
6.575678393545731,-0.7529425817667904,6.235557015618759,3.125436660865502,-8.57413692751452,8.738667493621314
6.568148967728063,-0.8386839510419356,6.266811382227414,3.212823335801715,-8.203560887582233,8.203133431805579
6.559762128217644,-0.9207195599177579,6.298939615585431,3.2948546701197707,-7.701473463179799,7.505217166144801
6.550554932618466,-0.9977342945495559,6.331888162286629,3.369906841781219,-7.05480910292968,6.625663826921189
6.540577589672971,-1.0682823855788526,6.365587230704441,3.4361634800504306,-6.256691924706349,5.553201917928731
6.529894765817183,-1.130849304825916,6.399948865504945,3.491695499229718,-5.309540304610079,4.288800718536083
6.518586272768924,-1.1839447078720169,6.434865820497242,3.534583506415079,-4.227739372297035,2.84937196164926
6.506746825690204,-1.2262221015949872,6.470211655561393,3.5630772260315715,-3.0389822005704508,1.2696853237167451
6.494484604674254,-1.2566119236006918,6.505842427821708,3.575774079268739,-1.7834188671649798,-0.3986854981693624
6.481918485438247,-1.2744461122723416,6.541600168614395,3.5717872242870454,-0.510198049955532,-2.091962543818812
6.469174024315524,-1.279548092771897,6.577318040857266,3.5508675988488574,0.7282138543221983,-3.74179027511341
6.456378543387805,-1.272265954228675,6.612826716845754,3.5134496960977235,1.8827083153338393,-5.284216294330874
6.443655883845518,-1.2534388710753366,6.647961213806732,3.460607533154415,2.9135321238925838,-6.667746075779127
6.431121495134765,-1.2243035498364108,6.682567289138276,3.3939300723966235,3.7941608502611484,-7.8585070421137235
6.418878459636401,-1.1863619413337994,6.716506589862242,3.315345001975486,4.512391448251316,-8.841640707287805
6.407014840223063,-1.1412380268512863,6.749660039881997,3.226928594902608,5.068924794840381,-9.61930890448235
6.39560245995455,-1.0905487789028825,6.7819293258310225,3.1307355058577846,5.474341424289778,-10.206556726682631
6.384696972165521,-1.0358053646599847,6.8132366808896005,3.028669938590958,5.745528586371037,-10.626474941326999
6.374338918518921,-0.9783500787962743,6.84352338027551,2.922405189177688,5.902392191170601,-10.905788021954317
6.3645554177309585,-0.9193261568845683,6.872747432167287,2.813347308958145,5.965309395476892,-11.071473281316594
6.355362156162113,-0.8596730629297994,6.9008809052568685,2.702632576144979,5.953437569854829,-11.148553079354604
6.346765425532815,-0.8001386872312511,6.9279072310183185,2.591147045351433,5.8837801004307275,-11.15891236458965
6.338764038660503,-0.7413008862269439,6.953818701471833,2.4795579217055366,5.77081883341333,-11.120875244285278
6.331351029798233,-0.6835926978928106,6.9786142806888884,2.3683491692626837,5.626516947966289,-11.049270496590959
6.324515102819305,-0.6273275284131478,7.002297772381516,2.2578564642967742,5.460531459409928,-10.95576727957193
6.318241827535173,-0.5727222138190484,7.024876337024484,2.148298791501055,5.280521117426646,-10.84932743777585
6.3125146053969825,-0.5199170026447819,7.046359324939495,2.0398055171232965,5.09247735739424,-10.736678531340077
6.307315435370534,-0.4689922290708395,7.066757380110728,1.9324387318098957,4.901037607048376,-10.622754810153609
6.302625513079826,-0.41998185300035573,7.086081767428826,1.8262111837083597,4.70976155507597,-10.511082030333473
6.298425694549822,-0.37288423744959603,7.10434387926591,1.721100363405025,4.521364031217697,-10.404099312426691
6.294696852175326,-0.3276705971374191,7.12155488289996,1.617059370280758,4.3379053817023,-10.303420635556767
6.291420146203952,-0.2842915433203961,7.137725476602768,1.5140251639251905,4.160943726907447,-10.210042936957953
6.2885772307707475,-0.24268210605132162,7.15286572824202,1.411924734555611,3.9916547746642026,-10.124509223004441
6.286150409710234,-0.2027655583046796,7.166984975587576,1.3106796423255664,3.830924938137747,-10.04703496279925
6.284122754127187,-0.16445630892330212,7.180091772010832,1.210209292697574,3.679422993449841,-9.977605163891218
6.282478191037955,-0.12766207898880372,7.192193864937808,1.110433241058662,3.5376547694024607,-9.916048398604044
6.281201570248067,-0.09228553129477911,7.203298197348395,1.0112727570726214,3.4060045839404887,-9.862092910311702
6.280278714935119,-0.05822548545537422,7.2134109249191205,0.9126518279695044,3.284766423767317,-9.815408899618248
6.279696460080565,-0.025377821217701046,7.222537443198815,0.8144977389733219,3.1741672425533505,-9.775640213797086
6.279442681868388,0.006363851207832456,7.230682420588549,0.716741336835351,3.0743842369995003,-9.742427942968218
6.279506320380467,0.037107693577827464,7.237849833956902,0.6193170574056688,2.985557541487633,-9.715427848996912
6.279877397316245,0.0669632689927038,7.244043004530959,0.5221627789156996,2.9077994479988605,-9.694323096762774
6.280547030006172,0.0960412634726924,7.249264632320116,0.4252195479480719,2.8412009937918477,-9.678833400072037
6.281507442640899,0.12445327341061088,7.253516827799597,0.32843121394735153,2.7858365511469927,-9.668721415616389
6.282751975375006,0.1523116389220808,7.25680113993907,0.23174399979118765,2.7417668890905715,-9.663797000334979
6.2842750917642265,0.17972930781298652,7.259118579936982,0.13510602978783787,2.7090410460651664,-9.663919775522139
6.286072384842356,0.20681971827363818,7.26046964023486,0.03846683203261647,2.687697246380968,-9.669000302854325
6.288140582025092,0.23369669073744787,7.260854308555187,-0.058223170995926776,2.677763004783236,-9.679000063139775
6.290477548932467,0.2604743207852802,7.260272076845228,-0.15501317162732453,2.6792544865368204,-9.693930329616133
6.293082292140319,0.2872668656506484,7.258721945128954,-0.2519524749234859,2.692175119779791,-9.713849936775487
6.295954960796825,0.31418861684844634,7.2562024203797195,-0.34909097429124075,2.7165133877323107,-9.738861856414426
6.29909684696531,0.34135375072576946,7.252711510636807,-0.446479592855385,2.7522396560458686,-9.769108398586475
6.302510384472567,0.36887614728622814,7.248246714708253,-0.5441706768412498,2.799301810436742,-9.804764749942784
6.306199145945429,0.3968691653905956,7.2428050079398405,-0.6422183243406776,2.8576193867166158,-9.846030438645842
6.3101678375993355,0.4254453592577617,7.236382824696434,-0.7406786287271361,2.927075763784076,-9.89311816583705
6.314422291191913,0.4547161168956025,7.228976038409162,-0.8396098103855065,3.007507853665546,-9.94623925957787
6.318969452360869,0.48479119543225796,7.220579940305307,-0.9390722029812852,3.0986925539811647,-10.005584777934406
6.323817364315191,0.5157781209720697,7.211189218275495,-1.0391280507606293,3.2003290190653613,-10.071301001704796
6.328975145524912,0.5477814111627233,7.200797937767888,-1.1398410607776772,3.312015547618382,-10.143457701403813
6.334452959636539,0.5809015666389071,7.189399527160111,-1.2412756377917153,3.4332195686682887,-10.222007124696788
6.340261975302928,0.61523376232559,7.176986770782194,-1.3434957090386832,3.5632388272109825,-10.306731118905187
6.346414312926184,0.6508661505976998,7.163551813691807,-1.446563020227735,3.701151424829986,-10.397173174435105
6.352922974432161,0.6878776648459997,7.14908618348953,-1.5505347519720862,3.845751868589247,-10.492551459322215
6.359801751080621,0.7263351835318921,7.133580835969809,-1.6554602665653084,3.995469754199689,-10.591648150647146
6.36706510291594,0.766289881073889,7.1170262333041565,-1.76137674807178,4.148267224687125,-10.692669643361727
6.3747280017266785,0.8077725533207603,7.0994124658234385,-1.8683034445053972,4.301511034004286,-10.793071704043168
6.382805727259886,0.8507876636608032,7.080729431378384,-1.976234161545829,4.451815137821301,-10.889343647296766
6.391313603896495,0.8953058150390162,7.060967089762926,-2.0851275980187967,4.594850618515278,-10.976746671072576
6.400266662046885,0.941254321224169,7.040115813782738,-2.1948950647295224,4.725122042779814,-11.04900443309788
6.409679205259127,0.9885055416519671,7.018166863135443,-2.3053851090605013,4.835713969843941,-11.097950049767519
6.419564260675647,1.0368626813504065,6.995113012044838,-2.4163646095581766,4.918019563970401,-11.113144730743592
6.429932887489151,1.0860428769901105,6.970949365949256,-2.5274960568656124,4.961476741161195,-11.081501487032401
6.440793316259052,1.1356576444017223,6.9456744053806,-2.6383110717359366,4.9533577001083975,-10.98697516245364
6.452149892703069,1.1851912214028064,6.91929129466324,-2.748180823360473,4.8786861113177284,-10.810418983592408
6.464001804917097,1.2339780825159836,6.8918094864296355,-2.8562850131963975,4.720391568621586,-10.529756516243094
6.476341585742257,1.2811819982021995,6.863246636297672,-2.9615825783588283,4.459847294687927,-10.120668456061752
6.489153405724279,1.3257804711490788,6.833630810514084,-3.0627892629194458,4.07796041128253,-9.55802675863485
6.50241121043577,1.366560075261904,6.803002917884889,-3.1583695305057944,3.55696889184312,-8.818289252088777
6.516076811188388,1.4021297641803352,6.771419222579831,-3.246552423026682,2.883010038606107,-7.882946993629783
6.530098108830192,1.4309598645663963,6.738953698349564,-3.3253818929629797,2.049328061077351,-6.742847261807221
6.544407707475855,1.45145314517717,6.705699879419934,-3.392810365581052,1.0596790283901776,-5.40279132100185
6.558922238927627,1.4620499354610716,6.671771775764124,-3.4468382787910703,-0.06886354302827748,-3.885319194671494
6.573542738282238,1.4613613000307888,6.637303392976213,-3.4856914707377853,-1.3047371777933632,-2.2322680146271745
6.588156351282546,1.4483139282528552,6.602446478268835,-3.508014150884057,-2.603287146265824,-0.5028312862887555
6.602639490565075,1.422281056790197,6.567366336759994,-3.5130424637469444,-3.9110803136884713,1.2323462326472656
6.616862301132977,1.3831702536533121,6.532235912122524,-3.500719001420472,-5.172520647272735,2.9001776295171555
6.63069400366951,1.3314450471805848,6.49722872210832,-3.4717172251253,-6.337220366330289,4.4351147948506595
6.644008454141316,1.268072843517282,6.462511549857067,-3.4273660771767935,-7.3662023857601815,5.787465232531985
6.656689182576489,1.19441081965968,6.428237889085299,-3.3694914248514736,-8.23543756094577,6.9280162067341315
6.668633290773086,1.1120564440502223,6.394542974836784,-3.3002112627841322,-8.93622699977745,7.848333818409609
6.679753855213589,1.0226941740524478,6.361540862208943,-3.221727924600036,-9.472978405225208,8.557529942918844
6.689980796954113,0.9279643900001957,6.329323582962942,-3.1361526251708476,-9.859524475359965,9.077097520395686
6.699260440854115,0.8293691452465961,6.297962056711234,-3.045381649966891,-10.115164457238276,9.435439343750367
6.707554132306581,0.7282175006742133,6.267508240211565,-2.9510272565293874,-10.261260900660501,9.66321926743278
6.714836307313323,0.6256048916676082,6.237997967646271,-2.8543950638550597,-10.318771989400679,9.79003645931057
6.721092356229999,0.5224171717736015,6.20945401700772,-2.756494699261954,-10.306742466140696,9.842432862461768
6.726316527947735,0.4193497471121945,6.1818890700151,-2.6580703706373363,-10.241578804678548,9.842978177718411
6.730510025418857,0.31693395906540905,6.155308366308727,-2.559640588860152,-10.136872792468733,9.810098719563351
6.733679365009511,0.21556523114072174,6.129711960420126,-2.461539601664519,-10.003557181710615,9.758348820016437
6.735835017320918,0.11552965932361559,6.105096564403481,-2.3639561134643543,-9.850229215564868,9.698898857130263
6.736990313914154,0.017027367167966906,6.081457003268837,-2.2669671248930516,-9.683532945513896,9.64009176811384
6.737160587585834,-0.07980796228717206,6.058787332019906,-2.1705662072119134,-9.508536110829017,9.587982368873698
6.736362507962962,-0.1748933233954622,6.037081669947788,-2.0746863835231766,-9.329068900700639,9.546817231439173
6.734613574729008,-0.2681840124024686,6.016334806112556,-1.9792182112087848,-9.148011835210298,9.519439935347691
6.731931734604983,-0.3596641307545716,5.996542624000468,-1.8840238118553079,-8.967531359661066,9.507621673822497
6.728335093297438,-0.4493394443511823,5.977702385881915,-1.788947595117083,-8.78926746334323,9.512324597719529
6.723841698853926,-0.5372321189846145,5.9598129099307435,-1.6938243491398877,-8.614479939718168,9.533908045977766
6.71846937766408,-0.6233769183817962,5.942874666439344,-1.59848526868011,-8.44416031758349,9.57228804529039
6.712235608480262,-0.7078185215576311,5.926889813752544,-1.502762388227206,-8.279115961499716,9.62705946767652
6.705157423264686,-0.7906096811726283,5.911862189870272,-1.4064917935504408,-8.12003191758177,9.697588763016334
6.69725132645296,-0.871810000348446,5.897797271934767,-1.3095159059202774,-7.967515065855601,9.783083632654217
6.688533226449476,-0.951485151007002,5.884702112875564,-1.2116850695937353,-7.822124177185385,9.882644567767596
6.679018374939406,-1.029706392778856,5.872585262179626,-1.1128586239160594,-7.684388618063908,9.995301911759107
6.668721311011617,-1.106550278959495,5.861456675940466,-1.0129056047984684,-7.554817710031702,10.120041026309892
6.657655808222022,-1.182098456059812,5.851327619892481,-0.9117051945353695,-7.433902118438266,10.255817222460994
6.645834823661423,-1.2564374772441946,5.842210567947127,-0.8091470223107595,-7.32210809365113,10.401561324970773
6.6332704488889815,-1.3296585581807059,5.834119097724019,-0.7051314090610518,-7.2198648891510455,10.556176030325728
6.619973863307174,-1.4018572070722164,5.827067783633409,-0.5995696487577945,-7.127545207634338,10.7185225568841
6.605955291236452,-1.4731326591485598,5.821072087145831,-0.4923844231889535,-7.045438052327551,10.887396433189918
6.591223964644966,-1.5435870396718354,5.8161482429139415,-0.38351045885705426,-6.973712863184438,11.06149059537167
6.575788094248248,-1.6133241683036799,5.812313138325371,-0.27289555290333756,-6.9123732782363465,11.23934324145951
6.5596548525652105,-1.6824479010860434,5.809584182796338,-0.16050212048874246,-6.8611982690821245,11.419267105790937
6.5428303735543505,-1.7510598837768647,5.807979161591451,-0.046309449430833094,-6.819667760922618,11.599255977404793
6.525319774716582,-1.819256561386091,5.807516067097143,0.06968311034321484,-6.7868691920930315,11.77686343578946
6.5071272091027215,-1.8871252533070213,5.8082128982005745,0.18745174470110942,-6.76138087073303,11.949048021570334
6.488255956569652,-1.9547390620143517,5.810087415647586,0.3069422249168128,-6.7411275965320625,12.111978609267805
6.468708565949508,-2.022150337979672,5.813156837896754,0.4280620110094908,-6.723204102653652,12.260793982685882
6.448487062569711,-2.0893823790062087,5.817437458006849,0.5506699508363496,-6.70366289059893,12.389312167555271
6.427593238779649,-2.156419007912198,5.822944157515213,0.6745630725119023,-6.6772657007980065,12.489688962595759
6.406029048700527,-2.223191664920178,5.829689788240332,0.7994599621378599,-6.6372032663357725,12.55203284377509
6.383797132051326,-2.2895636975835356,5.83768438786171,0.9249802905756108,-6.574797642208205,12.563997100605086
6.36090149507549,-2.3553116740056175,5.846934190767466,1.0506202615816618,-6.4792171634321925,12.510392310110346
6.337348378335434,-2.4201038456399395,5.857440393383283,1.1757241846827653,-6.337257861727766,12.372895692738084
6.313147339879034,-2.4834764242572174,5.86919763523011,1.299453141610146,-6.133277953812347,12.129979853424704
6.2883125756364615,-2.544809203795341,5.882192166646211,1.420752940144393,-5.849411976630048,11.757239224549371
6.262864483598508,-2.6033033235616414,5.896399696047656,1.5383253323898867,-5.466230444283505,11.228347043824348
