th1 (rad),w1 (rad/s),th2 (rad),w2 (rad/s),a1 (rad/s^2),a2 (rad/s^2)
4.491356891274714,2.6995355748511547,2.350562133913382,0.1760495455256341,10.912604543321375,5.0555632191324875
4.518352247023226,2.8086616202843686,2.3523226293686386,0.22660517771695898,11.243162186930924,5.879521827128641
4.5464388632260695,2.921093242153678,2.3545886811458083,0.2854003959882454,11.594856736699562,6.745617293143455
4.575649795647606,3.0370418095206735,2.3574426851056907,0.35285656891968,11.966946438061932,7.653756079008247
4.606020213742813,3.156711273901293,2.3609712507948877,0.42939412970976243,12.35812519357556,8.603140867794252
4.6375873264818255,3.2802925258370483,2.3652651920919854,0.515425538387705,12.766424712887778,9.592099488452318
4.670390251740196,3.407956772965926,2.3704194474758626,0.6113465332722282,13.189113693370334,10.61790083601657
4.704469819469855,3.5398479098996294,2.376532912808585,0.7175255416323939,13.622598902671578,11.676564314718787
4.739868298568851,3.676073898926345,2.3837081682249086,0.8342911847795818,14.062334845073062,12.762672390780596
4.776629037558115,3.8166972473770757,2.3920510800727044,0.9619179086873877,14.502750595981329,13.86919925044234
4.814796010031885,3.961724753336889,2.4016702591595784,1.1006099011918111,14.937204169446373,14.987372029414306
4.854413257565254,4.111096795031353,2.4126763581714967,1.2504836214859543,15.357976134003094,16.106584159823676
4.895524225515567,4.264676556371383,2.425181194386356,1.411549463084191,15.756314718549705,17.214382449753327
4.938170991079281,4.422239703556881,2.439296689017198,1.5836932875817242,16.12254390950064,18.296549818737976
4.98239338811485,4.583465142651887,2.4551336218930153,1.766658785769104,16.446243612601023,19.33730337428002
5.028228039541369,4.747927578777897,2.4728002097507065,1.9600318195119042,16.716506546580735,20.319622064942706
5.075707315329148,4.915092644243705,2.4924005279458257,2.1632280401613313,16.922270120350138,21.2257091513315
5.1248582417715856,5.084315345447206,2.514032808347439,2.375485131674646,17.05271347542975,22.037582421078724
5.175701395226057,5.2548424802015035,2.5377876596641853,2.5958609558854335,17.097700967777193,22.737770397358073
5.228249820028072,5.4258194898792755,2.5637462692230395,2.8232386598590145,17.04824487533247,23.310077496830004
5.282508014926865,5.5963019386326005,2.5919786558216296,3.0563394348273145,16.89695358870004,23.74036755737266
5.338471034313191,5.765271474519601,2.6225420501699026,3.2937431104010413,16.63842849767368,24.017305997339683
5.396123749058387,5.931655759496338,2.655479481273913,3.533916170374438,16.26957435406917,24.132998375940982
5.45544030665335,6.094351503037029,2.690818642977657,3.775246154133848,15.789794435933423,24.083468633923793
5.51638382168372,6.2522494473963635,2.7285711045189953,4.016080840473086,15.201052737177985,23.86893370256723
5.578906316157684,6.404259974768143,2.7687319129237262,4.2547701774987585,14.507799076225183,23.493850781566408
5.642948915905365,6.549337965530395,2.811279614698714,4.489708685314422,13.716767216339347,22.96673638600176
5.708442295560669,6.686505637693788,2.8561767015518584,4.71937604917444,12.836668433423537,22.299778565949335
5.775307351937607,6.814872322028023,2.9033704620436027,4.942373834833933,11.877811492132084,21.508282009832357
5.843456075157887,6.933650436949344,2.952794200391942,5.157456654932257,10.851683603762538,20.609997523124083
5.91279257952738,7.04216727298697,3.0043687669412646,5.363556630163497,9.770525599951183,19.624391549009562
5.98321425225725,7.139872528986482,3.0580043332428994,5.559800545653593,8.64692917335709,18.571908407863283
6.054612977547115,7.2263418207200525,3.1136023386994354,5.745519629732225,7.493476132590889,17.47326941889094
6.126876395754316,7.301276582045961,3.171057534996758,5.920252323921135,6.322430897848082,16.348841317659968
6.1998891615747755,7.364500891024442,3.2302600582359693,6.0837407370977346,5.145489421253787,15.218093739092959
6.27353417048502,7.41595578523698,3.2910974656069465,6.235921674488664,3.9735813836916876,14.099153924574994
6.347693728337389,7.455691599073897,3.3534566823518333,6.376913213734414,2.816718380386111,13.008457491533495
6.422250644328128,7.483858782877758,3.4172258144891776,6.506997788649749,1.6838788512164826,11.96048761908907
6.497089232156905,7.500697571389923,3.482295792375675,6.6266026648406395,0.582920381271516,10.967591303421912
6.572096207870804,7.506526775202638,3.5485618190240813,6.736278577874859,-0.4794888426232219,10.039859972944152
6.6471614756228306,7.501731886776406,3.6159246048028297,6.8366771776043,-1.497925745538716,9.18506208871008
6.722178794490595,7.4867526293210185,3.684291376578873,6.928527798491401,-2.4682594431854485,8.40861673551726
6.797046320783805,7.462070034889164,3.753576654563787,7.012613965846573,-3.3876918570406693,7.7135990785343385
6.871667021132696,7.428193116318758,3.823702794222253,7.089749956631917,-4.254792322396767,7.1007705212423105
6.9459489522958835,7.38564519309479,3.8946002937885718,7.1607576618443405,-5.069525305968092,6.5686282257107065
7.019805404226831,7.334949940035109,3.966207870407015,7.226443944101447,-5.833269344227075,6.113470271510191
7.093154903627182,7.2766172465928385,4.0384723098480295,7.2875786468165495,-6.548824530849595,5.7294741796533
7.1659210760931105,7.211129001284343,4.111348096316195,7.344873388613083,-7.2204051730966095,5.408787936266124
7.238032366105954,7.138924949553377,4.184796830202325,7.398961267975744,-7.853613449335184,5.141634178569568
7.3094216156014875,7.0603888150600245,4.258786442882083,7.450377609761439,-8.455388903911244,4.916430013831291
7.380025503752088,6.975834926020912,4.333290218979697,7.499541909899752,-9.033927333418932,4.719927153160137
7.449783853012297,6.885495652686723,4.408285638078695,7.546741181431353,-9.598561051932466,4.537379704066125
7.518638809539165,6.789510042167398,4.483753049893009,7.592114978472015,-10.159590784181274,4.352750010498388
7.586533909960838,6.6879141343255855,4.559674199677729,7.635642478576999,-10.728057780831552,4.148966127295894
7.653413051304094,6.58063355651727,4.636030624463499,7.677132139849958,-11.315443611400942,3.908247428428928
7.719219386869266,6.467479120403261,4.712801945861998,7.716214614134247,-11.933285100724246,3.6125167814255543
7.783894178073298,6.348146269396018,4.78996409200334,7.7523397819485025,-12.592693866228062,3.243917702324427
7.847375640767258,6.222219330733737,4.8674874898228255,7.784778958971747,-13.303774864588357,2.7854517130890035
7.909597834074596,6.089181582087853,4.945335279412543,7.812633476102636,-14.074947258227398,2.221743399072267
7.970489649895474,5.948432109505579,5.023461614173569,7.834850910093359,-14.91218451450683,1.5399271708635898
8.02997397099053,5.799310264360511,5.101810123274503,7.850250181801995,-15.818209077241852,0.7306297835564075
8.087967073634136,5.641128173588092,5.180312625092523,7.857556479637559,-16.79169920740225,-0.211003293198092
8.144378355370018,5.473211181514069,5.258888189888899,7.855446446705578,-17.82658907175728,-1.284319279890033
8.199110467185157,5.294945290796496,5.3374426543559546,7.8426032539066775,-18.911563354032772,-2.482317807096149
8.252059920093123,5.105829657256168,5.415868686895021,7.817780075835716,-20.029858355054103,-3.7910906943506
8.303118216665684,4.905531073705626,5.494046487653379,7.77986916889221,-21.159475791487385,-5.18967860424432
8.35217352740274,4.6939363157907525,5.571845179342301,7.727972382849767,-22.27388751264026,-6.650462338048902
8.399112890560648,4.4711974406643495,5.649124903170798,7.661467759469279,-23.343257048804947,-8.140158686197983
8.443824864967292,4.2377648701763,5.725739580765491,7.580066172607299,-24.336131329467808,-9.62141579876333
8.486202513669054,3.9944035568816223,5.801540242491564,7.483852014619665,-25.221474374050874,-11.05491105149436
8.52614654923787,3.7421888131411136,5.876378762637761,7.3733029041047216,-25.97084153382948,-12.401763178060497
8.56356843736928,3.482480397802819,5.950111791678808,7.249285272324117,-26.56044706495416,-13.626001777751345
8.598393241347308,3.216875927153277,6.022604644402049,7.113025254546603,-26.972874375552685,-14.696810458626418
8.630562000618841,2.9471471833977505,6.093734896947516,6.9660571499603385,-27.198222261118385,-15.590284825440333
8.660033472452819,2.6751649607865664,6.163395468447119,6.810154301705936,-27.23456416458285,-16.29051973548096
8.686785122060684,2.402819319140738,6.231497011464178,6.647249104351126,-27.08770230371549,-16.78994512311191
8.710813315252091,2.131942296103583,6.297969502507689,6.479349653120007,-26.77030051492918,-17.088941794762178
8.732132738213126,1.8642392909542913,6.362762999038889,6.308460235172385,-26.300557299022945,-17.194863482689737
8.75077513112267,1.6012337179640619,6.425847601390613,6.136511600345488,-25.700620730255544,-17.120651866704424
8.76678746830231,1.3442275106615065,6.487212717394068,5.965305081678443,-24.994947552369478,-16.883251000533576
8.780229743408924,1.0942780351378116,6.546865768210853,5.796472571673108,-24.20877747457768,-16.50201102530564
8.791172523760302,0.8521902603920348,6.604830493927584,5.631452461420051,-23.36684341320554,-15.997229682105333
8.799694426364223,0.6185218262599794,6.661145018541784,5.471480164598997,-22.4923829734813,-15.38892771409662
8.805879644626822,0.39359799652516647,6.715859820187775,5.317590887458031,-21.606466773539246,-14.695902821006394
8.809815624592074,0.17753332878977401,6.769035729062355,5.170631859247966,-20.727621715912743,-13.935064462984279
8.811590957879972,-0.029742888369353432,6.820742047654835,5.031281214618123,-19.871704023349675,-13.121022167751352
8.811293528996279,-0.2284599286028502,6.871054859801016,4.900070992940609,-19.051966523430394,-12.26588315680851
8.80900892971025,-0.4189795938371541,6.9200555697304225,4.777412161372524,-18.2792642613012,-11.379208933235034
8.804819133771879,-0.6017722364501661,6.967829691344147,4.663620072040174,-17.562348522861754,-10.468081908953543
8.798801411407377,-0.7773957216787837,7.014465892064549,4.558939252950638,-16.908208600143723,-9.537239172917781
8.791027454190589,-0.9464778076802209,7.060055284594055,4.46356686122146,-16.32243072152807,-8.589238662833385
8.781562676113786,-1.1097021148955017,7.10469095320627,4.3776744745931255,-15.809552917936822,-7.624631613550791
8.77046565496483,-1.26779764407487,7.148467697952201,4.301428158457617,-15.373402306277463,-6.642123269215107
8.757787678524082,-1.4215316671376446,7.1914819795367775,4.235006925765466,-15.017406918498928,-5.638711146776246
8.743572361852705,-1.5717057363226339,7.233832048794432,4.178619814297704,-14.744877603106216,-4.609796821200606
8.727855304489479,-1.719154512353696,7.275618246937409,4.132521846085698,-14.559256508673233,-3.5492739147683112
8.710663759365941,-1.8647470774404282,7.316943465398266,4.097029106938015,-14.4643268606154,-2.4496028484330594
8.692016288591537,-2.0093903460465823,7.357913756467646,4.072533078453684,-14.464373357114942,-1.3018937453003554
8.67192238513107,-2.1540340796177317,7.3986390872521826,4.0595141410006805,-14.564271969336652,-0.09603547576648626
8.650382044334894,-2.299676799311098,7.4392342286621895,4.058553786243015,-14.769469435134024,1.1790643483573953
8.627385276341782,-2.4473714936624384,7.47981976652462,4.07034442972659,-15.085781556375895,2.535019520118378
8.602911561405158,-2.5982293092261974,7.520523210821886,4.0956946249277735,-15.518887921186012,3.9831041587756593
8.576929268312895,-2.7534181884380575,7.561480157071164,4.13552566651553,-16.073317237063456,5.532691577335573
8.549395086428515,-2.914151360808692,7.602835413736319,4.190852582288886,-16.750585927308528,7.1885087978940625
8.520253572820428,-3.0816572200817776,7.644743939559207,4.262737670267827,-17.545954967059558,8.945943252249648
8.48943700061961,-3.2571167697523733,7.687371316261886,4.352197102790323,-18.44299902564147,10.783255008292244
8.456865832922086,-3.441546760008788,7.730893287289789,4.460029652873246,-19.40488235794499,12.649122883317114
8.422450365321998,-3.635595583588238,7.7754935838185215,4.5865208817064165,-20.361109627887252,14.443770228950799
8.386094409486116,-3.8392066798671105,7.821358792635586,4.730958583995925,-21.189157841562093,15.992808463263216
8.347702342687445,-4.051098258282732,7.868668378475545,4.890886668628557,-21.69315676070089,17.01682052518337
8.307191360104618,-4.268029825889741,7.91757724516183,5.061054873880391,-21.589006521320265,17.109884491006735
8.26451106184572,-4.483919891102944,7.968187793900634,5.232153718790458,-20.51885649730048,15.75934760415563
8.21967186293469,-4.689108456075949,8.020509331088538,5.389747194832014,-18.132449032723564,12.45982910302343
8.172780778373932,-4.870432946403184,8.074406803036858,5.514345485862249,-14.2632164721987,6.961150182343932
8.1240764489099,-5.013065111125171,8.129550257895481,5.583956987685688,-9.150794449667634,-0.4171554848127929
8.073945797798649,-5.104573055621848,8.185389827772338,5.57978543283756,-3.5324074851487737,-8.654092281109671
8.02290006724243,-5.139897130473336,8.241187682100714,5.493244510026463,1.5840103659568325,-16.342056366297555
7.971501095937697,-5.124057026813768,8.296120127200979,5.329823946363487,5.38015221814385,-22.331057951879444
7.920260525669559,-5.070255504632329,8.349418366664613,5.106513366844693,7.552686881805906,-26.18646183224503
7.869557970623236,-4.99472863581427,8.40048350033306,4.844648748522243,8.277051453204342,-28.141845950948877
7.819610684265093,-4.911958121282226,8.448929987818282,4.563230289012754,7.954218758352525,-28.747772587446207
7.770491103052271,-4.832415933698701,8.494562290708409,4.275752563138292,6.987182491050153,-28.56080118436964
7.722166943715284,-4.762544108788199,8.537319816339792,3.9901445512945957,5.68092392931626,-28.003857589466268
7.674541502627402,-4.7057348694950365,8.577221261852738,3.710105975399933,4.232207101954413,-27.35138076916076
7.6274841539324525,-4.663412798475492,8.614322321606737,3.436592167708325,2.7545626931604756,-26.763354287045235
7.580850025947697,-4.635867171543888,8.64868824328382,3.168958624837873,1.3071179290717878,-26.32469682201704
7.534491354232259,-4.62279599225317,8.680377829532198,2.9057116566177026,-0.08325480683513312,-26.07539349223597
7.488263394309727,-4.623628540321522,8.709434946098375,2.644957721695343,-1.4073708037920114,-26.030103792665674
7.442027108906512,-4.637702248359442,8.735884523315327,2.3846566837686862,-2.6648618048410277,-26.18984000813566
7.3956500864229175,-4.664350866407853,8.759731090153014,2.1227582836873298,-3.85898763663266,-26.54848616751087
7.349006577758839,-4.702940742774179,8.780958672989888,1.8572734220122211,-4.9936571397695015,-27.096184200261916
7.301977170331098,-4.752877314171874,8.79953140721001,1.586311580009602,-6.071717819034242,-27.820884083450032
7.254448397189379,-4.813594492362217,8.815394523010106,1.3081027391751017,-7.0939544619000605,-28.708839588537792
7.206312452265757,-4.884534036981218,8.828475550401857,1.0210143432897238,-8.058479899360846,-29.744510977859626
7.1574671118959445,-4.965118835974826,8.838685693834753,0.7235692335111276,-8.960349246586349,-30.91015086558128
7.107815923536196,-5.054722328440689,8.845921386169865,0.41446772485531475,-9.791318395985321,-32.18524894785462
7.0572687002517895,-5.152635512400542,8.850066063418417,0.09261523537676858,-10.53972189575738,-33.54596096236467
7.005742345127784,-5.258032731358115,8.850992215772186,-0.2428443742468781,-11.190478332283744,-34.96462481745439
6.953162017814202,-5.369937514680953,8.848563772029717,-0.592490622421422,-11.7252499247692,-36.40945760284149
6.899462642667393,-5.487190013928645,8.842638865805503,-0.956585198449837,-12.122790060228425,-37.84452061758088
6.844590742528107,-5.608417914530929,8.833073013821004,-1.3350304046256458,-12.35950855123286,-39.230027570340695
6.788506563382797,-5.732013000043258,8.819722709774748,-1.727330680329053,-12.410269482374021,-40.52304781465941
6.731186433382365,-5.856115694866999,8.802449402971458,-2.1325611584756468,-12.249411466044151,-41.678618814753726
6.672625276433695,-5.97860980952744,8.781123791386701,-2.549347346623184,-11.851947878536297,-42.65123101344112
6.612839178338421,-6.097129288312804,8.755630317920469,-2.9758596567575952,-11.19487089863041,-43.39659004588941
6.551867885455293,-6.209077997299108,8.725871721352894,-3.4098255572164895,-10.258456125846584,-43.87350708638813
6.489777105482301,-6.311662558557574,8.691773465780729,-3.848560628080371,-9.027453331051499,-44.04573258195745
6.426660479896725,-6.4019370918680885,8.653287859499926,-4.289017953899945,-7.492060738607844,-43.883545678546454
6.362641108978044,-6.476857699254167,8.610397679960927,-4.72785341068541,-5.648617306571122,-43.36494954549277
6.297872531985503,-6.533343872319879,8.563119145854074,-5.1615029061403375,-3.5000043886121786,-42.47639949879257
6.232539093262304,-6.568343916206,8.51150411679267,-5.586266901128263,-1.0558117410812582,-41.213091919720725
6.166855654100243,-6.578902033616813,8.455641447781387,-5.99839782032547,1.6676254249550053,-39.578942732105205
6.101066633764075,-6.562225779367263,8.395657469578133,-6.3941872476465225,4.647190721394219,-37.586455515958
6.035444375970402,-6.51575387215332,8.331715597101667,-6.770051802806102,7.852848084666668,-35.25669584221401
5.970286837248869,-6.4372253913066535,8.264015079073605,-7.122618761228242,11.247367662997345,-32.619536362929225
5.905914583335803,-6.32475171467668,8.192788891461323,-7.448814124857535,14.785992335742085,-29.714219782887902
5.842667066189036,-6.1768917913192585,8.118300750212747,-7.745956322686413,18.41624461756157,-26.590125989466717
5.780898148275844,-5.992729345143643,8.040841186985883,-8.011857582581081,22.078177448803675,-23.307463909814437
5.720970854824407,-5.771947570655606,7.960722611160072,-8.244932221679225,25.70541741260589,-19.937487261813143
5.663251379117851,-5.514893396529548,7.87827328894328,-8.444307094297356,29.227301371652,-16.561805406112875
5.608102445152555,-5.2226203828130275,7.7938302180003065,-8.609925148358485,32.57225165025578,-13.27046016797125
5.555876241324425,-4.89689786631047,7.7077309665167215,-8.742629750038198,35.672286027366106,-10.158669571360758
5.50690726266132,-4.540175006036809,7.620304669016339,-8.844216445751805,38.468269525798476,-7.322460045212264
5.461505512600952,-4.155492310778824,7.531862504558821,-8.917441046203928,40.91526729357658,-4.853739757267853
5.419950589493164,-3.746339637843058,7.4426880940967814,-8.965978443776606,42.987238774965775,-2.8356083847327205
5.382487193114733,-3.3164672500934,7.353028309659015,-8.994334527623934,44.68038055659017,-1.3387709530336145
5.349322520613799,-2.8696634445274984,7.2630849643827755,-9.00772223715427,46.014678687854676,-0.4197958581573869
5.320625886168524,-2.4095166576489517,7.173007742011233,-9.011920195735845,47.03360697565611,-0.12166862683699019
5.296530719592035,-1.9391805878923907,7.082888540053874,-9.013136882004215,47.802300019519535,-0.4767360919457527
5.27713891371311,-1.4611575876971954,6.992757171233832,-9.017904242923672,48.40483077196414,-1.5118176484426156
5.262527337836138,-0.977109279977554,6.902578128804595,-9.033022419408098,48.94135745441353,-3.25505579730304
5.2527562450363625,-0.4876957054334187,6.812247904610514,-9.065572977381128,49.52584132628797,-5.743991485722585
5.247879287982029,0.007562707829460946,6.721592174836703,-9.123012892238354,50.28475578837324,-9.034284780633035
5.2479549150603235,0.5104102657131933,6.630362045914319,-9.213355740044683,51.35662557968207,-13.208210212547964
5.253059017717455,1.023976521510014,6.538228488513872,-9.345437842170163,52.89105178025275,-18.380989576094322
5.263298782932556,1.5528870393125416,6.444774110092171,-9.529247737931106,55.04324889269075,-24.699922167533778
5.278827653325681,2.103319528239449,6.34948163271286,-9.776246959606445,57.95391539360877,-32.32313676968212
5.299860848608076,2.682858682175537,6.251719163116795,-10.099478327303265,61.68946637444937,-41.344607510159236
