th1 (rad),w1 (rad/s),th2 (rad),w2 (rad/s)
1.911185550274125,-1.9784898396888444,5.2223380951793965,-2.1159227596718466
1.8914006518772366,-2.0771736586564864,5.201178867582678,-2.121054439612949
1.8706289152906717,-2.1755370609169393,5.179968323186548,-2.124283119953754
1.8488735446815023,-2.273550503194609,5.158725491987011,-2.1255377148926695
1.8261380396495563,-2.3711644333151063,5.137470114838084,-2.124717337265017
1.8024263953164052,-2.4683068192568065,5.116222941465434,-2.121687451676659
1.7777433271238372,-2.5648807910736378,5.095006066948668,-2.1162762364599903
1.7520945192131008,-2.660762446460227,5.073843304584067,-2.108271240640295
1.7254868947484985,-2.7557988850594874,5.052760592177664,-2.097416445214784
1.6979289058979037,-2.8498065537719146,5.031786427725517,-2.083409864709888
1.6694308403601845,-2.9425700050449572,5.0109523290784175,-2.0659018544336343
1.6400051403097349,-3.0338411918324453,4.990293310534081,-2.0444943197901533
1.6096667283914103,-3.123339445641957,4.96984836733618,-2.018741054488116
1.5784333339349907,-3.2107523063151753,4.949660956791298,-1.9881494615911117
1.546325810871839,-3.29573739171282,4.929779462175388,-1.9521839312067428
1.5133684369547107,-3.3779255092879468,4.910257622863321,-1.9102711560864751
1.4795891818618312,-3.456925215717443,4.891154911302456,-1.8618076551926708
1.4450199297046569,-3.5323290205289686,4.872536834750529,-1.8061697380234474
1.409696639499367,-3.6037213995282014,4.854475137370295,-1.7427260712403603
1.373659425504085,-3.67068872808472,4.837047876657891,-1.6708528963115095
1.336952538223238,-3.7328311578327775,4.820339347694776,-1.5899517865956412
1.29962422664491,-3.789776339731921,4.804439829828819,-1.4994696223967552
1.2617264632475909,-3.8411947417514973,4.789445133604851,-1.3989202070045796
1.2233145158300758,-3.8868161259706304,4.775455931534806,-1.2879066583130787
1.1844463545703694,-3.9264465498825376,4.762576864951675,-1.1661434128198558
1.145181889071544,-3.9599850604966096,4.7509154308234764,-1.0334764068105318
1.1055820384665778,-3.987439085584711,4.740580666755371,-0.889899798493267
1.0657076476107306,-4.008937427713151,4.731681668770439,-0.7355675150495856
1.025618273333599,-4.024739767726277,4.724325993619943,-0.5707979968484157
0.9853708756563362,-4.035241712733766,4.718618013651459,-0.39607079936790424
0.9450184585289986,-4.0409746921883505,4.71465730565778,-0.21201420650855504
0.9046087116071151,-4.04260040495173,4.712537163592694,-0.01938367518884407
0.8641827075575977,-4.040900015127261,4.712343326840806,0.18096830076606646
0.8237737074063252,-4.0367588261413845,4.7141530098484665,0.38812955300765506
0.7834061191449113,-4.031147657948845,4.718034305378543,0.6011708271094289
0.7430946425654229,-4.025102538453011,4.724046013649637,0.8191911818959904
0.7028436171808928,-4.019704541193578,4.732237925468597,1.041363676829945
0.662646571768957,-4.016061631317229,4.7426515622368965,1.2669790492068786
0.6224859554557848,-4.015294231714396,4.7553213527289655,1.4954856078523184
0.5823330131386408,-4.018525935630917,4.770276208807489,1.7265243161937955
0.5421477537823317,-4.026880438501978,4.787541451969426,1.9599588995415376
0.5018789493973119,-4.041485415141216,4.807141040964842,2.1959016829597546
0.46146409524589976,-4.063483796050343,4.829100057794439,2.4347366626957494
0.42082925728539633,-4.094052746801418,4.853447424421397,2.6771419858860073
0.37988872981738214,-4.134430649955109,4.8802188442802565,2.9241145455464577
0.3385444233178311,-4.18595252321202,4.909459989735721,3.1769997984849687
0.29668489808571086,-4.2500945377018065,4.941229987720571,3.4375301853900377
0.25418395270869276,-4.328528527426369,4.975605289574472,3.7078756230721277
0.2108986674344291,-4.423187396478432,5.012684045805193,3.990709250264736
0.16666679346964478,-4.536341691970089,5.05259113830784,4.289290409919316
0.12130337654994389,-4.670685359839711,5.095484042407033,4.607563484665865
0.07459652295154678,-4.829422746992836,5.141559677253692,4.950262823443343
0.02630229548161843,-5.016334685702375,5.191062305488126,5.322994301037198
-0.023861051375405326,-5.235769065846182,5.244292248498498,5.732219255046544
-0.07621874203386715,-5.492429536648988,5.301614441048963,6.184967196230949
-0.13114303740035704,-5.790682230144243,5.363464113011273,6.6878901358901
-0.18904985970179947,-6.132789824874692,5.430343014370174,7.244838505209891
-0.2503777579505464,-6.514936164652355,5.502791399422273,7.851374649595693
-0.31552711959706997,-6.919293655718342,5.58130514591823,8.483779145168475
-0.3847200561542534,-7.3011755986374,5.666142937369915,9.081191748506829
-0.4577318121406274,-7.577461820799409,5.756954854854983,9.529494039407563
-0.5335064303486216,-7.641019993990603,5.852249795249058,9.681426093153247
-0.6099166302885276,-7.428850653996869,5.949064056180591,9.4515272558937
-0.6842051368284963,-6.992033081406697,6.043579328739527,8.913072279552214
-0.7541254676425633,-6.45667203672291,6.1327100515350494,8.242747085874813
-0.8186921880097924,-5.925296950133132,6.215137522393798,7.583327426095844
-0.8779451575111237,-5.443722388827618,6.290970796654756,6.998356798167886
-0.9323823813993999,-5.0212859400788945,6.360954364636435,6.50082829724115
-0.9825952408001888,-4.652734033958056,6.425962647608847,6.083708928823262
-1.0291225811397693,-4.329075629972666,6.48679973689708,5.7349620936626975
-1.072413337439496,-4.0415449237537535,6.544149357833707,5.442982311284302
-1.1128287866770334,-3.782688376133543,6.598579180946549,5.198056565978425
-1.1506556704383688,-3.5464517337579533,6.6505597466063335,4.992455231569629
-1.1861201877759484,-3.3279808441997085,6.70048429892203,4.820136253786185
-1.2193999962179456,-3.123380128501548,6.748685661459891,4.676395408654088
-1.250633797502961,-2.9295013873572495,6.795449615546432,4.557559869563518
-1.2799288113765337,-2.743777283304991,6.841025214242067,4.460742716171198
-1.3073665842095836,-2.5640959182916787,6.885632641403779,4.383651938448244
-1.3330075433925004,-2.38870885735206,6.929469160788262,4.32444230526247
-1.356894631966021,-2.216165249846179,6.9727135838408865,4.281599192926213
-1.3790562844644827,-2.0452660738846458,7.015529575770149,4.2538456487326854
-1.3995089452033291,-1.8750338981527506,7.058068032257475,4.2400661800027875
-1.4182592841848567,-1.7046946170958261,7.100468694057503,4.239242650684394
-1.435306230355815,-1.5336683290208781,7.142861120564347,4.250399220192575
-1.450642913646024,-1.3615669289347485,7.185365112766273,4.272554548571816
-1.4642585829353714,-1.1881961357438842,7.228090658251991,4.304680594552938
-1.4761405442928102,-1.0135596310506516,7.27113746419752,4.345668293840017
-1.4862761406033167,-0.8378628292239486,7.31459414713592,4.394301225911506
-1.4946547688955563,-0.6615136184967245,7.358537159395035,4.449239013488984
-1.5012699050805236,-0.485117324820985,7.403029549529925,4.509012560542361
-1.5061210783287335,-0.30946328464669215,7.448119675135349,4.572033203731039
-1.5092157111752005,-0.13550089786792807,7.493840007172659,4.636617310236252
-1.5105707201538798,0.03569604007814259,7.540206180275022,4.701026730071026
-1.5102137597530985,0.20297654618948288,7.587216447575733,4.7635238334381516
-1.5081839942912036,0.36516929267685294,7.634851685910114,4.822437814492429
-1.5045323013644352,0.5211453646477894,7.683076064055038,4.876236868562641
-1.4993208477179574,0.6698816751836905,7.731838432740664,4.9235992189847355
-1.4926220309661204,0.8105189188637449,7.7810744249305115,4.963475261413636
-1.484516841777483,0.9424080673284463,7.830709177544648,4.995133642490745
-1.4750927611041986,1.0651406110719446,7.880660513969556,5.01818594305609
-1.4644413549934792,1.1785598452805586,7.930842373400116,5.032587490814977
-1.4526557565406735,1.2827530517078385,7.981168248308266,5.038615093327429
-1.439828226023595,1.3780268898833188,8.03155439924154,5.036825457316676
-1.426047957124762,1.4648701771684762,8.081922653814706,5.028000149389063
-1.4113992553530772,1.5439092027654657,8.132202655308596,5.013083838260831
-1.3959601633254226,1.6158607395521836,8.182333493691205,4.993122255519029
-1.3798015559299008,1.6814871697743887,8.232264716246396,4.969205108023099
-1.362986684232157,1.7415569349815154,8.281956767326626,4.9424174924723845
-1.3455711148823417,1.7968121823638925,8.33138094225135,4.913801615444805
-1.3276029930587028,1.847944266204485,8.380518958405798,4.88432911707707
-1.3091235503966578,1.895576826026689,8.429362249576569,4.854883195920783
-1.290167782136391,1.9402555513555126,8.477911081535776,4.826249068858506
-1.270765226622836,1.9824434314285482,8.52617357222436,4.79911101747414
-1.2509407923085505,2.022520211126162,8.574164682399102,4.774054272721347
-1.2307155901972888,2.060784854993272,8.621905225126316,4.751570168612274
-1.210107741647356,2.097459990021181,8.669420926812439,4.732063263764523
-1.1891331417471442,2.132697501453939,8.716741559450083,4.715859421829907
-1.167806166732605,2.1665846585462347,8.763900153668382,4.703214116960585
-1.1461403201471425,2.1991503284481198,8.810932294837988,4.6943204670509315
-1.1241488168626612,2.2303709870794233,8.857875499508497,4.689316687918709
-1.1018451069918669,2.260176354260016,8.904768666387683,4.688292806852451
-1.0792433434492668,2.288454568992685,8.951651594456209,4.691296579568947
-1.0563587977593398,2.3150568841230053,8.998564560251898,4.698338627849926
-1.0332082289181097,2.3398019026006605,9.045547946530398,4.709396863272192
-1.0098102098921031,2.3624794049002293,9.09264191516312,4.724420292002143
-0.9861854158431008,2.382853832786895,9.139886118083142,4.743332311912635
-0.9623568775152319,2.4006675016770016,9.187319441202268,4.766033620401051
-0.9383502024984619,2.415643614704503,9.234979777406279,4.792404852247115
-0.9141937663514169,2.4274891479447778,9.28290382592875,4.822309063736801
-0.8899188748719691,2.435897669205266,9.331126916566118,4.855594173464038
-0.8655598981799164,2.440552143094969,9.37968285830076,4.89209546253789
-0.8411543767489668,2.4411277631706847,9.428603812926138,4.9316382278261885
-0.81674309911726,2.4372948380846413,9.4779201952044,4.974040671574527
-0.7923701507364136,2.4287217429952013,9.527660601920145,5.019117099345899
-0.7680829333064616,2.415077930207898,9.577851772913604,5.066681485799811
-0.7439321540043826,2.3960369742988794,9.628518587771602,5.116551454498995
-0.7199717842613939,2.371279607147634,9.679684102316592,5.1685527039567605
-0.6962589881899175,2.3404966778122827,9.731369629356161,5.222523897968371
-0.6728540214117946,2.3033919516013817,9.783594868335845,5.278322024588276
-0.6498201018957808,2.2596846427415933,9.836378088581728,5.335828215861082
-0.6272232554683649,2.2091115565095483,9.889736370740339,5.394954010786067
-0.6051321399032694,2.1514287004094683,9.943685910848199,5.455648038426229
-0.5836178528991748,2.08641221068742,9.998242391232461,5.517903098182463
-0.5627537307923006,2.0138584307529546,10.053421422214285,5.5817636217729785
-0.542615146484771,1.9335829722129358,10.109239058432015,5.647333518138466
-0.5232793167626417,1.845418587103072,10.1657123936134,5.714784429999107
-0.504825130891611,1.7492116809701606,10.222860237913391,5.78436447058323
-0.4873330140819094,1.6448172997122708,10.280703882619223,5.856407562262008
-0.4708848410847867,1.5320924272183702,10.339267958241843,5.931343566096662
-0.455563916812603,1.410887434576997,10.398581393902809,6.009709472503545
-0.44145504246683304,1.2810355243182434,10.458678488627845,6.092162016953721
-0.4286446872236506,1.142340016008447,10.519600108797382,6.179492187101149
-0.41722128706356615,0.9945593276255796,10.581395030668395,6.2726421907760095
-0.4072756937873104,0.8373895332387502,10.644121452576154,6.372725540992717
-0.39890179845492285,0.6704444488034335,10.707848707986082,6.481050950592693
-0.39219735396688854,0.4932333687044676,10.77265921749201,6.599150648254877
-0.3872650202798439,0.3051369512410516,10.838650723974558,6.728813397759843
-0.38421365076743336,0.10538253247549934,10.905938857952156,6.872121667188972
-0.38315982544267835,-0.10697828362733736,10.974660074624046,7.031490557029989
-0.3842296082789517,-0.3330838323070171,11.044974980194345,7.20970229645586
-0.3875604466020219,-0.5742565148083812,11.117072003158905,7.409922516404718
-0.3933030117501057,-0.8319536049210987,11.191171228322952,7.635669629368868
-0.40162254779931666,-1.107630118736692,11.26752792461664,7.8906800961015335
-0.4126988489866836,-1.4024298930058294,11.346434725577655,8.17855906947149
-0.4267231479167419,-1.7165523952865556,11.42822031627237,8.502011233841412
-0.44388867186960745,-2.0480347719137897,11.513240428610784,8.86129493393022
-0.4643690195887453,-2.390560370025283,11.601853377950086,9.251356340884893
-0.4882746232889982,-2.729899242774621,11.694366941358934,9.657069489181966
-0.5155736157167444,-3.0391932125544834,11.790937636250755,10.04680093476763
-0.5459655478422892,-3.2755453792768625,11.89140564559843,10.367553519831676
-0.5787210016350579,-3.384656301718686,11.995081180796747,10.550797356076206
-0.6125675646522448,-3.3213216863403288,12.10058915435751,10.539603427745309
-0.6457807815156481,-3.078922963291988,12.205985188634962,10.32769112095249
-0.676570011148568,-2.6983884245421037,12.309262099844487,9.970418231945652
-0.703553895393989,-2.2421559543925627,12.408966282163943,9.549002781771083
-0.7259754549379147,-1.7620779462863796,12.504456309981654,9.128011712219095
-0.7435962344007785,-1.2881615792294432,12.595736427103844,8.741732069874915
-0.7564778501930729,-0.8333051393736238,12.683153747802594,8.40166105420067
-0.7648109015868091,-0.40097500323493523,12.7671703583446,8.10722134862309
-0.7688206516191585,0.009515411369091842,12.84824257183083,7.852818623040346
-0.7687254975054676,0.4002398454448178,12.926770758061235,7.631380345925676
-0.7647230990510194,0.7734052963752809,13.003084561520492,7.435862845495726
-0.7569890460872666,1.1308526910809473,13.07744318997545,7.259789265755892
-0.7456805191764571,1.473902081138176,13.150041082633008,7.097375573999974
-0.7309414983650753,1.8033462927103716,13.221014838373007,6.943502788968732
-0.7129080354379715,2.1195049100553667,13.290449866262694,6.7936467137505945
-0.6917129863374178,2.422300690591368,13.3583863334002,6.643809554460499
-0.6674899794315041,2.7113428181700927,13.424824428944804,6.490468466891552
-0.6403765512498032,2.986010835433317,13.48972911361372,6.330543554306124
-0.61051644289547,3.2455367372162702,13.55303454915678,6.161382687207587
-0.5780610755233073,3.489083823559137,13.614648376028857,5.9807585692856176
-0.543170237287716,3.7158210161859775,13.674455961721714,5.786872947750995
-0.5060120271258561,3.9249911448515262,13.732324691199224,5.578363015318611
-0.4667621156773409,4.115971539972432,13.78810832135241,5.35430556799656
-0.42560240027761653,4.288325266926804,13.841651377032376,5.1142152318020475
-0.38271914760834846,4.441841544588877,13.892793529350396,4.858033973387882
-0.3383007321624597,4.576564286895643,13.941373869084275,4.586110097932572
-0.29253508929350325,4.692808240594174,13.9872349700636,4.2991659476615665
-0.2456070068875615,4.791162801081848,14.030226629540216,3.9982544845755603
-0.19769537887674304,4.872484208439421,14.070209174385973,3.684705817862784
-0.14897053679234884,4.937877403156882,14.1070562325646,3.3600654768511826
-0.09959176276078002,4.988669313166622,14.140656887333112,3.0260268006091966
-0.0497050696291138,5.026375719216597,14.170917155339204,2.684360189560688
0.0005586875630521695,5.052664082149247,14.19776075723481,2.3368421241412105
0.05108532838454464,5.069314799311542,14.221129178476223,1.9851867918580548
0.10177847637766005,5.078183282985158,14.240981046394804,1.630982883580145
0.15256030920751162,5.081165026778662,14.257290875230606,1.2756376499803523
0.20337195947529824,5.080165463044248,14.270047251730409,0.9203297019416302
0.25417361410574074,5.077075941437556,14.279250548749825,0.5659713707733061
0.3049443735201163,5.073756604414974,14.284910262457558,0.21318081172788828
0.355681939564266,5.072026320188932,14.287042070574836,-0.13773645050169098
0.40640220276615535,5.073659153893355,14.28566470606982,-0.48679704541570956
0.4571387943050889,5.080386064986606,14.280796735615663,-0.8343406408958061
0.5079426549549549,5.093899491122741,14.272453329206705,-1.1810216181433897
0.5588816498661824,5.115856977790606,14.26064311302527,-1.5277891360748623
0.6100402196440884,5.147877619947999,14.245365221664523,-1.875849838167933
0.6615189958435683,5.191521099717758,14.226606723282844,-2.2266016880882735
0.7134342068407459,5.248232433852866,14.204340706401961,-2.581517777655145
0.7659165311792745,5.3192245997561205,14.178525528625409,-2.941943301059901
0.8191087771768357,5.405254136857548,14.14910609561481,-3.308744734585562
0.8731613185454112,5.506220858558096,14.116018648268954,-3.681716643209227
0.9282235271309922,5.620496948345247,14.079201481836861,-4.058615587799434
0.9844284966144446,5.743886236329152,14.038615325958867,-4.433685160191823
1.041867358977736,5.868198963087591,13.99427847435695,-4.795656239301486
1.100549348608612,5.979742616532524,13.946321911963935,-5.125650986499792
1.160346774773937,6.0587400496994395,13.895065402098936,-5.396417524656635
1.2209341752709315,6.081605173479015,13.84110122685237,-5.575607615387755
1.2817502270057217,6.027809571627514,13.785345150698493,-5.635513542555125
1.342028322721997,5.889626973822555,13.728990015272942,-5.566806035331675
1.4009245924602225,5.677778814337441,13.673321954919626,-5.386407563477115
1.457702380603597,5.416916315349985,13.619457879284855,-5.130971677279542
1.5118715437570969,5.134405672523622,13.56814816251206,-4.840917209541859
1.563215600482333,4.8514897112334525,13.519738990416641,-4.547859483141332
1.6117304975946676,4.580820294731577,13.474260395585228,-4.271082360504255
1.6575387005419833,4.3281224019063425,13.431549571980185,-4.019881783963799
1.7008199245610467,4.094809374629699,13.391350754140547,-3.7972770562201372
1.7417680183073436,3.8800403759254696,13.353377983578346,-3.6029458544960002
1.7805684220665983,3.6819876052338025,13.317348525033387,-3.4350451567677323
1.8173882981189362,3.498517904844741,13.28299807346571,-3.291202070897301
1.8523734771673837,3.3275229466043967,13.250086052756735,-3.169003571070593
1.8856487066334275,3.1670597725537246,13.218396017046029,-3.0662135861320206
1.9173193043589647,3.0153959718301833,13.187733881184709,-2.9808512350189518
1.9474732640772665,2.871010113665343,13.157925368834519,-2.9112024789520223
1.97618336521392,2.7325732971650156,13.128813344045,-2.855802414664355
2.00350909818557,2.5989244927770034,13.100255319898356,-2.8134066683894283
2.02949834311334,2.46904557552192,13.072121253214462,-2.782960639154415
2.054188798868559,2.3420385625941327,13.044291646822918,-2.763570433115723
2.0776091844945004,2.217105925319321,13.016655942491761,-2.7544769120693604
2.0997802437476936,2.093534086268817,12.989111173371068,-2.755033129640513
2.1207155846103816,1.9706798927350915,12.961560842074663,-2.7646849170976284
2.1404223835377323,1.8479597514276462,12.933913992903687,-2.7829541839323175
2.1589019810520087,1.7248411017220988,12.906084451064364,-2.8094244520121774
2.1761503920692298,1.6008359388476863,12.877990206544242,-2.843728163810273
2.1921587514577068,1.4754961458380154,12.849552924906138,-2.885535354540713
2.2069137129160867,1.3484104403068151,12.820697571360732,-2.9345433361270636
2.2203978173191548,1.2192027827474312,12.79135213799946,-2.990467099934706
2.232589845146629,1.0875321240986264,12.761447467000114,-3.0530302027992113
2.2434651663876153,0.9530933902676569,12.730917164972121,-3.1219559575074003
2.252996100290292,0.815619609217091,12.699697605397047,-3.1969588062163985
2.261152296382463,0.6748850813433719,12.667728017334882,-3.277735815432068
2.267901147195897,0.5307094755459361,12.634950659180562,-3.363958296101759
2.273208241951356,0.3829627011910117,12.601311076219545,-3.455263623546167
2.277037868963266,0.23157036023865463,12.566758439984083,-3.551247409808186
2.2793535725656526,0.07651952521513031,12.531245965886,-3.6514562645035977
