th1 (rad),w1 (rad/s),th2 (rad),w2 (rad/s)
0.24996816700766147,-0.8990361284927855,3.033345357293328,-1.2528964037365917
0.2409778057227336,-0.9485060814530848,3.020816393255962,-1.3126475401544873
0.23149274490820276,-0.9971161930779899,3.007689917854417,-1.3731028496065119
0.22152158297742286,-1.0447975276017958,2.993958889358352,-1.4342722796140253
0.2110736077014049,-1.0914789560172835,2.9796161665622116,-1.4961633067979527
0.20015881814123207,-1.1370869946492688,2.9646545334942322,-1.5587806793977388
0.18878794819473937,-1.1815456371592201,2.949066726700255,-1.622126148278949
0.17697249182314717,-1.2247761796509349,2.9328454652174654,-1.686198185044858
0.16472473002663782,-1.2666970387960188,2.915983483367017,-1.7509916860711017
0.15205775963867763,-1.3072235632527913,2.898473566506306,-1.8164976616248256
0.13898552400614972,-1.3462678391295821,2.8803085898900576,-1.8827029097360701
0.12552284561485388,-1.3837384908593149,2.8614815607926967,-1.949589675185692
0.11168546070626073,-1.4195404796216475,2.84198566404084,-2.0171352948872068
0.09749005591004425,-1.4535749023841282,2.821814311091968,-2.085311832094397
0.08295430688620298,-1.48573879574303,2.800961192771024,-2.1540857032840046
0.06809691892877268,-1.5159249500297223,2.779420335738184,-2.2234173032593114
0.052937669428475456,-1.5440217406029,2.7571861627055907,-2.293260636003353
0.037497452022446455,-1.5699129848523656,2.734253556345557,-2.3635629610752984
0.021798322173922798,-1.5934778351630974,2.710617926734804,-2.4342644678692356
0.005863543822291824,-1.6145907198773652,2.6862752820561115,-2.5052979927996395
-0.010282363376481828,-1.6331213460740641,2.661222302128115,-2.5765887973747517
-0.02661357683722247,-1.6489347796594136,2.6354564141543673,-2.648054428070325
-0.043102924633816604,-1.6618916197053109,2.608975869873664,-2.719604681789282
-0.05972184083086971,-1.6718482850257934,2.581779823055771,-2.7911417033180594
-0.07644032368112764,-1.6786574314655658,2.5538684060225907,-2.86256024335979
-0.0932268979957833,-1.6821685180810866,2.5252428035889927,-2.9337481071943836
-0.11004858317659418,-1.6822285391024416,2.4959053225170487,-3.0045868245137375
-0.1268708685676186,-1.6786829360482565,2.465859454271911,-3.0749525702180307
-0.14365769792810115,-1.6713767004161637,2.435109928569731,-3.1447173636503534
-0.16037146493226279,-1.6601556718156631,2.4036627549332277,-3.213750569633999
-0.17697302165041942,-1.6448680291420323,2.3715252492368877,-3.2819207185625734
-0.19342170194183975,-1.6253659633990525,2.3387060420512618,-3.3490976545788698
-0.20967536157583028,-1.6015075101818221,2.305215065505473,-3.415155010603898
-0.2256904366776485,-1.573158507900627,2.271063515399434,-3.4799729968590887
-0.24142202175665475,-1.5401946350077735,2.236263785430843,-3.5434414759875277
-0.25682396810673247,-1.5025034664042474,2.200829370670968,-3.6054632835750784
-0.27184900277077495,-1.4599864766372066,2.164774737835217,-3.665957738673914
-0.28644886753714704,-1.4125609063611122,2.128115160448478,-3.7248642759086192
-0.30057447660075814,-1.360161399791574,2.0908665176893915,-3.7821461201045716
-0.3141760905986739,-1.3027413154681027,2.0530450564883456,-3.8377939173753397
-0.32720350375335494,-1.2402736113589967,2.014667117314592,-3.8918292344343746
-0.33960623986694494,-1.1727512087363015,1.9757488249702482,-3.9443078415650965
-0.35133375195430794,-1.100186747510417,1.9363057465545972,-3.9953227048941553
-0.3623356194294121,-1.0226116585894485,1.8963525195056556,-4.045006630659046
-0.3725617360153066,-0.9400744955772365,1.855902453199065,-4.093534527868509
-0.381962480971079,-0.8526384875234451,1.81496710792038,-4.141125285473342
-0.3904888658463134,-0.7603782948447155,1.7735558550656465,-4.188043294832848
-0.3980926487947606,-0.6633759699938973,1.731675422117318,-4.2345996865241915
-0.40472640849469954,-0.5617161408525229,1.689329425252076,-4.281153390932459
-0.4103435699032248,-0.45548044605960125,1.6465178913427514,-4.328112173214098
-0.4148983743638208,-0.3447412556443771,1.6032367696106105,-4.375933834104192
-0.4183457869202646,-0.229554705795153,1.5594774312695685,-4.425127808120591
-0.4206413339782161,-0.10995306217747769,1.5152261531883626,-4.476257430157758
-0.4217408645999909,0.014063598811769148,1.470463578886785,-4.529943181150303
-0.4216002286118732,0.14253643732791438,1.425164147075282,-4.586867265000817
-0.420174864238594,0.27555771873624946,1.379295474425274,-4.647779914369949
-0.41741928705123155,0.4132816522864097,1.3328176752815744,-4.71350787430302
-0.4132864705283674,0.5559364114433423,1.285682596538544,-4.784965571241796
-0.407727106413934,0.7038376132149053,1.2378329408261262,-4.863169539449221
-0.400688730281785,0.8574035933047603,1.1892012454316339,-4.949256740311993
-0.39211469434873736,1.017172849498138,1.139708678028514,-5.044507453794834
-0.381942965853756,1.1838240023689333,1.0892636034905656,-5.150373403756939
-0.37010472583006665,1.358198471444747,1.0377598694529961,-5.268511612711484
-0.35652274111561916,1.5413256521163528,0.9850747533258813,-5.4008239909712925
-0.3411094845944556,1.734449442613158,0.9310665134161684,-5.54950150102332
-0.32376499016832405,1.9390530045505014,0.8755714984059352,-5.71706921462676
-0.30437446012281905,2.15687466524157,0.8184008062596676,-5.906423358636571
-0.28280571347040334,2.389900004555878,0.7593365726733019,-6.120840934536317
-0.25890671342484456,2.640299860879187,0.6981281633279387,-6.363921764237077
-0.2325037148160527,2.910254762647396,0.6344889456855679,-6.639382802294466
-0.20340116718957874,3.201552244738718,0.5680951176626232,-6.950549881408022
-0.17138564474219156,3.514749737025215,0.498589618848543,-7.299261346284263
-0.1362381473719394,3.847554998173403,0.4255970053857004,-7.683699687344516
-0.09776259739020537,4.191942519723153,0.3487600085122552,-8.09447344693682
-0.05584317219297385,4.5296802712765745,0.26781527404288696,-8.508470355050482
-0.010546369480208102,4.827218139763459,0.18273057049238214,-8.881747685102795
0.03772581191742649,5.034556427580849,0.0939130936413542,-9.147791036879504
0.08807137619323499,5.097347008338215,0.0024351832725591632,-9.233906651209479
0.13904484627661715,4.986088334028335,-0.08990388323953562,-9.101070716392591
0.1889057296169005,4.72106925842356,-0.18091459040346153,-8.777745297083625
0.2361164222011361,4.361227887449781,-0.26869204337429775,-8.344037600776407
0.2797287010756339,3.967469788269196,-0.3521324193820618,-7.881388175216465
0.31940339895832587,3.5795140358033244,-0.43094630113422644,-7.441562212718328
0.35519853931635914,3.215681903642346,-0.5053619232614097,-7.047128805253216
0.3873553583527826,2.881205616666475,-0.5758332113139419,-6.703198532281985
0.4161674145194474,2.5751728123663353,-0.6428651966367618,-6.406963164965653
0.4419191426431107,2.294394042331352,-0.7069348282864183,-6.152892248287675
0.4648630830664242,2.0351887969288285,-0.7684637507692951,-5.935062034264688
0.4852149710357125,1.7941035492796358,-0.827814371111942,-5.748041862251424
0.5031560065285089,1.5681462017035215,-0.8852947897344563,-5.5871431917745555
0.5188374685455441,1.3548197843796226,-0.9411662216522019,-5.448414183928056
0.5323856663893404,1.1520817769433829,-0.9956503634914824,-5.328547358391513
0.5439064841587742,0.9582824970397482,-1.0489358370753976,-5.2247691115761805
0.5534893091291717,0.7721036444976909,-1.1011835281911595,-5.13473691780701
0.5612103455741486,0.592504200425543,-1.1525308973692296,-5.056452081962
0.5671353875784041,0.4186751570370857,-1.2030954181888496,-4.988188823035085
0.5713221391487749,0.25000237497375793,-1.2529773064192005,-4.928437981120175
0.5738221628985125,0.08603618906145924,-1.3022616862304022,-4.875863030948259
0.5746825247891271,-0.07353368170330415,-1.3510203165398849,-4.829266184566341
0.573947187972094,-0.22889920315826617,-1.3993129783855482,-4.78756268371593
0.5716581959405114,-0.3801521309267969,-1.4471886052227076,-4.749761722807656
0.5678566746312435,-0.5272999800396314,-1.4946862224507842,-4.7149527361398915
0.5625836748308471,-0.6702804796525441,-1.541835749812183,-4.682296011130376
0.5558808700343217,-0.8089749503364532,-1.5886587099234868,-4.65101675694902
0.5477911205309572,-0.9432208836637203,-1.635168877492977,-4.620401876792071
0.53835891169432,-1.0728238700925647,-1.6813728962608976,-4.589798775770574
0.5276306729933944,-1.1975689109050132,-1.7272708840186033,-4.558615598176069
0.5156549838843443,-1.3172310634879612,-1.772857040000364,-4.526322339360991
0.5024826732494647,-1.4315853073441862,-1.818120263393974,-4.49245232810697
0.48816682017602286,-1.5404154815045905,-1.8630447866750437,-4.456603632057538
0.47276266536097694,-1.6435221322949702,-1.907610822995619,-4.4184400056151265
0.4563274440380272,-1.740729122172171,-1.9517952230517703,-4.3776910777516065
0.43892015281630553,-1.8318888824756545,-1.9955721338292864,-4.334151564783594
0.42060126399154896,-1.9168862407846028,-2.0389136494771223,-4.28767938632918
0.4014324015837029,-1.9956408112747264,-2.081790443340414,-4.238192655821806
0.3814759934709556,-2.0681079975750936,-2.124172369898632,-4.18566560387694
0.3607949134952047,-2.134278715791026,-2.166029025937401,-4.130123567556498
0.33945212633729444,-2.194177995070079,-2.207330261612966,-4.071637236383347
0.31751034638659364,-2.24786265023494,-2.2480466339767995,-4.010316383831816
0.29503171988424426,-2.2954182432319334,-2.2881497978151177,-3.9463033300461814
0.2720775374519249,-2.3369555569160663,-2.3276128311155797,-3.8797663788402876
0.24870798188276427,-2.3726067971295306,-2.3664104949039824,-3.810893452435132
0.22498191391146896,-2.402521719518878,-2.404519429428334,-3.7398861148987783
0.2009566967162802,-2.4268638492560366,-2.4419182905773216,-3.666954134427793
0.17668805822371983,-2.4458069282531207,-2.4785878319215997,-3.5923106899921415
0.1522299889411886,-2.459531688921717,-2.514510938821521,-3.516168283499606
0.12763467205197143,-2.468223018888262,-2.549672621656517,-3.4387353777507377
0.10295244186308881,-2.47206754954154,-2.5840599754340245,-3.36021374531651
0.07823176636767341,-2.4712516743297646,-2.6176621128871895,-3.2807964853770346
0.053519249624375764,-2.4659599811194957,-2.6504700777409598,-3.200666644950801
0.02885964981318081,-2.4563740668578196,-2.6824767441904678,-3.1199963675746676
0.004295909144602612,-2.4426716919666975,-2.7136767078662145,-3.0389464856345403
-0.020130807775064364,-2.4250262257577364,-2.74406617272256,-2.957666471172544
-0.04438107003264173,-2.403606331925114,-2.773642837434285,-2.8762946629596318
-0.06841713335189287,-2.3785758440285845,-2.8024057840638816,-2.7949586937765525
-0.09220289179217872,-2.3500937840112224,-2.830355371001647,-2.713776050135399
-0.11570382963229095,-2.3183144814762984,-2.857493131503001,-2.6328547061863787
-0.13888697444705395,-2.2833877570481094,-2.883821678564865,-2.5522937835443855
-0.16172085201753506,-2.2454591391537675,-2.909344616400309,-2.4721841986597206
-0.18417544340907274,-2.204670089593489,-2.9340664583869063,-2.3926092687247182
-0.20622214430500763,-2.161158219027943,-2.9579925510741534,-2.3136452556660942
-0.22783372649528705,-2.1150574788056637,-2.9811290036308145,-2.2353618353460916
-0.2489843012833437,-2.0664983202590466,-3.003482621984275,-2.157822485596842
-0.26964928448593417,-2.0156078166505127,-3.0250608468402436,-2.081084792121761
-0.2898053626524393,-1.9625097463323893,-3.0458716947614612,-2.0052006756440517
-0.3094304601157632,-1.9073246384087927,-3.0659237015179017,-1.9302165470284542
-0.3285037064998511,-1.8501697842921851,-3.0852258669881865,-1.856173399533492
-0.34700540434277294,-1.791159220083212,-3.1037876009835212,-1.7831068489665043
-0.36491699654360504,-1.730403685731044,-3.1216186694731864,-1.71104713341822
-0.3822210334009155,-1.6680105675185481,-3.1387291408073685,-1.6400190845550626
-0.398901139076101,-1.6040838306294192,-3.155129331652919,-1.5700420822514658
-0.4149419773823952,-1.5387239484590742,-3.1708297524754334,-1.5011300037525344
-0.43032921686698594,-1.4720278349909444,-3.185841052512959,-1.4332911776642931
-0.4450494952168954,-1.4040887860339435,-3.200173964289602,-1.3665283519615503
-0.4590903830772348,-1.3349964344593692,-3.2138392478092173,-1.3008386839601438
-0.4724403474218285,-1.2648367238345077,-3.2268476346488186,-1.2362137588894349
-0.48508871466017356,-1.1936919040677645,-3.239209772237713,-1.1726396423806358
-0.4970256337008512,-1.1216405518917318,-3.2509361686615197,-1.1100969709049235
-0.5082420392197685,-1.0487576182452025,-3.262037138370569,-1.048561082990101
-0.5187296154022205,-0.97511450389532,-3.27252274920047,-0.9880021929438478
-0.5284807604411738,-0.900779163983249,-3.2824027711299086,-0.928385607834086
-0.5374885520810062,-0.8258162415916298,-3.2916866272082497,-0.8696719876329759
-0.5457467144969225,-0.7502872299251387,-3.3003833470845794,-0.8118176477232564
-0.5532495867961739,-0.6742506622675728,-3.308501523561812,-0.7547749023902732
-0.5599920934188496,-0.5977623285269391,-3.3160492725857145,-0.6984924474708564
-0.565969716704119,-0.5208755168977638,-3.323034197060423,-0.6429157799876629
-0.5711784718730967,-0.4436412789484121,-3.3294633548602994,-0.5879876523479355
-0.5756148846625808,-0.36610871627001457,-3.3353432313837788,-0.5336485585098645
-0.579275971825281,-0.2883252866908327,-3.3406797169688773,-0.479837249397733
-0.5821592246921894,-0.2103371279533091,-3.345478089462855,-0.426491274758253
-0.5842625959717225,-0.13218939665840546,-3.3497430022104373,-0.3735475485749287
-0.5855844899383066,-0.05392662019152426,-3.3534784776961866,-0.320942935076003
-0.5861237561402218,0.024406940754213874,-3.3566879070469464,-0.26861485226741905
-0.5858796867326796,0.10276692155739671,-3.3593740555696208,-0.21650188978040824
-0.5848520175171057,0.18110847759087534,-3.3615390744674247,-0.16454443763172533
-0.583040932741197,0.25938590549786034,-3.363184518843742,-0.11268532224430622
-0.5804470736862184,0.3375522648342341,-3.3643113720661852,-0.060870445761928765
-0.5770715510378761,0.41555900332429785,-3.3649200765238043,-0.009049424311924605
-0.5729159610046332,0.49335558924118067,-3.365010570766924,0.04282377957201867
-0.5679824051122213,0.5708891547108732,-3.3645823329712035,0.09479023565209896
-0.5622735135651126,0.6481041540415953,-3.3636344306146824,0.14688544163918021
-0.5557924720246966,0.7249420414863414,-3.3621655761982905,0.19913874218847735
-0.5485430516098332,0.8013409731415939,-3.360174188776406,0.2515727782025541
-0.5405296418784172,0.8772355379524772,-3.3576584609943803,0.3042029739575112
-0.5317572864988924,0.952556523015171,-3.3546164312548052,0.35703707006943997
-0.5222317212687407,1.0272307185208045,-3.351046060554111,0.41007471073617596
-0.5119594140835327,1.1011807677502634,-3.346945313446749,0.4633070939888809
-0.5009476064060301,1.1743250674854344,-3.34231224250686,0.5167166938327377
-0.48920435573117577,1.2465777240297329,-3.337145075568533,0.5702770631103411
-0.4767385784908784,1.3178485697120288,-3.3314423049374295,0.6239527256517895
-0.46356009279375815,1.3880432442696116,-3.3252027776809117,0.6776991657529069
-0.44967966035106205,1.457063344858766,-3.318425786023383,0.7314629222247244
-0.4351090269024744,1.5248066476228925,-3.3111111568011355,0.7851817931690229
-0.41986096042624543,1.591167402761853,-3.303259338869445,0.8387851562524455
-0.40394928639862693,1.65603670390382,-3.2948714873069207,0.8921944075834304
-0.38738891935958875,1.7193029313017225,-3.2859495432310863,0.9453235203630539
-0.3701958900465715,1.7808522669875666,-3.276496308027456,0.9980797223174627
-0.35238736737669585,1.840569278553832,-3.266515510804281,1.0503642885738884
-0.3339816745911575,1.8983375667323399,-3.2560118679185424,1.1020734441745907
-0.31499829892383413,1.9540404704526613,-3.2449911334767965,1.1530993679041963
-0.2954578942193075,2.0075618216322044,-3.2334601397977547,1.203331286614359
-0.2753822760029855,2.058786740627121,-3.2214268269316113,1.252656646848491
-0.25479440859671426,2.1076024621037575,-3.2089002604631265,1.300962348382305
-0.23371838397567668,2.1538991801171465,-3.1958906369793034,1.3481360223835315
-0.2121793921745052,2.197570900442213,-3.182409276755468,1.3940673353296136
-0.19020368317008307,2.238516287723106,-3.168468603402172,1.4386492986676278
-0.16781852029285202,2.276639494804951,-3.1540821104154957,1.4817795635042001
-0.1450521253448025,2.311850961698713,-3.1392643147804535,1.5233616794063503
-0.12193361572781536,2.3440681720015606,-3.12403069798639,1.5633062966906839
-0.09849293400779975,2.3732163552399603,-3.108397635019483,1.6015322923735125
-0.07476077045540015,2.399229124499273,-3.0923823120957477,1.6379678012259264
-0.05076847921040742,2.4220490398229253,-3.0760026340834883,1.6725511350869546
-0.026547988812178167,2.441628089171143,-3.0592771227326185,1.7052315756820997
-0.002131707920466734,2.457928080184682,-3.0422248069757973,1.735970028609971
0.022447572881380086,2.470920937561514,-3.0248651066896977,1.7647395288246133
0.047156782256995225,2.4805889024822463,-3.0072177114014513,1.7915255907788528
0.07196267128181769,2.48692463217237,-2.9893024554936627,1.8163263993262928
0.09683191760354139,2.489931199327927,-2.9711391915004,1.8391528404294117
0.12173122959682066,2.489621992720675,-2.952747663096106,1.8600283736152239
0.1466274495240274,2.486020521808238,-2.934147379359954,1.8789887508904541
0.17148765474210978,2.479160129577014,-2.9153574918510494,1.8960815894147733
0.1962792560378799,2.4690836191182504,-2.8963966759569018,1.9113658075812507
0.22097009222906241,2.4558428005623227,-2.8772830178810893,1.9249109362247707
0.24552852023468563,2.4394979659587204,-2.8580339085188418,1.9367963184380623
0.26992349989427283,2.4201173004792786,-2.838665945334461,1.947110212897021
0.29412467289906563,2.3977762389333073,-2.8191948432054907,1.955948816667346
0.3181024352883987,2.3725567770125475,-2.7996353550388173,1.9634152241774523
0.3418280030585242,2.3445467469319308,-2.7800012027970427,1.9696183394011768
0.3652734705278435,2.313839067202888,-2.760305019403031,1.97467175830924
0.38841186119987237,2.280530976176827,-2.7405583018199384,1.9786926383396997
0.4112171709616406,2.244723258737953,-2.7207713754365415,1.981800571030655
0.43366440354902014,2.2065194751205763,-2.700953369726235,1.9841164730853051
0.4557295983002259,2.1660252002931366,-2.681112204995382,1.985761510037466
0.4773898503031573,2.123347281708594,-2.6612545898950075,1.9868560653962495
0.4986233231202432,2.078593122490145,-2.641386029241045,1.9875187667162961
0.5194092543451446,2.0318699963254874,-2.621510841573882,1.9878655785108612
0.5397279543083995,1.9832843995063183,-2.601632185788773,1.9880089703457478
0.5595607983034626,1.9329414446968336,-2.5817520960853155,1.9880571668681117
0.578890212750431,1.880944300169782,-2.5618715244166346,1.9881134849788173
0.5976996557521288,1.8273936774338437,-2.5419903895668465,1.9882757618900124
0.6159735925264672,1.7723873694124852,-2.5221076319479465,1.9886358764559564
0.6336974662205921,1.7160198406398686,-2.502221273183387,1.9892793649541791
0.6508576646269908,1.6583818703282014,-2.4823284795338454,1.9902851314484904
0.6674414833302728,1.5995602486432272,-2.4624256282193606,1.991725252000605
0.683437085816705,1.5396375261056665,-2.4425083756993544,1.9936648713206464
0.6988334610777617,1.4786918157162818,-2.4225717269861478,1.996162189957601
0.7136203792349245,1.4167966471749351,-2.4026101050865716,1.999268539819121
0.7277883457066738,1.3540208724174134,-2.3826174196883803,2.00302854565698
0.741328554430848,1.2904286216091774,-2.3625871342318105,2.0074803701316126
0.7542328406469397,1.2260793086870683,-2.3425123305304942,2.0126560401386655
0.7664936337338104,1.1610276854960728,-2.3223857701291077,2.0185818521949783
0.7781039105887712,1.0953239434896915,-2.302199951607158,2.0252788547845366
0.789057150023668,1.029013861804592,-2.2819471630593124,2.0327634055921426
0.799347288641714,0.9621390002338309,-2.261619529003391,2.0410478014329168
0.8089686786440523,0.8947369351563147,-2.241209050989062,2.050140978344731
0.8179160479956155,0.8268415357823449,-2.2207076412056144,2.060049278674387
