th1 (rad),w1 (rad/s),th2 (rad),w2 (rad/s)
2.10418938464659,2.5016970672284424,2.1618100488957412,-0.9109311908072085
2.1292063553188743,2.418517809320425,2.152700736987669,-0.9128710386010478
2.1533915334120786,2.3357539780810725,2.1435720266016585,-0.913375074359645
2.176749073192889,2.253832113553325,2.134438275858062,-0.9132806285354229
2.1992873943284224,2.1731395559730435,2.125305469572708,-0.9133525072783135
2.2210187898881526,2.0940143795791966,2.1161719444999245,-0.9142687158271166
2.2419589336839447,2.016739405679986,2.107029257341653,-0.9166124679943983
2.2621263277407446,1.9415399462294283,2.097863132661709,-0.9208698970682351
2.281541727203039,1.8685846272229587,2.0886544336910267,-0.9274324478723746
2.3002275734752686,1.7979885071538364,2.0793801092123028,-0.9366027412550706
2.318207458546807,1.7298177082524828,2.070014081799752,-0.9486027143123967
2.3355056356293318,1.6640948716003974,2.060528054656628,-0.9635829848782111
2.352146584345336,1.6008048866398106,2.050892224807846,-0.9816326012560659
2.3681546332117343,1.5399004957824611,2.041075898795285,-1.0027885658549474
2.383553638169559,1.4813075127387614,2.0310480131367354,-1.0270447303888905
2.3983667132969466,1.4249295069950774,2.0207775658328466,-1.0543598330930488
2.4126160083668973,1.3706518930007672,2.0102339675019163,-1.0846645796848624
2.426322527296905,1.3183454226838467,1.9993873217050677,-1.117867761875323
2.4395059815237436,1.2678691180699437,1.9882086440863145,-1.1538614662722597
2.452184672704443,1.2190727020095156,1.976670029423592,-1.1925254598963804
2.4643753997245383,1.1717985940562257,1.964744774824628,-1.2337308533053353
2.4760933856651004,1.125883539380208,1.9524074662915747,-1.277343144474696
2.4873522210589023,1.0811599343580398,1.9396340348468277,-1.3232247408064006
2.4981638204024827,1.0374569054400673,1.9264017874387638,-1.37123704638343
2.5085383894568833,0.994601189643378,1.9126894169749296,-1.4212421892855913
2.518484401353317,0.952417856603952,1.8984769950820737,-1.4731044510362326
2.528008579919357,0.9107309041974467,1.8837459505717113,-1.5266914480748297
2.5371158889613312,0.8693637526795663,1.868479036090963,-1.5818751041315149
2.545809526488127,0.8281396562902531,1.8526602850496479,-1.6385324428107664
2.55409092305103,0.7868820463728513,1.8362749606215403,-1.6965462216721467
2.5619597435147585,0.7454148162619612,1.8193094984048188,-1.7558054225992703
2.569413891677378,0.7035625554239936,1.801751444178826,-1.8162056081674534
2.576449517231618,0.6611507384943854,1.7835893880971516,-1.8776491499007804
2.583061024616562,0.6180058738300148,1.7648128965981438,-1.9400453315688855
2.589241083354862,0.5739556158617138,1.745412443282455,-2.0033103288193046
2.594980639513479,0.5288288457658449,1.7253793399942619,-2.067367065279238
2.6002689279711375,0.48245572565550177,1.7047056693414695,-2.132144944605942
2.6050934852276924,0.4346677325087254,1.68338421989541,-2.197579457648374
2.6094401625527794,0.3852976793017887,1.6614084253189263,-2.263611663755957
2.613293139345797,0.33417973221169617,1.6387723086813668,-2.330187545210864
2.6166349366679142,0.28114943421909727,1.6154704332292582,-2.3972572336737836
2.6194464310101053,0.22604374692015766,1.5914978608925203,-2.4647741073555562
2.621706868479307,0.16870112379542818,1.5668501198189648,-2.5326937573243726
2.623393879717261,0.10896162954741062,1.5415231822457212,-2.6009728209259753
2.624483496012735,0.0466671213752567,1.5155134540364614,-2.66956767975602
2.6249501672264874,-0.018338490823320792,1.4888177772389013,-2.7384330190289172
2.6247667823182543,-0.08620888737605636,1.461433447048612,-2.807520244609302
2.623904693444494,-0.15709486618332025,1.433358244602519,-2.876775753505531
2.6223337447826607,-0.2311437352779126,1.4045904870674637,-2.9461390533836185
2.6200223074298816,-0.30849855118975117,1.3751290965336276,-3.0155407267769396
2.616937321917984,-0.3892971839034821,1.3449736892658581,-3.0849002362900624
2.613044350078949,-0.47367118989055157,1.3141246869029575,-3.154123568386618
2.6083076381800434,-0.5617444760181789,1.2825834512190912,-3.223100715485367
2.6026901934198614,-0.6536317392408235,1.2503524440642375,-3.291702999247753
2.596153876027453,-0.7494366700436567,1.21743541407176,-3.359780242309179
2.5886595093270164,-0.8492499118302248,1.1838376116486682,-3.4271578014645687
2.580167010208714,-0.9531467740378998,1.1495660336340225,-3.493633482629499
2.5706355424683354,-1.0611847039353917,1.1146296988077276,-3.558974366892672
2.5600236954289812,-1.1734005310016735,1.0790399551388008,-3.6229135877336476
2.5482896901189647,-1.28980750866388,1.0428108192614642,-3.685147112006157
2.5353916150323257,-1.4103921910795412,1.0059593481414026,-3.7453305914825514
2.5212876931215304,-1.535111197589648,0.9685060422265771,-3.803076367384482
2.505936581145634,-1.6638879343210775,0.9304752785527323,-3.8579507269863424
2.4892977018024234,-1.7966093608969662,0.8918957712828688,-3.909471528470616
2.4713316081934535,-1.9331229098469627,0.8528010559981626,-3.957106326914226
2.452000379094984,-2.0732336864050347,0.8132299927290203,-4.000271149531605
2.4312680422309336,-2.2167020960223085,0.7732272812337042,-4.03833008079788
2.4091010212707107,-2.363242064967208,0.7328439804257254,-4.070595826316705
2.3854686006210386,-2.5125200345053416,0.6921380221625584,-4.0963314266089865
2.360343400275985,-2.6641549198832393,0.6511747078964685,-4.114753286614482
2.3337018510771528,-2.8177192301674663,0.6100271750303237,-4.125035671850864
2.3055246587754783,-2.9727415424502825,0.568776818311815,-4.126316796204875
2.2757972433509757,-3.1287105127308723,0.5275136503497663,-4.11770658779822
2.2445101382236667,-3.2850805849107023,0.4863365844717841,-4.0982961671631735
2.21165933237456,-3.4412795281901563,0.44535362280015234,-4.067169005380856
2.177246537092658,-3.596717891587524,0.4046819327463438,-4.023413648667507
2.141279358176783,-3.7508004127290846,0.3644477962596687,-3.9661378004804293
2.103771354049492,-3.9029393574838536,0.32478641825486443,-3.894483443526444
2.0647419604746533,-4.052569699106032,0.2858415838196,-3.8076425638216174
2.024216263483593,-4.199165972753567,0.24776515818138384,-3.7048729098684174
1.9822246037560576,-4.3422605670117465,0.21071642908269966,-3.585513086044466
1.9388019980859401,-4.481463143092634,0.174861298222255,-3.4489961460008827
1.8939873666550138,-4.6164808110810815,0.14037133676224617,-3.294860726700684
1.847822558544203,-4.7471386493165,0.10742272949523933,-3.1227586560570266
1.800351172051038,-4.873400138230472,0.07619514293466906,-2.932457887767256
1.7516171706687331,-4.9953871060984225,0.046870564056996494,-2.723839576915901
1.701663299607749,-5.113398864706077,0.01963216828783748,-2.4968881184102645
1.6505293109606882,-5.227930361002805,-0.005336712896265163,-2.2516730318040215
1.5982500073506603,-5.339689397039409,-0.027853443214305378,-1.9883216873346357
1.544853113380266,-5.449613280352106,-0.04773666008765173,-1.7069820159314164
1.490356980576745,-5.558885657743093,-0.06480648024696589,-1.4077745078300525
1.434768123999314,-5.668954742380033,-0.07888422532526641,-1.0907329531316734
1.3780785765755137,-5.781554634326946,-0.08979155485658315,-0.7557334953580188
1.3202630302322442,-5.898731893912576,-0.09734888981016333,-0.4024116759641304
1.2612757112931186,-6.022879830784116,-0.10137300656980464,-0.030067358622503704
1.2010469129852774,-6.1567828651118885,-0.10167368015602968,0.36244194136273444
1.1394790843341585,-6.303672265269576,-0.09804926074240233,0.7768169760322503
1.0764423616814627,-6.4672914140655005,-0.09028109098207983,1.215434900459666
1.0117694475408077,-6.651961000410501,-0.07812674197748316,1.6814514146589568
0.9452498375367027,-6.862616763535383,-0.061312227830893594,2.178843264244129
0.8766236699013488,-7.104753078048903,-0.03952379518845231,2.7122913438833733
0.8055761391208598,-7.384120846620679,-0.012400881749618575,3.286684163536911
0.731734930654653,-7.70585195142625,0.020465959885750538,3.905772317015675
0.6546764111403905,-8.072343106633312,0.05952368305590729,4.5690273687855
0.5739529800740575,-8.4786910337793,0.10521395674376229,5.265004311170768
0.4891660697362645,-8.90407582978989,0.15786399985546995,5.958977924357206
0.40012531143836555,-9.299168549164579,0.217453779099042,6.575064879281151
0.3071336259467198,-9.578514590813146,0.2832044278918535,6.985707522865459
0.2113484800385883,-9.643979179638203,0.3530615031205081,7.045721303382589
0.11490868824220628,-9.455157744502664,0.423518716154334,6.693545666931282
0.02035711079717964,-9.079151930282352,0.49045417282364684,6.02348969872791
-0.07043440850564388,-8.6357347884013,0.5506890698109259,5.208621901445129
-0.15679175638965687,-8.212691824113739,0.6027752888253772,4.379317892536301
-0.23891867463079425,-7.846556849859576,0.6465684677507403,3.5938075325172587
-0.31738424312939,-7.543046813237178,0.6825065430759129,2.8659946775288847
-0.3928147112617618,-7.295739719070716,0.7111664898512017,2.191795989951522
-0.46577210845246897,-7.095104969546191,0.7330844497507168,1.5622073847777478
-0.5367231581479309,-6.931803436470673,0.7487065235984943,0.968297263106893
-0.6060411925126377,-6.797590657634953,0.7583894962295632,0.4027404356243087
-0.6740170990889872,-6.685377590303765,0.7624169005858062,-0.13992045495214167
-0.7408708749920249,-6.589052006508395,0.7610176960362848,-0.6634242834398678
-0.8067613950571089,-6.503272193102112,0.754383453201886,-1.1700427830330402
-0.87179411698813,-6.423298178297861,0.7426830253715556,-1.6608347063363553
-0.9360270987711087,-6.344873831155195,0.7260746783081921,-2.1358783498146243
-0.9994758370826606,-6.264155952327245,0.7047158948100458,-2.5944820075735655
-1.0621173966059332,-6.177681460803874,0.6787710747343102,-3.035377450204949
-1.123894211213972,-6.082362873838353,0.6484173002322607,-3.456900732486326
-1.1847178399523555,-5.975502686244054,0.6138482929073975,-3.857162151852881
-1.244472866814796,-5.85481811131995,0.5752766713888687,-4.234204782505738
-1.3030210479279956,-5.718468719013171,0.5329346235638114,-4.586149340673493
-1.3602057351181274,-5.565080732724225,0.48707313015707643,-4.911322341296641
-1.4158565424453697,-5.393763068240075,0.43795990674411,-5.20836448756884
-1.4697941731277704,-5.204111542797457,0.3858762618684216,-5.476316780490507
-1.521835288555745,-4.996198978366851,0.3311130940635165,-5.714682710599735
-1.5717972783394134,-4.770550127746855,0.2739662669575192,-5.923465904781605
-1.619502779616882,-4.528101456891219,0.21473160790970314,-6.103183628029616
-1.6647837941857941,-4.270146834723072,0.15369977162940696,-6.254857533844986
-1.7074852625330248,-3.9982711188552114,0.0911511962909571,-6.379984006775375
-1.7474679737215768,-3.714274457815992,0.027351356223203338,-6.480487333862476
-1.7846107182997368,-3.4200907947332833,-0.03745351711542143,-6.5586597354386384
-1.8188116262470697,-3.117704466364764,-0.10304011446980782,-6.617092901602845
-1.8499886709107174,-2.8090688627121083,-0.16921104348583627,-6.658606025233256
-1.8780793595378384,-2.4960308032266543,-0.2357971037381688,-6.686175319734874
-1.903039667570105,-2.1802636153321293,-0.30265885693551753,-6.7028696323563315
-1.9248423037234261,-1.8632109557795304,-0.36968755325908087,-6.711796046913891
-1.9434744132812214,-1.5460423325426613,-0.4368055137282198,-6.716058402918639
-1.958934836606648,-1.2296202261008629,-0.5039660977574062,-6.718730558517642
-1.9712310388676566,-0.9144778333434422,-0.5711534033425826,-6.7228450978114
-1.980375817201091,-0.6008059082137548,-0.6383818543206966,-6.731397080104044
-1.9863838762832287,-0.28844708590482354,-0.705695825121737,-6.747361301778395
-1.989268347142277,0.023103383461240024,-0.773169438139521,-6.773720190725104
-1.9890373133076646,0.33469013131003233,-0.8409066400467721,-6.8134974438205385
-1.9856904119945644,0.6474802056726934,-0.9090416144849774,-6.869789034349219
-1.9792156099378375,0.9629272824923946,-0.9777395048284696,-6.94577680158072
-1.9695863371129136,1.282699975564198,-1.0471972728442769,-7.044697958425002
-1.9567593373572716,1.6085405197457776,-1.1176442524285268,-7.16972231245509
-1.9406739321598139,1.941992683185261,-1.1893414755530778,-7.323651485417366
-1.9212540053279612,2.2838942969592937,-1.2625779904072514,-7.508293811760852
-1.8984150623583682,2.6334710921037012,-1.33766092852486,-7.723285138579148
-1.8720803514373312,2.9868220562366297,-1.4148937799106514,-7.964056096325322
-1.8422121308749648,3.334661047164694,-1.4945343408739045,-8.218739905073278
-1.808865520403318,3.6596556699901104,-1.5767217399246372,-8.464461227651027
-1.7722689637034168,3.9350044824259944,-1.6613663522011475,-8.665238343656755
-1.732918918879157,4.127813627153406,-1.748018735637715,-8.776401923575236
-1.691640782607623,4.210567875581384,-1.8357827548734673,-8.760108958900728
-1.6495351038518091,4.176803121633419,-1.9233838444624747,-8.606648587886815
-1.607767072635475,4.047370318272656,-2.009450330341343,-8.3428876571352
-1.5672933694527484,3.859254914115608,-2.092879206912695,-8.016978378370062
-1.5287008203115924,3.6478776662922288,-2.1730489906963957,-7.674460616677742
-1.4922220436486702,3.437395327317214,-2.249793596863173,-7.345491531701776
-1.457848090375498,3.240570410257156,-2.3232485121801907,-7.045040420522119
-1.4254423862729264,3.062464031483501,-2.3936989163854117,-6.778074141432736
-1.3948177459580915,2.903929162451909,-2.461479657799739,-6.544306283589321
-1.3657784543335725,2.7638554661564196,-2.526922720635632,-6.341176357043417
-1.3381398996720082,2.640383628260529,-2.5903344842060663,-6.165414715928622
-1.3117360633894029,2.5314961356701593,-2.6519886313653527,-6.013770744352509
-1.2864211020327012,2.4352772218218375,-2.712126338808878,-5.883307770523535
-1.2620683298144828,2.3500097994794547,-2.7709594165141134,-5.771491184656839
-1.2385682318196882,2.2741968308422695,-2.8286743283606817,-5.67618512354432
-1.2158262635112655,2.2065505035086765,-2.885436179596125,-5.595613224964314
-1.1937607584761787,2.1459700154702253,-2.9413923118457683,-5.5283088169299095
-1.1723010583214764,2.0915176350131217,-2.9966754000150675,-5.473065263079936
-1.1513858819713452,2.0423973591157156,-3.051406052645867,-5.4288902346274135
-1.130961908380188,1.997938031871908,-3.105694954992141,-5.394964442785666
-1.110982528061469,1.9575817412296945,-3.1596445994199978,-5.3706038803661516
-1.091406710649172,1.920877960950044,-3.2133506382236594,-5.355223939122174
-1.0721979310396716,1.8874838753685639,-3.266902877614881,-5.348303450965391
-1.053323092285986,1.8571714088018514,-3.320385912124535,-5.349346574483042
-1.0347513781979674,1.8298415250410291,-3.373879377869365,-5.357840505112227
-1.0164529629475572,1.8055461992257589,-3.4274577829204875,-5.373207351746733
-0.9983975009552996,1.78451787132169,-3.481189856437955,-5.394749453124629
-0.9805523222420827,1.767204864467023,-3.535137350969201,-5.42158930134392
-0.9628802735974125,1.7543088364541655,-3.5893532439826403,-5.4526085863155345
-0.9453371852328708,1.7468165535058662,-3.6438793298457957,-5.486396069988037
-0.9278690196978121,1.7460132624725,-3.698743290545676,-5.521220906201397
-0.9104088870730871,1.7534597861780996,-3.75395549960769,-5.555055208469017
-0.8928742892113061,1.7709128811653638,-3.80950605169238,-5.585673518708821
-0.8751651603996524,1.800172815109396,-3.865362786879468,-5.610851349891396
-0.8571634322485585,1.842858200319796,-3.921471300378382,-5.628663804713285
-0.8387348502453605,1.9001367102124773,-3.977757938425515,-5.6378471212521495
-0.8197334831432358,1.972473271773168,-4.0341364096380365,-5.638141679839743
-0.8000087504255041,2.0594764455327517,-4.090517826436434,-5.630509001571933
-0.7794139859701766,2.15990968672283,-4.1468229164521535,-5.617133602349044
-0.7578148891029484,2.271883625046243,-4.202994252475644,-5.6011879612653415
-0.7350960528524859,2.3931806025308804,-4.259006132088298,-5.586425651642372
-0.7111642468271772,2.5216190972385317,-4.314870388604722,-5.5767261779137955
-0.6859480558547918,2.6553655964831906,-4.37063765038386,-5.575715524331466
-0.6593943998899598,2.7931382503860918,-4.426394805627175,-5.586537911824836
-0.6314630173860989,2.9342941983809325,-4.4822601847454235,-5.6117915995803616
-0.6021200754022895,3.078827197885225,-4.538378100741227,-5.653596267656648
-0.5713318034234373,3.227315677457974,-4.594914063417793,-5.713742790313659
-0.5390586466488575,3.3808582939593776,-4.65205149132093,-5.793881839812956
-0.5052500637092637,3.5410236865353224,-4.70999030971906,-5.89572365258268
-0.4698398268439105,3.7098306322578694,-4.7689475462448865,-6.0212380254720035
-0.4327415205213318,3.889767675305478,-4.829159926499607,-6.172856851817667
-0.393843843768277,4.083858115704284,-4.8908884950177836,-6.353690685485723
-0.3530052626112342,4.295776168745189,-4.954425401872641,-6.567776982485814
-0.3100475009237823,4.530021674445147,-5.020103171697499,-6.8203817247878264
-0.2647472841793308,4.792161597591542,-5.0883069889453765,-7.118377258760563
-0.21682566820341537,5.089141621187549,-5.159490761532982,-7.470712022148988
-0.16593425199153988,5.4296471951736045,-5.234197881754472,-7.8889552413671975
-0.11163778003980385,5.824414629971798,-5.313087434168144,-8.387792827791527
-0.053393633740085863,6.286162056794089,-5.39696536244606,-8.985035271545222
0.009467986827855018,6.828170855919668,-5.486815715161512,-9.699817240405554
0.07774969538705169,7.4588814466767825,-5.583813887565568,-10.545354691291914
0.15233850985381953,8.166091133254568,-5.689267434478487,-11.507348775211083
0.23399942118636521,8.879246630756304,-5.8043409222305975,-12.491929296261768
0.3227918874939283,9.410099627543573,-5.9292602151932154,-13.243218733693096
0.416892883769364,9.463965913768599,-6.061692402530147,-13.358587971330804
0.51153254290705,8.909548591381707,-6.195278282243455,-12.662348778887974
0.6006280288208671,8.01590384284231,-6.321901770032335,-11.529995755975845
0.6807870672492902,7.120119227033672,-6.437201727592094,-10.42395863055459
0.7519882595196269,6.351370567080212,-6.54144131389764,-9.517104170645823
0.8155019651904291,5.713189043892207,-6.636612355604099,-8.811120230667207
0.8726338556293511,5.17828456589549,-6.724723557910771,-8.267578409344337
0.924416701288306,4.7196378517164,-6.8073993420042145,-7.8499226317466455
0.97161307980547,4.316141268583994,-6.885898568321681,-7.530609872853233
1.0147744924913098,3.952089138611945,-6.961204667050214,-7.29005117069028
1.0542953838774292,3.6157856772092387,-7.034105178757116,-7.1144777897828435
1.0904532406495215,3.2983844451381206,-7.105249956654944,-6.994173255465054
1.1234370851009028,2.993086082210748,-7.175191689209595,-6.922188621726058
1.1533679459230102,2.6946314697295737,-7.244413575426855,-6.893414501966513
1.1803142606203059,2.39901741972234,-7.3133477204465205,-6.903876686911984
1.2043044348175294,2.1033825550315703,-7.382386487315641,-6.9501553012841795
1.225338260367845,1.8060283608762095,-7.451888040328482,-7.028860511591634
1.243398543976607,1.5065471544954685,-7.522176645444398,-7.136128061497865
1.2584640155215618,1.2060227982424347,-7.593537926059377,-7.267130590275228
1.2705242435039863,0.9072504541564521,-7.66620923196213,-7.4156408874310245
1.2795967480455508,0.614890604825858,-7.74036564083644,-7.57373122576162
1.2857456540938095,0.3354395223867076,-7.816102953094056,-7.731738422916296
1.2891000493176765,0.0768849224867274,-7.893420337323219,-7.878641521935016
1.2898688985425437,-0.15204673524410484,-7.9722067525425695,-8.00295014066721
1.2883484311901026,-0.34303149194032506,-8.052236253949241,-8.094059227014924
1.2849181162706993,-0.48948395948999457,-8.13317684621939,-8.14381362249865
1.2800232766757993,-0.5877379260447857,-8.214614982444377,-8.147844184548648
1.2741458974153514,-0.6376944337752435,-8.296093424289865,-8.106223957415974
1.267768953077599,-0.6427218741602118,-8.377155663864023,-8.023210429749458
1.261341734335997,-0.6088728938714847,-8.457387768161517,-7.906189164485441
1.2552530053972821,-0.5437196502143365,-8.536449659806372,-7.764210761148436
1.2498158088951388,-0.4551773765618693,-8.614091767417857,-7.606573058782462
