th1 (rad),w1 (rad/s),th2 (rad),w2 (rad/s)
5.766013253172631,-0.7521798788800567,4.6698036595282595,-0.23112692927463802
5.75849145438383,-0.7246060006462716,4.667492390235513,-0.1407837765986088
5.751245394377368,-0.6962506804281767,4.666084552469528,-0.051313634061415064
5.744282887573086,-0.6672440070729275,4.6655714161289135,0.03732902299376406
5.737610447502357,-0.637713510489871,4.665944706358851,0.12519342939346123
5.731233312397459,-0.6077842440120177,4.667196640652786,0.2123323717227793
5.725155469957339,-0.5775788770388348,4.669319964370014,0.29880199809920394
5.71937968118695,-0.5472177935147274,4.672307984351006,0.3846616015358621
5.713907503251803,-0.5168191916643149,4.676154600366365,0.4699733815576873
5.70873931133516,-0.4864991802627972,4.680854334181942,0.5548021879406585
5.703874319532532,-0.45637186654724793,4.686402356061349,0.6392152495928076
5.69931060086706,-0.4265494306508656,4.692794508557276,0.7232818906744296
5.695045106560551,-0.39714218114334443,4.700027327464021,0.8070732350460029
5.691073684749117,-0.36825858586031884,4.708098059814481,0.8906618990109045
5.687391098890514,-0.34000527167374833,4.7170046788045905,0.9741216710534337
5.683991046173777,-0.3124869861594612,4.7267458955151245,1.0575271758194662
5.680866176312182,-0.28580651321908246,4.737321167273319,1.1409535178957684
5.678008111179991,-0.2600645335663119,4.748730702452277,1.224475898951794
5.675407465844327,-0.23535941953988865,4.760975461441795,1.3081691994391824
5.6730538716489285,-0.21178695189747943,4.774057153436187,1.3921075132097303
5.670936002129953,-0.18943994400755912,4.787978228568285,1.4763636200080925
5.669041602689878,-0.16840775611343328,4.802741864768366,1.5610083767018128
5.667357525128743,-0.1487756790118246,4.818351948535384,1.6461100031963032
5.6658697683386245,-0.1306241624826571,4.834813048567347,1.7317332331052269
5.664563526713798,-0.11402785904729,4.8521303808984,1.8179382922671337
5.663423248123325,-0.09905444805953016,4.870309763821071,1.9047796599942795
5.66243270364273,-0.08576319872982062,4.889357560421014,1.9923045584322672
5.661575071655432,-0.0742032235093167,4.9092806060053364,2.08055110461418
5.660833039420338,-0.06441136551270513,4.930086117051478,2.1695460478883715
5.660188925765211,-0.056409655749312476,4.951781577530362,2.2593020028347315
5.659624829207718,-0.050202268610804165,4.974374597558709,2.3498140754395074
5.6591228065216095,-0.04577189858425112,4.997872738313104,2.4410557697066784
5.658665087535767,-0.04307547950398475,5.022283296010171,2.532974055534747
5.658234332740728,-0.042039172821245294,5.047613036565519,2.6254834804204137
5.657813941012515,-0.04255256770252018,5.073867871369723,2.718459223017307
5.65738841533549,-0.04446206929766458,5.101052463599896,2.81172902372808
5.656943794642513,-0.04756351020281627,5.129169753837177,2.905063996953148
5.656468159540484,-0.05159411379112479,5.158220393806708,2.998168444609417
5.655952218402573,-0.05622407763851784,5.188202078252802,3.0906689660776356
5.655389977626188,-0.061048240897186905,5.219108767913578,3.1821034101536223
5.654779495217216,-0.06557855676670471,5.250929802015115,3.2719105485129645
5.654123709649549,-0.06923840485578797,5.283648907500244,3.359421762162931
5.653431325600991,-0.07136012276072244,5.317243125121873,3.4438564903657993
5.6527177243733835,-0.07118745497088887,5.351681690025531,3.524323622117822
5.6520058498236745,-0.0678848130005734,5.386924926246709,3.5998312855678383
5.6513270016936685,-0.060555174904739634,5.422923239102388,3.6693074270868125
5.650721449944621,-0.048267963934970494,5.459616313373256,3.731632954250389
5.650238770305271,-0.030097199955409503,5.49693264291576,3.785687864884266
5.649937798305717,-0.00516858473439645,5.534789521564602,3.830408658514267
5.649886112458373,0.027287866314501925,5.573093608149745,3.8648526541617074
5.6501589911215175,0.06788507290934953,5.611742134691362,3.8882621869887837
5.650837841850611,0.11703284429222545,5.65062475656125,3.900119868518027
5.6520081702935325,0.17490547330177542,5.68962595524643,3.9001860283364493
5.65375722502655,0.24142835774931953,5.728627815529794,3.8885115813065565
5.656171508604043,0.3162860093052051,5.76751293134286,3.8654236251722645
5.659334368697095,0.3989500582483869,5.806167167594582,3.8314860344903177
5.663323869279579,0.48872246534323277,5.844482027939486,3.7874417274663577
5.668211093933011,0.5847870613799683,5.882356445214149,3.7341458875416835
5.674058964546811,0.6862621853309717,5.919697904089565,3.672499680041582
5.680921586400121,0.792248388440467,5.956422900889981,3.6033922245281316
5.688844070284525,0.9018672779043623,5.992456823135263,3.527655652659811
5.697862743063569,1.0142898491055157,6.027733379661861,3.4460350034701843
5.708005641554624,1.128754536351384,6.0621937296965624,3.359172225970942
5.719293186918137,1.244576432538779,6.095785451956272,3.267602003970111
5.731738951243525,1.3611496858131233,6.128461471995973,3.171756465425415
5.745350448101656,1.4779451288634764,6.160179036650227,3.0719758623685336
5.760129899390291,1.5945049327367367,6.190898795273912,2.968522729107882
5.776074948717659,1.7104356757594994,6.220584022564991,2.861597609704452
5.793179305475253,1.8254007994616435,6.249199998662036,2.7513550319448585
5.81143331346987,1.9391130538938934,6.276713548981484,2.6379189100853733
5.830824444008809,2.0513272407372733,6.303092738082338,2.521396952928464
5.8513377164161815,2.161833345688253,6.328306707611622,2.4018939401658814
5.872956049873064,2.2704500011810738,6.352325647013281,2.279523926252134
5.895660549884875,2.377018122158114,6.375120886275802,2.154421559019636
5.919430731106456,2.481394497766785,6.396665101865998,2.026752779113584
5.944244676084123,2.583445090114502,6.416932629657134,1.896725210253148
5.970079126985269,2.683037781137525,6.435899881759665,1.764598567304827
5.996909504796644,2.7800343181585165,6.453545867432713,1.6306954007625398
6.0247098479782295,2.874281240277619,6.469852821440338,1.4954124575097114
6.053452660381006,2.965599628601886,6.484806946015436,1.3592328569822962
6.083108656667025,3.0537736257206847,6.498399274585259,1.2227391404309027
6.113646392924232,3.138537830893677,6.510626665989568,1.0866270237714484
6.145031771233168,3.219563917829882,6.521492936227283,0.9517193419814595
6.177227410411467,3.2964471623568268,6.531010129647097,0.8189791866838081
6.210191882035035,3.3686940206439098,6.5391999215139345,0.6895205923801925
6.2438788222414745,3.435712456573813,6.546095127437736,0.5646143367477521
6.278235946807213,3.496807329184732,6.551741270805214,0.4456855638724987
6.31320402009906,3.551183700733197,6.556198126443938,0.33429919057527363
6.348715857106392,3.5979612078072867,6.559541118349691,0.2321287152249376
6.384695469184465,3.636202361041383,6.561862405501941,0.14090453663045358
6.421057492794879,3.6649564794365412,6.563271450868245,0.06233967064206673
6.457707057589245,3.683318695974909,6.563894847574666,-0.0019658602771872313
6.494540244548993,3.6905001629700753,6.563875188971894,-0.05063581574587132
6.531445246178694,3.685901807103919,6.563368830814435,-0.0826320414040441
6.568304264249734,3.669180849396347,6.5625425104003945,-0.09735610201245957
6.604996072743697,3.6402982042960104,6.56156894938027,-0.09472054931023917
6.641399054786657,3.5995368590545826,6.560621743887167,-0.07517516411248368
6.677394423377202,3.547486431018334,6.559869992246043,-0.03968110925734322
6.7128692876873854,3.484995985555042,6.559473181153469,0.010363843264737424
6.7477192475429355,3.413103639376616,6.559576819586116,0.0732362555800421
6.781850283936702,3.332955361551909,6.560309182141917,0.14701552476582433
6.815179837552221,3.245725727352153,6.561779337389575,0.22971068292385563
6.847637094825743,3.1525506441042737,6.564076444218814,0.3193701593919153
6.879162601266786,3.0544777136677186,6.567270145812733,0.4141655442353368
6.909707378403463,2.9524355378623715,6.571411801255087,0.512446859657676
6.939231733782087,2.847220016200629,6.576536269851664,0.6127717619249501
6.967703933944093,2.739493911699916,6.582663987470913,0.7139138639106666
6.995098873061092,2.629795491475326,6.58980312611002,0.8148562147489051
7.021396827975845,2.5185524453652786,6.597951688257509,0.914775518839913
7.046582352429498,2.4060980986476954,6.607099443445908,1.0130215718285196
7.070643333415975,2.292687832086341,6.6172296591641935,1.1090951251386068
7.093570211736838,2.1785144150863682,6.62832061041558,1.2026262485601102
7.1153553558877025,2.063721570471659,6.640346872901181,1.2933543621312273
7.1359925715924195,1.948415517674974,6.6532804165224935,1.3811104694424736
7.1554767267691695,1.8326745141549972,6.667091521216919,1.4658017079403893
7.17380347191072,1.7165565718191647,6.681749538296322,1.5473980843218953
7.1909690376289115,1.6001056028314764,6.697223519139541,1.6259211330236154
7.206970093657226,1.483356276719301,6.713482730469777,1.7014341810432834
7.221803656424419,1.3663378693570203,6.73049707228021,1.7740338919232452
7.235467035117989,1.2490773684178271,6.748237411199442,1.8438427745526098
7.247957808802168,1.1316020781378033,6.766675838944968,1.9110023650432202
7.259273829583546,1.0139419438118902,6.7857858625954,1.975666814411561
7.269413249021665,0.8961317957915602,6.805542530739515,2.0379966371709353
7.27837456697958,0.7782136944913529,6.8259224971112245,2.0981523949924
7.286156703924494,0.6602395412607108,6.846904021061149,2.156288106215076
7.292759099337101,0.542274102954777,6.868466902123299,2.212544188878799
7.29818184036665,0.4243985774245065,6.890592344012087,2.267039766645998
7.302425826140895,0.3067147983345641,6.9132627416785475,2.3198642000425886
7.30549297412424,0.18935013452499996,6.9364613836789735,2.371067758746081
7.30738647546949,0.07246307374669252,6.960172061266435,2.420651435449047
7.308111106206956,-0.0437506160998645,6.984378575620925,2.4685560313771764
7.307673600045958,-0.15905139244823047,7.009064135934697,2.514650831598929
7.306083086121475,-0.273149539691259,7.034210644250686,2.5587224458069158
7.303351590724563,-0.3856995301769813,7.059797868708755,2.6004647195560167
7.299494595422793,-0.496296078113243,7.085802515904315,2.6394710064525344
7.29453163464166,-0.6044730933498931,7.11219722596884,2.6752304882417834
7.288486903708161,-0.709706955670391,7.138949530851258,2.7071305502813563
7.281389834151457,-0.8114255881186136,7.166020836354072,2.7344673304553417
7.273275578270271,-0.9090245893212793,7.1933655096586255,2.7564662899468946
7.264185332377058,-1.0018910732212423,7.220930172558094,2.772313837617428
7.254166421644845,-1.0894348011376391,7.248653310934269,2.781199586819959
7.243272073633468,-1.1711247431132237,7.276465306802468,2.782366819436507
7.231560826202336,-1.2465276220400108,7.304288974996833,2.775166514759656
7.219095549981936,-1.3153437000617731,7.33204064014443,2.7591084567825437
7.205942112981318,-1.3774345581685572,7.359631724712256,2.733902153717977
7.192167767399632,-1.4328382660694101,7.386970746249435,2.699481111023232
7.177839384738938,-1.4817691731763494,7.413965557359668,2.656006455361246
7.163021693007175,-1.5246021737226187,7.44052562191328,2.6038494753474484
7.147775671269948,-1.56184398820936,7.4665641166667545,2.543556338338306
7.132157231387855,-1.5940960011424123,7.491999680050138,2.4758010148761502
7.116216271376431,-1.6220140168246522,7.516757690198899,2.4013336187195944
7.099996131208185,-1.6462698945868743,7.540771026386095,2.3209308764752508
7.083533432262316,-1.6675187408712187,7.563980335150848,2.235353732599431
7.066858244853604,-1.6863736852701448,7.5863338724768425,2.145314876923814
7.0499945080009025,-1.7033887231366165,7.6077870212460805,2.0514568976812786
7.032960620769536,-1.719048960084778,7.628301590222893,1.954340212098511
7.015770131168688,-1.7337669324487837,7.647844992343878,1.8544390315039667
6.9984324618442,-1.747883444233226,7.666389382658918,1.7521433002333828
6.980953627401868,-1.7616714277949017,7.6839108156612514,1.6477646347823374
6.963336913123919,-1.7753415685359681,7.700388462009075,1.541544600348442
6.945583497438559,-1.789048727220855,7.7158039080125596,1.433664052801669
6.92769301016635,-1.8028984788404137,7.730140548540576,1.324252653189844
6.909664025377946,-1.8169533291690676,7.743383075072474,1.2133979821685397
6.891494492086256,-1.8312383576443032,7.75551705489416,1.101153927916683
6.873182108509813,-1.8457461700033992,7.766528594173327,0.9875481962634841
6.854724646809778,-1.860441134693312,7.776404076135962,0.8725889075223836
6.836120235462845,-1.8752629336575648,7.785129965211186,0.7562703148079718
6.817367606126269,-1.89012949025433,7.792692668359265,0.6385777163157917
6.798466311223726,-1.904939352631298,7.799078445522423,0.5194916497524258
6.7794169176974135,-1.9195736158344248,7.804273362019948,0.3989914588173128
6.76022118153907,-1.9338974645105589,7.808263276608121,0.27705831506640144
6.740882206893964,-1.9477614131554895,7.811033859758784,0.15367776750932383
6.7214045927624095,-1.9610023143056483,7.812570637433877,0.028841879426902445
6.701794569619353,-1.9734441979854835,7.812859056228146,-0.09744900128938783
6.682060127639498,-1.9848989987129688,7.8118845662152525,-0.22518480455469944
6.662211137652369,-1.9951672197119037,7.809632718169706,-0.35434461100563674
6.64225946545525,-2.0040385777519147,7.8060892720596495,-0.484895823236389
6.6222190796777305,-2.011292666180982,7.801240313827286,-0.6167936317689728
6.602106153015921,-2.0166996681083833,7.795072377509596,-0.7499807792294204
6.581939156334837,-2.0200211461855533,7.787572569717302,-0.8843876317331981
6.561738944872982,-2.021010929861341,7.7787286933999695,-1.0199325705064237
6.541528835574368,-2.0194161152123824,7.768529367694906,-1.156522719312008
6.521334674422245,-2.0149781863504916,7.756964140501785,-1.294055024346301
6.50118489255874,-2.007434260904271,7.7440235902583225,-1.4324177029681326
6.4811105499496975,-1.9965184551222945,7.729699413228642,-1.571492075982536
6.461145365398474,-1.9819633567612056,7.713984492468816,-1.7111547953162072
6.4413257318308625,-1.9635015861712617,7.696872944515654,-1.8512804749145144
6.42169071596915,-1.940867418003166,7.678360139766509,-1.9917447277225744
6.402282041789118,-1.9137984279287388,7.658442692489284,-2.1324276058871803
6.383144057509831,-1.8820371209601408,7.637118416430412,-2.2732174350689243
6.36432368630023,-1.84533249070967,7.614386242079723,-2.414015027243829
6.345870361393133,-1.8034414526787277,7.590246091807285,-2.554738249858414
6.327835946866346,-1.7561300899181098,7.564698709308701,-2.695326922896482
6.310274645967165,-1.7031746467938598,7.5377454400797355,-2.8357480094303598
6.293242899499226,-1.644362206905327,7.509387959985432,-2.9760010594752084
6.2767992774301735,-1.5794909954311707,7.47962794939068,-3.1161238610148048
6.261004367475862,-1.5083702556458491,7.448466710780532,-3.2561982449473126
6.245920664919404,-1.4308196658826648,7.415904728331059,-3.3963559805828507
6.231612468260577,-1.3466682894552304,7.3819411685252305,-3.5367846820693267
6.2181457853660245,-1.25575308990613,7.346573321704537,-3.6777336185766174
6.205588254466964,-1.1579171033818665,7.309795985518771,-3.8195192740090085
6.194009083433145,-1.0530074480873268,7.271600792778681,-3.9625304225302944
6.183479008952272,-0.9408734817836911,7.2319754885533785,-4.107232354203417
6.174070274134435,-0.821365613966126,7.190903165011345,-4.25416966959202
6.165856617994773,-0.6943355731318037,7.148361468315424,-4.403966715794
6.1589132622634555,-0.5596393721189008,7.104321801157484,-4.557324187125122
6.153316868542267,-0.4171448812451601,7.058748559286233,-4.715009554232068
6.149145419729815,-0.26674691844783327,7.011598463743912,-4.877837660211916
6.146477950545337,-0.10839424556230734,6.962820087141793,-5.046635816946702
6.145394008089713,0.05786499969796341,6.9123537289723265,-5.2221847816743985
6.145972658086693,0.23180993982877215,6.860131881155582,-5.405122829691802
6.148290757484981,0.41293236886056317,6.806080652858665,-5.595794699696419
6.152420081173586,0.6002635547594279,6.750122705861701,-5.794021115797704
6.158422716721181,0.7921225711116555,6.692182494703724,-5.99876037480864
6.166343942432298,0.9857703037060861,6.632194890955637,-6.207637668893407
6.176201645469359,1.1769739669765122,6.570118514266703,-6.416344303746591
6.187971385139123,1.3595414383495714,6.505955071229237,-6.617981409696721
6.201566799522619,1.5249916103849486,6.439775257132269,-6.802567419838146
6.216816715626469,1.6626802913162768,6.371749582933888,-6.957138794756664
6.233443518539632,1.760811864140675,6.302178194986322,-7.067028907398378
6.251051637181039,1.8086139968897117,6.231507905912338,-7.118708768589689
6.269137777149936,1.7993110176534362,6.160320818226441,-7.103706183176132
6.28713088732647,1.7326126716527976,6.089283756394679,-7.021875868202207
6.304457014042998,1.615159777601685,6.019064997712658,-6.881930148393603
6.320608611819015,1.4584762480733988,5.950245696228722,-6.698655872792473
6.335193374299749,1.2756456500867113,5.883259137500797,-6.488493984768812
6.347949830800616,1.0784835773713688,5.818374197653109,-6.265863443958948
6.358734666574329,0.876123331285614,5.75571556321352,-6.041417573283984
6.367495899887185,0.6748557854726586,5.69530138748068,-5.821966738849047
6.374244457741912,0.4786266178120122,5.63708172009219,-5.611238922588935
6.379030723920032,0.28969802735439143,5.5809693308663,-5.410816504612445
6.381927704193576,0.10922843218097503,5.526861165820176,-5.220931207582615
6.383019988515385,-0.06229994087814178,5.47465185374435,-5.041036959228684
6.382396989106604,-0.22479416817354425,5.424241484152063,-4.87018602417011
6.380149047424868,-0.3783695382702772,5.375539623910361,-4.707261157394571
6.376365352042165,-0.5232404980991565,5.328467012336416,-4.551112004788395
6.371132947061174,-0.6596579791775607,5.282955892288532,-4.400631307126437
6.364536367269398,-0.7878755386783844,5.238949579217268,-4.254794654499967
6.356657611882614,-0.9081329246167574,5.196401632672268,-4.112678807093544
6.347576282636447,-1.0206498988792083,5.155274844601332,-3.9734677580660183
6.337369783647655,-1.1256258885296604,5.115540167020672,-3.8364520085397213
6.326113524762358,-1.2232427575777436,5.077175646935275,-3.7010242453620394
6.313881097186581,-1.3136690578769612,5.040165404481654,-3.5666732393369256
6.300744406607811,-1.3970647736548898,5.004498672088285,-3.432976968760912
6.286773758871262,-1.4735859768849244,4.970168902400676,-3.299595500695483
6.272037899102413,-1.5433890587721448,4.937172947393721,-3.166263894653831
6.2566040085146915,-1.6066343565787558,4.905510308447183,-3.032785247404101
6.240537664948904,-1.6634890916711305,4.875182455973142,-2.8990239231434303
6.223902774032193,-1.7141295962479752,4.8461922167417075,-2.7648989799856953
6.206761478069713,-1.7587428460286805,4.81854322694185,-2.630377793174778
6.189174049609426,-1.7975273421829923,4.792239449010102,-2.4954698766300014
6.171198776187596,-1.8306934026816022,4.767284750243802,-2.360220910749382
6.1528918421607806,-1.8584629338442125,4.743682541136309,-2.2247069919753026
6.134307212822338,-1.8810687588466437,4.721435471216556,-2.0890291263016203
6.115496525233872,-1.8987535823804127,4.70054517995354,-1.953307993571745
6.096508989410068,-1.9117686702510148,4.681012100017822,-1.8176790116547141
6.077391302707557,-1.9203723199892884,4.662835309901276,-1.6822877293809053
6.058187579507664,-1.924828193979041,4.646012432607466,-1.5472855747159437
6.0389392975678735,-1.9254035805752672,4.630539576860307,-1.4128259804406855
6.019685261762121,-1.922367641577519,4.6164113170559,-1.2790609040462366
6.000461585346346,-1.9159896965880527,4.603620708015438,-1.1461377521218001
5.981301688380466,-1.9065375865552063,4.59215933049422,-1.0141967126660387
5.962236312514913,-1.8942761504788397,4.58201736336756,-0.8833684919018102
5.943293551010125,-1.8794658410982765,4.573183678448541,-0.7537724456724197
5.924498892599143,-1.8623614976123906,4.565645953991817,-0.6255150896302994
5.905875277623019,-1.8432112862677366,4.559390803095514,-0.49868896741174185
5.887443164760342,-1.8222558131174662,4.554403913421397,-0.37337185197161904
