th1 (rad),w1 (rad/s),th2 (rad),w2 (rad/s),a1 (rad/s^2),a2 (rad/s^2)
3.4010191972088877,2.4478908860542656,1.5369488500567567,-0.9589131982096232,1.5521186361581567,-3.609368687208505
3.4254981060694303,2.463412072415847,1.5273597180746605,-0.9950068850817082,1.714724722616934,-3.493256719095385
3.4501322267935888,2.4805593196420164,1.5174096492238434,-1.0299394522726621,1.8843047724103754,-3.3642994122460936
3.474937819990009,2.49940236736612,1.5071102547011168,-1.0635824463951231,2.062129564331838,-3.2216678877400162
3.49993184366367,2.5200236630094386,1.4964744302371655,-1.0957991252725232,2.2495536882556255,-3.0643956276718414
3.5251320802937647,2.542519199891995,1.4855164389844402,-1.1264430815492417,2.4480160593606546,-2.891380260057839
3.550557272292685,2.5669993604856014,1.4742520081689479,-1.15535688414982,2.659036744695128,-2.701391125475731
3.5762272658975407,2.5935897279325526,1.4626984393274496,-1.1823707954045775,2.884208404499442,-2.4930851411307273
3.6021631631768662,2.622431811977547,1.4508747313734038,-1.2073016468158848,3.1251801056887345,-2.265034290500199
3.6283874812966417,2.6536836130344343,1.438801714905245,-1.2299519897208868,3.3836305973279877,-2.0157690672277258
3.654924317426986,2.6875199190077144,1.426502195008036,-1.2501096803931642,3.6612273470329755,-1.743843394227986
3.681799516617063,2.724132192478044,1.4140010982041045,-1.2675481143354441,3.959566743625934,-1.4479278957979054
3.7090408385418434,2.7637278599143036,1.40132561706075,-1.2820273932934232,4.280089933376323,-1.1269398395271568
3.7366781171409866,2.8065287592480668,1.3885053431278158,-1.2932967916886948,4.623967894391545,-0.7802194129938826
3.7647434047334674,2.8527684381919824,1.3755723752109288,-1.3010989858186337,4.991948779089669,-0.40776294566157106
3.7932710891153874,2.902687925982879,1.3625613853527425,-1.3051766152752493,5.384160613527555,-0.010523717979474496
3.8222979683752163,2.9565295321181546,1.34950961919999,-1.305281852455044,5.799863653165427,0.4092106567901788
3.851863263696398,3.014528168649809,1.3364568006754396,-1.3011897458871422,6.237149777266317,0.8473597220176594
3.882008545382896,3.0768996664224724,1.3234449032165683,-1.2927161486669656,6.692592168066911,1.2975145716183385
3.9127775420471207,3.1438255881031414,1.3105177417298985,-1.2797410029507823,7.160858168707634,1.7503434853990232
3.9442157979281522,3.2154341697902176,1.2977203317003907,-1.262237568096792,7.634312497527967,2.1929785312909793
3.9763701396260545,3.291777294765497,1.2850979560194227,-1.2403077827838822,8.102657159338841,2.6084518403319024
4.0092879125737095,3.3728038663588853,1.272694878191584,-1.2142232643805633,8.552677367588457,2.975285411873829
4.043015951237298,3.4583306400347698,1.2605526455477782,-1.184470410261825,8.968186312119919,3.267374915995602
4.077599257637646,3.548012503155969,1.24870794144516,-1.151796661101869,9.3302794324021,3.4543367427161162
4.113079382669206,3.64131529747999,1.2371899748341413,-1.117253293674708,9.618011618176752,3.5024942662832146
4.149492535644005,3.7374954136617577,1.2260174418973941,-1.0822283510118758,9.809587239749893,3.376646466937708
4.186867489780623,3.8355912860592567,1.2151951583872753,-1.0484618863424986,9.884093416969417,3.042673886702772
4.225223402641215,3.934432220228951,1.2047105395238504,-1.018035147475471,9.823708745412942,2.4708875458604993
4.264567724843505,4.03266930768308,1.1945301880490957,-0.993326272016866,9.616193039828342,1.6398295474173907
4.304894417920336,4.128831238081363,1.184596925328927,-0.976927976542692,9.257335027558785,0.540028785881783
4.346182730301149,4.221404588356951,1.1748276455635,-0.9715276886838742,8.75294393851074,-0.8229374037835305
4.3883967761847185,4.308934027742059,1.1651123686766613,-0.9797570627217095,8.11995883908019,-2.4267580779621905
4.431486116462139,4.390133616132861,1.1553147980494443,-1.0040246435013314,7.386342206657397,-4.232630695260232
4.475387452623468,4.463997038199435,1.145274551614431,-1.0463509504539337,6.589617127248529,-6.18768482186617
4.5200274230054625,4.52989320947192,1.1348110421098916,-1.1082277986725955,5.774161424749783,-8.229438320751125
4.565326355100182,4.587634823719418,1.1237287641231657,-1.1905221818801066,4.987623429120056,-10.29172601867854
4.611202703337376,4.637511058010619,1.1118235423043645,-1.293439442066892,4.277006052096717,-12.311234828057852
4.657577813917483,4.680281118531586,1.0988891478836955,-1.4165517903474705,3.685030478088988,-14.233663362855477
4.704380625102798,4.717131423312476,1.0847236299802208,-1.5588884239760252,3.2473239739452064,-16.018628780072138
4.751551939335923,4.749604663051928,1.0691347457404605,-1.7190747117767466,2.9908005429666895,-17.642736065835052
4.7990479859664426,4.779512668481595,1.051943998622693,-1.895502072435097,2.9333689287223192,-19.10062170547945
4.846843112651259,4.808846357768818,1.032988977898342,-2.0865082894898914,3.0848720382392782,-20.404179052312937
4.894931576228947,4.839695078151211,1.0121238950034432,-2.2905500800130207,3.4489901216542895,-21.580473632691703
4.943328527010459,4.874184979367754,0.989218394203313,-2.506354816339938,4.0257592840048675,-22.669010126332587
4.992070376804137,4.914442572207802,0.9641548460399136,-2.7330449176032636,4.814370486864686,-23.719016754778416
5.041214802526215,4.962586277076449,0.936824396863881,-2.9702350851510477,5.816001206658195,-24.787307454610836
5.09084066529698,5.020746289143031,0.9071220460123705,-3.218108159697156,7.036559334191022,-25.93712836498548
5.141048128188411,5.091111882484942,0.8749409644153989,-3.477479443347011,8.48935497569311,-27.23825108171757
5.19195924701326,5.1760054322418725,0.8401661699819288,-3.7498619541641864,10.197838734446059,-28.768480365271753
5.243719301335679,5.277983819586333,0.8026675504402869,-4.037546757816904,12.198643861264632,-30.616712517818147
5.296499139531542,5.399970258198979,0.7622920828621179,-4.343713882995086,14.545236448970549,-32.887697705958054
5.350498842113532,5.545422622688685,0.7188549440321671,-4.672590860054667,17.312488072414652,-35.708668851518226
5.405953068340419,5.7185475034128315,0.6721290354316204,-5.0296775485698495,20.602352924771445,-39.237854883862475
5.463138543374547,5.924571032660546,0.6218322599459218,-5.422056097408475,24.550297370675562,-43.67421371218105
5.522384253701152,6.170074006367301,0.567611698971837,-5.858798234530285,29.330466049182256,-49.26547112487916
5.584084993764825,6.463378666859123,0.5090237166265342,-6.3514529457790765,35.15278207714779,-56.30494730745169
5.648718780433416,6.814906487630601,0.44550918716874344,-6.914502418853593,42.23189360012633,-65.0891757158463
5.716867845309722,7.237225423631864,0.3763641629802075,-7.565394176012056,50.67210383156889,-75.75837285304439
5.789240099546041,7.743946461947553,0.3007102212200869,-8.3229779045425,60.12172212116612,-87.81486311340542
5.8666795641655165,8.345163683159214,0.2174804421746619,-9.201126535676554,68.85773460581096,-98.84440272700972
5.950131200997109,9.033741029217323,0.12546917681789635,-10.18957056294665,71.78999425084452,-101.72287606104483
6.040468611289282,9.751640971725768,0.02357347118842984,-11.2067993235571,58.102570494763256,-81.31018941585168
6.13798502100654,10.332666676673401,-0.08849452204714116,-12.019901217715617,16.148852800673996,-21.30767147285087
6.241311687773274,10.49415520468014,-0.20869353422429732,-12.232977932444125,-42.8801809011507,62.60162752541748
6.346253239820076,10.065353395668634,-0.3310233135487386,-11.60696165718995,-80.02542507186253,115.97669302475114
6.446906773776762,9.265099144950009,-0.4470929301206381,-10.447194726942438,-82.46738314502426,121.02613042454757
6.539557765226262,8.440425313499766,-0.5515648773900625,-9.236933422696962,-69.47517397519401,104.63947180249647
6.62396201836126,7.745673573747826,-0.6439342116170321,-8.190538704671997,-55.09780337324152,86.3411598899173
6.701418754098738,7.194695540015411,-0.7258395986637521,-7.327127105772824,-43.215832417557216,71.51332505939367
6.773365709498893,6.762537215839839,-0.7991108697214804,-6.611993855178888,-34.00236971104458,60.40176423076282
6.840991081657291,6.422513518729394,-0.8652308082732693,-6.0079762128712595,-26.88239199768448,52.21710633692079
6.905216216844585,6.153689598752549,-0.9253105704019818,-5.485805149502052,-21.29480563662884,46.18521547362518
6.9667531128321105,5.94074154238626,-0.9801686218970024,-5.0239529947658,-16.819012548382293,41.71897756512514
7.026160528255973,5.772551416902438,-1.0304081518446604,-4.606763219114549,-13.160890604088047,38.39644847529299
7.083886042424997,5.640942510861557,-1.076475784035806,-4.222798734361619,-10.119828320426226,35.91303381348094
7.140295467533613,5.5397442276572955,-1.1187037713794221,-3.8636683962268092,-7.561616036776613,34.04180711667598
7.195692909810186,5.464128067289529,-1.1573404553416902,-3.5232503250600495,-5.399513273457725,32.60533765009794
7.2503341904830805,5.410132934554952,-1.1925729585922906,-3.1971969485590703,-3.581480038859937,31.456693492455873
7.30443551982863,5.374318134166352,-1.2245449280778813,-2.8826300136345115,-2.081312697687156,30.467190780935404
7.358178701170293,5.353505007189481,-1.2533712282142264,-2.5779581058251573,-0.8918996401775992,29.519301998582065
7.411713751242188,5.3445860107877055,-1.279150809272478,-2.2827650858393365,-0.01930069983848138,28.50385123064801
7.465159611350066,5.344393003789321,-1.3019784601308713,-1.9977265735328564,0.5232086903727655,27.32099480843209
7.518603541387959,5.349625090693048,-1.3219557258661998,-1.7245166254485356,0.7215400110097093,25.88447939275442
7.57209979229489,5.356840490803146,-1.3392008921206853,-1.4656718315209913,0.5675514408978394,24.128322602342667
7.625668197202922,5.362516005212124,-1.3538576104358953,-1.2243886054975648,0.06555526549548868,22.014501021296304
7.679293357255043,5.363171557867079,-1.3661014964908709,-1.0042435952846018,-0.762451905480989,19.539700646571816
7.732925072833714,5.3555470388122695,-1.3761439324437168,-0.8088465888188836,-1.8739949762199481,16.739002623761742
7.7864805432218365,5.33680708905007,-1.3842323983319056,-0.6414565625812662,-3.2066420829872166,13.684797881066318
7.839848614112337,5.304740668220198,-1.3906469639577181,-0.5046085837706029,-4.682050359449189,10.480272247971776
7.892896020794539,5.257920164625706,-1.395693049795424,-0.39980586129088513,-6.212893003224729,7.248191052985418
7.945475222440796,5.195791234593459,-1.399691108408333,-0.32732395076103094,-7.7113187421714295,4.116943564133351
7.99743313478673,5.118678047171745,-1.4029643479159433,-0.2861545151196974,-9.09730013790579,1.2064323766477894
8.048619915258447,5.027705045792687,-1.4058258930671403,-0.27409019135321955,-10.305415379762968,-1.3837613689057104
8.098896965716374,4.924650891995057,-1.4085667949806726,-0.28792780504227666,-11.28914327210851,-3.5822785046724257
8.148143474636324,4.811759459273972,-1.4114460730310954,-0.3237505900890009,-12.022395802642523,-5.349323557572564
8.196261069229063,4.691535501247547,-1.4146835789319854,-0.3772438256647266,-12.498560476019467,-6.675768609752762
8.243176424241538,4.566549896487352,-1.4184560171886327,-0.4440015117622542,-12.727671082902768,-7.578986538732856
8.288841923206412,4.439273185658324,-1.4228960323062552,-0.5197913771495828,-12.73246294463213,-8.096674508765961
8.333234655062995,4.311948556212003,-1.428093946077751,-0.6007581222372425,-12.54404196249553,-8.279920814853057
8.376354140625114,4.186508136587047,-1.4341015273001234,-0.683557330385773,-12.19776448297072,-8.186554023369183
8.418219221990984,4.06453049175734,-1.440937100603981,-0.7654228706194649,-11.729740149727375,-7.875492539232497
8.458864526908558,3.9472330902600663,-1.4485913293101758,-0.8441777960117899,-11.17417580871634,-7.40247145785366
8.498336857811159,3.8354913321729027,-1.4570331072702936,-0.9182025105903264,-10.56160787201462,-6.81722595996361
8.536691771132888,3.7298752534527564,-1.4662151323761967,-0.9863747701899626,-9.917943955108473,-6.161994148583723
8.573990523667415,3.6306958139016716,-1.4760788800780964,-1.0479947116757997,-9.264159531885293,-5.471078067750162
8.610297481806432,3.5380542185828188,-1.4865588271948544,-1.1027054923533013,-8.616467560207303,-4.771159358763077
8.64567802399226,3.4518895429807457,-1.4975858821183874,-1.1504170859409322,-7.986786713793882,-4.08208303438995
8.680196919422068,3.3720216758428068,-1.5090900529777966,-1.1912379162848317,-7.383362687635754,-3.4178736853640928
8.713917136180497,3.2981880489664492,-1.521002432140645,-1.2254166531384727,-6.811434233632617,-2.7878113573145065
8.746899016670161,3.2300737066301233,-1.5332565986720297,-1.2532947667116177,-6.273872010369953,-2.197454500642685
8.779199753736462,3.1673349865264235,-1.5457895463391458,-1.2752693117180445,-5.771748889175183,-1.6495469102295084
8.810873103601725,3.1096174976346718,-1.5585422394563262,-1.2917647808203396,-5.304823192371329,-1.1447819183159957
8.841969278578071,3.0565692657109587,-1.5714598872645296,-1.3032126000034996,-4.871931699130639,-0.6824210937753832
8.872534971235181,3.0078499487196524,-1.5844920132645646,-1.3100368109412535,-4.471298446964791,-0.26077871677434306
8.902613470722377,2.9631369642500043,-1.5975923813739772,-1.312644598108997,-4.1007700018851185,0.12240990303654782
8.932244840364877,2.922129264231153,-1.6107188273550672,-1.3114204990786313,-3.757989470499009,0.46971613721270394
8.961466133007189,2.884549369526163,-1.6238330323458536,-1.3067233377065044,-3.4405212842203214,0.7838223952287366
8.99031162670245,2.8501441566839594,-1.6369002657229186,-1.298885113754217,-3.1459375652116495,1.0673859251640319
9.01881306826929,2.818684781031843,-1.6498891168604608,-1.2882112545025768,-2.8718752574373894,1.3229475868913196
9.046999916079608,2.789966028457469,-1.6627712294054866,-1.2749817786336637,-2.6160715199639593,1.5528738826777053
9.074899576364183,2.7638053132578295,-1.6755210471918232,-1.2594530398068866,-2.3763833204989133,1.759323037585431
9.102537629496762,2.7400414800528403,-1.688115577589892,-1.2418598094310322,-2.150795819335589,1.9442280646385395
9.12993804429729,2.7185335218594844,-1.7005341756842023,-1.2224175287846468,-1.9374230198389377,2.1092915045902636
9.157123379515886,2.699159291661095,-1.7127583509720488,-1.201324613738744,-1.7345032701689223,2.2559879237896134
9.184114972432496,2.681814258959406,-1.7247715971094362,-1.178764734500848,-1.540391505075271,2.3855713345095797
9.21093311502209,2.6664103439086535,-1.7365592444544447,-1.1549090211557522,-1.353549584112026,2.4990855245207917
9.237597218461177,2.6528748480675333,-1.7481083346660022,-1.1299181659105444,-1.172535681936433,2.597375898527621
9.264125966941853,2.641149491248169,-1.7594075163251077,-1.1039444069252682,-0.9959933893159574,2.681101888830222
9.290537461854335,2.6311895573550093,-1.7704469603943604,-1.077133388036966,-0.8226409663613514,2.750749324187206
9.316849357427884,2.622963147691396,-1.78121829427473,-1.049625894795094,-0.6512610331351432,2.8066423849450715
9.343078988904798,2.6164505373600444,-1.791714553222681,-1.0215594709456433,-0.48069087206775646,2.8489549432243613
9.369243494278399,2.6116436286393667,-1.8019301479321375,-0.9930699215133997,-0.3098134399963932,2.8777212081022023
9.395359930564792,2.6085454942394026,-1.8118608471472715,-0.9642927094323777,-0.13754913651138806,2.892845681853009
9.421445385507186,2.607170002874289,-1.8215037742415952,-0.9353642526138476,0.03715165655272386,2.894112495718497
9.447517085535928,2.607541519439816,-1.8308574167677336,-0.9064231276566627,0.2153152664438024,2.8811942413446054
9.473592500730327,2.6096946721042538,-1.8399216480443001,-0.8776111852432166,0.3979506579415402,2.8536604543288533
9.499689447451368,2.6136741786836692,-1.8486977598967322,-0.849074580699928,0.5860545982991049,2.8109859457150588
9.525826189238206,2.6195347246666603,-1.8571885057037316,-0.8209647212427774,0.7806160397185627,2.75255922184246
9.552021536484872,2.627340885063846,-1.8653981529161594,-0.7934391290243528,0.9826196693137057,2.6776912889633278
9.57829494533551,2.6371670817569832,-1.8733325442064028,-0.7666622161347195,1.1930485299836895,2.585625213431961
9.60466661615308,2.64909756705682,-1.88099916636775,-0.7408059640003999,1.412885549503496,2.4755469091943456
9.631157591823648,2.663226422551855,-1.888407226007754,-0.7160504949084564,1.6431137235955027,2.3465977616950813
9.657789856049167,2.67965755978781,-1.8955677309568386,-0.6925845172915056,1.8847145739285696,2.1978898834550358
9.684586431647045,2.6985047055270956,-1.9024935761297537,-0.6706056184569552,2.1386643336537245,2.0285250467332796
9.711571478702316,2.7198913488636327,-1.9091996323143232,-0.6503203679896224,2.405927088188826,1.8376186717137337
9.738770392190952,2.743950619745521,-1.9157028359942194,-0.6319441812724851,2.687443801346519,1.624330687361155
9.766209898388407,2.7708250577589864,-1.9220222778069442,-0.6157008743988736,2.9841157672234337,1.3879056531800056
9.793918148965997,2.8006662154312205,-1.928179286550933,-0.6018218178670734,3.2967805245967545,1.1277252630929258
9.821924811120308,2.833634020677188,-1.9341975047296038,-0.5905445652361442,3.626177630245865,0.8433772767642974
9.85026115132708,2.869895796979647,-1.9401029503819653,-0.5821107924685012,3.972900891525037,0.5347460611589748
9.878960109296877,2.909624805894897,-1.9459240583066504,-0.5767633318569114,4.337332699677364,0.20213127808656756
9.908056357355825,2.9529981328916706,-1.9516916916252196,-0.5747420190760457,4.719555004754632,-0.15359721974986643
9.937586338684742,3.000193682939217,-1.95743911181598,-0.5762779912735444,5.119230306992331,-0.5307986474096388
9.967588275514133,3.0513859860091403,-1.9632018917287155,-0.5815859777476408,5.535444985352797,-0.9268037201065751
9.998102135374225,3.1067404358626685,-1.969017751506192,-0.5908540149487065,5.966506690726048,-1.337588696370565
10.029169539732852,3.166405502769929,-1.9749262916556791,-0.6042299019124121,6.409688022950433,-1.7573705847123635
10.06083359476055,3.2305023829994335,-1.9809685906748034,-0.6218036077595357,6.86091132171212,-2.1781174124752893
10.093138618590546,3.299111496216555,-1.9871866267523988,-0.6435847818842886,7.314375722964847,-2.588977367965889
10.12612973355271,3.372255253446203,-1.9936224745712416,-0.6694745555639475,7.762139903084851,-2.9756493644519177
10.159852286087173,3.4498766524770517,-2.000317220126881,-0.6992310492084667,8.193694910137804,-3.3197491157907786
10.194351052611943,3.53181360157843,-2.007309530618966,-0.7324285403663745,8.595593791138365,-3.598272890005054
10.229669188627726,3.6177695394898133,-2.01463381602263,-0.768411269266425,8.951249208093351,-3.7833267861830127
10.265846884022624,3.7072820315707466,-2.022317928715294,-0.8062445371282552,9.24106277048834,-3.8423664399642017
10.302919704338331,3.79969265927563,-2.030380374086577,-0.8446682015278972,9.44309649738023,-3.739260033526464
10.340916630931087,3.894123624249432,-2.038827056101856,-0.8820608018631618,9.534508968669968,-3.4365044325185976
10.37985786717358,3.989468713936132,-2.0476476641204875,-0.9164258461883478,9.49391219735946,-2.8988259045750033
10.419752554312941,4.084407835909727,-2.056811922582371,-0.9454141052340979,9.30461256279697,-2.09811407258894
10.460596632672038,4.177453961537696,-2.066266063634712,-0.9663952459599873,8.958362740635758,-1.0191447073307869
10.502371172287415,4.267037588944054,-2.0759300160943117,-0.9765866930332952,8.458834646222922,0.33506534894641904
10.545041548176854,4.3516259354062825,-2.085695883024645,-0.973236039543831,7.823705417509254,1.9398998792492375
10.588557807530917,4.429862989581375,-2.0954282434200833,-0.9538370407513386,7.084284216276449,3.749371929975183
10.63285643742673,4.500705831744139,-2.104966613827597,-0.9163433214515867,6.282171481071572,5.700723709140235
10.677863495744171,4.563527546554855,-2.1141300470421127,-0.8593360843601844,5.463427901188715,7.722754263544897
10.72349877120972,4.618161825566743,-2.1227234078857147,-0.7821085417247354,4.671697756985581,9.745811625923327
