th1 (rad),w1 (rad/s),th2 (rad),w2 (rad/s),a1 (rad/s^2),a2 (rad/s^2)
2.7725300634357937,2.219283762066677,0.6074969058369979,0.9560146014442507,-5.143638943810103,-4.392860727726713
2.7947229010564603,2.167847372628576,0.6170570518514404,0.9120859941669835,-5.003028967734838,-4.663472289312826
2.816401374782746,2.1178170829512277,0.6261779117931103,0.8654512712738553,-4.862524511534416,-4.9144822052686505
2.8375795456122583,2.0691918378358833,0.6348324245058489,0.8163064492211688,-4.722670168159179,-5.14690610116039
2.8582714639906173,2.0219651361542916,0.6429954889980606,0.7648373882095649,-4.583990225190781,-5.361744018046773
2.87849111535216,1.9761252339023838,0.6506438628801562,0.7112199480290972,-4.446982092257827,-5.5599730572083965
2.898252367691184,1.9316554129798056,0.6577560623604471,0.6556202174570132,-4.312110772567038,-5.742540784897044
2.917568921820982,1.8885343052541352,0.6643122645350172,0.5981948096080427,-4.179804215077107,-5.910359321621477
2.9364542648735235,1.8467362631033641,0.6702942126310977,0.539091216391828,-4.050449388065346,-6.064300020781926
2.954921627504557,1.8062317692227108,0.675685124795016,0.47844821618400873,-3.924388920374125,-6.205188627469199
2.972983945196784,1.7669878800189696,0.6804696069568561,0.41639632990931674,-3.801918163032836,-6.333800798907718
2.9906538239969738,1.7289686983886412,0.6846335702559493,0.35305832192023956,-3.68328253089494,-6.450857862469729
3.0079435109808603,1.6921358730796918,0.6881641534751517,0.2885497432955423,-3.568674991190589,-6.557022684734043
3.0248648697116574,1.656449123167786,0.6910496509081071,0.22297951644820185,-3.4582335733856184,-6.652895525221253
3.041429360943335,1.6218667874339299,0.6932794460725892,0.15645056119598932,-3.3520387825101507,-6.739009750937628
3.0576480288176744,1.5883463996088283,0.694843951684549,0.08906046368661304,-3.2501108063809574,-6.815827292658249
3.0735314928137627,1.5558452915450187,0.6957345563214151,0.02090219076003054,-3.152406416268009,-6.883733731182501
3.0890899457292127,1.5243212273823386,0.6959435782290154,-0.04793514655179447,-3.0588154711133115,-6.9430329120787535
3.104333158003036,1.4937330726712055,0.6954642267634975,-0.117365475672582,-2.969156948180015,-6.993941001480039
3.119270488729748,1.4640415031894054,0.6942905720067717,-0.1873048856873824,-2.883174439013388,-7.036579914413529
3.133910903761642,1.4352097587992716,0.6924175231498979,-0.25767068483151767,-2.8005310701237955,-7.070970072431607
3.1482630013496347,1.4072044480980337,0.6898408163015828,-0.32838038555583376,-2.7208038344400136,-7.097022480851555
3.162335045830615,1.3799964097536335,0.6865570124460244,-0.3993506103643493,-2.6434773542232657,-7.1145301600213235
3.176135009928151,1.353561636211401,0.6825635063423809,-0.47049591196456253,-2.567937140975567,-7.123159022447358
3.189670626290265,1.3278822648016453,0.6778585472227353,-0.5417275021890361,-2.4934624753807744,-7.1224383614584355
3.2029494489382815,1.3029476400478375,0.6724412722008449,-0.6129518858036205,-2.4192191031110424,-7.111751210705807
3.21597892533876,1.278755449016727,0.6663117533428087,-0.6840693979106786,-2.344252033029675,-7.090324950617111
3.2287664798289275,1.2553129286864302,0.6594710593637019,-0.7549726474168497,-2.267478835228182,-7.057222680994215
3.241319609115792,1.2326381403341484,0.6519213328895334,-0.8255448742267918,-2.187683968986869,-7.011336050419534
3.2536459905191335,1.2107613006442797,0.6436658841472654,-0.8956582347309872,-2.1035148252508997,-6.951380433397653
3.2657536035255763,1.1897261523917706,0.6347093017999555,-0.9651720390649637,-2.0134803423365306,-6.87589357266864
3.277650865049494,1.1695913489684053,0.6250575814093059,-1.03393097479165,-1.9159532415809908,-6.783239049898772
3.289346778539178,1.1504318165525955,0.6147182716613894,-1.1017633652906378,-1.8091771208324812,-6.671616199676164
3.300851096704704,1.1323400453442707,0.603700638008483,-1.1684795272873993,-1.6912798207973867,-6.539078317663596
3.312174497158147,1.1154272471362967,0.5920158427356089,-1.2338703104640354,-1.560294616921784,-6.383561201551107
3.32332876962951,1.099824300967079,0.5796771396309686,-1.2977059224795464,-1.414190852894891,-6.202924158446569
3.334327012639181,1.08568239243813,0.5667000804061731,-1.359735164064012,-1.250915576499986,-5.995005556927292
3.345183836563562,1.0731732366731301,0.553102728765533,-1.419685219633285,-1.0684475114500733,-5.757694727015538
3.355915568930293,1.0624887615586294,0.5389058765692002,-1.4772621669034405,-0.8648642425337123,-5.48902144091963
3.3665404565458794,1.0538401191332922,0.5241332549001658,-1.5321523813126368,-0.6384227512626197,-5.187263268135898
3.3770788577372124,1.047455891620666,0.5088117310870395,-1.5840250139939958,-0.3876523752945543,-4.851069734582414
3.387553416653419,1.0435793678677205,0.4929714809470995,-1.63253571133982,-0.11145786796917953,-4.479600409267553
3.397989210332096,1.0424647891880288,0.4766461238337013,-1.6773317154324956,0.19077145493788403,-4.072671839455108
3.4084138582239762,1.0443725037374076,0.45987280667937636,-1.7180584338270466,0.5190523657285243,-3.6309057913394853
3.4188575832613504,1.049563027394693,0.4426922223411059,-1.7543674917404415,0.8727059178882368,-3.1558687713142444
3.4293532135352973,1.0582900865735754,0.42514854742370145,-1.785926179453584,1.2502724995788723,-2.650190658485335
3.439936114401033,1.0707928115693641,0.4072892856291656,-1.8124280860384372,1.6494540064989915,-2.1176489170614237
3.4506440425167266,1.087287351634354,0.38916500476878124,-1.8336045752090515,2.0670933404816685,-1.5632047550694532
3.4615169160330703,1.1079582850391707,0.3708289590166907,-1.849236622759746,2.4992000841049147,-0.9929791711762191
3.472596498883462,1.1329502858802198,0.35233659278909324,-1.8591664144715083,2.941028375368267,-0.4141603254388808
3.483926001742264,1.1623605696339026,0.33374492864437816,-1.8633080177258972,3.387208774726941,0.16516096906499939
3.495549607438603,1.196232657381172,0.3151118484671192,-1.8616564080352471,3.8319306331741476,0.7362240326204791
3.5075119340124146,1.2345519637129134,0.29649528438676676,-1.8542941677090423,4.269165775839742,1.2898883362122928
3.5198574536495437,1.2772436214713108,0.27795234270967634,-1.8413952843469195,4.692919059774674,1.8169626979879583
3.532629889864257,1.3241728120690575,0.25953838986620714,-1.8232256573670398,5.097487449734307,2.3085502150108637
3.5458716179849477,1.3751476865664005,0.24130613329253675,-1.8001401552169312,5.477707439736491,2.756382714358356
3.5596230948506116,1.4299247609637655,0.22330473174036744,-1.7725763280733475,5.82917135537235,3.153118952140135
3.573922342460249,1.488216474517489,0.20557896845963397,-1.741045138551946,6.148396272442157,3.492584473090087
3.588804507205424,1.5497004372419105,0.1881685170741145,-1.7061192938210452,6.432934486776195,3.7699373911411875
3.604301511577843,1.6140297821096725,0.17110732413590404,-1.6684199199096332,6.68142081608413,3.981752314422975
3.62044180939894,1.680843990270514,0.1544231249368077,-1.6286023967654035,6.893558492692836,4.126022936232717
3.637250249301645,1.7497795751974423,0.13813710096915366,-1.5873421674030763,7.070051061854639,4.202091217087428
3.6547480450536196,1.8204800858159886,0.1222636792951229,-1.545321255232202,7.212491827899752,4.210516655804705
3.6729528459117793,1.8926050040949862,0.10681046674280088,-1.503216088674155,7.3232246381909185,4.152902390352359
3.6918788959527293,1.9658372504768955,0.09177830585605934,-1.4616870647706315,7.405190174653103,4.031695741508407
3.7115372684574983,2.0398891522234264,0.07716143520835303,-1.4213701073555474,7.461770738484663,3.849979650709096
3.7319361599797327,2.114506859608273,0.06294773413479755,-1.3828703108484564,7.496644243277295,3.611268838083852
3.7530812285758155,2.189473302041046,0.04911903102631299,-1.3467576224676179,7.51365530192948,3.31932106584269
3.774975961596226,2.264609855060341,0.03565145480163681,-1.313564411809191,7.516708377799447,2.9779702328123525
3.79762206014683,2.339776938838335,0.022515810683544902,-1.2837847094810675,7.509685330200026,2.5909846112296275
3.821019829535213,2.4148737921403356,0.009677963588734228,-1.2578748633687713,7.496387541477422,2.161950663686137
3.8451685674566165,2.48983766755511,-0.0029007850449534866,-1.23625535673191,7.48050126293427,1.6941806837466953
3.8700669441321676,2.564642680184453,-0.015263338612272586,-1.219313549894443,7.465583855688528,1.1906409976038856
3.895713370934012,2.639298518741338,-0.027456474111217016,-1.207407139918404,7.455068161367872,0.6538965685139982
3.9221063561214256,2.7138492003550168,-0.039530545510401055,-1.200868174233264,7.452282215290544,0.08606743535628768
3.949244848124976,2.788372022507922,-0.051539227252733695,-1.2000074998797012,7.460481803866872,-0.5112076500493646
3.977128568350055,2.8629768405465907,-0.0635393022515307,-1.205119576380195,7.4828938713582875,-1.1368048816398988
4.0057583367555205,2.9378057792601737,-0.07559049801533266,-1.216487625196594,7.522769421902603,-1.790150620233198
4.035136394548123,3.0130334734792,-0.0877553742672986,-1.234389131398926,7.5834452875228955,-2.4712622258142978
4.065266729282914,3.0888679263544288,-0.10009926558128786,-1.259101753657069,7.6684149116618565,-3.180798420998768
4.096155408546458,3.165552075471047,-0.11269028311785854,-1.2909097378670567,7.7814091214917145,-3.9201231276995165
4.127810929301169,3.243366166685964,-0.1255993804965291,-1.3301109691440518,7.9264887392560475,-4.691386941671615
4.160244590968028,3.3226310540785247,-0.13890049018796963,-1.377024838560768,8.108151835444296,-5.49763087486753
4.193470901508813,3.4037125724329678,-0.1526707385735773,-1.4320011473094432,8.33145948640841,-6.342917739071278
4.227508027233142,3.4870271672970516,-0.16699075004667174,-1.495430324700156,8.602185101114998,-7.232497592408084
4.262378298906112,3.5730490183082018,-0.1819450532936733,-1.5677553006242368,8.926993753436827,-8.173015028068003
4.298108789089194,3.66231895584257,-0.19762260629991568,-1.6494854509049168,9.313659495878923,-9.172767706658965
4.3347319786476195,3.755455550801359,-0.21411746080896485,-1.7412131279715064,9.771330263138003,-10.242027262054535
4.372286534155633,3.8531688534327393,-0.2315295920886799,-1.8436334005920518,10.31085146275772,-11.393435146560924
4.410818222689961,3.9562773680603165,-0.24996592609460042,-1.957567752057661,10.945160116600746,-12.64248622579288
4.450380996370564,4.065728969226324,-0.26954160361517704,-2.08399261431559,11.689760175849994,-14.00811006694244
4.491038286062827,4.182626570984824,-0.2903815297583329,-2.224073714985014,12.56328365645852,-15.513349897626926
4.5328645517726756,4.308259407549409,-0.31262226690818307,-2.3792072139612834,13.588125871454771,-17.18611397583848
4.575947145848169,4.444140666263957,-0.3364143390477959,-2.551068353719668,14.7911046527633,-19.05991697538651
4.620388552510809,4.59205171279159,-0.3619250225849926,-2.741667523473533,16.20400933125785,-21.17440619663875
4.666309069638725,4.754091806104168,-0.38934169781972794,-2.9534115854399206,17.863727093261026,-23.575210552372546
4.713849987699767,4.932729077036778,-0.41887581367412713,-3.189163690963646,19.81126446037646,-26.312121401209346
4.763177278470135,5.130841721640542,-0.4507674505837636,-3.4522849049757394,22.08822513918695,-29.43353889892977
4.81448569568654,5.351723973032412,-0.485290299633521,-3.7466202939650373,24.727786088324706,-32.97296690886541
4.868002935416864,5.599001833915659,-0.5227565025731714,-4.0763499630536915,27.734258831014863,-36.91917117499325
4.92399295375602,5.876344422225808,-0.5635200022037083,-4.445541674803624,31.039953701504256,-41.154064053236944
4.982756397978278,6.18674395924085,-0.6079754189517446,-4.857082315335994,34.41978967233816,-45.33078819952337
5.044623837570686,6.530941855964231,-0.6565462421051045,-5.310390197331228,37.33713763687637,-48.65487900105851
5.109933256130328,6.904313232332995,-0.7096501440784168,-5.796938987341813,38.71253837028686,-49.557485992813746
5.178976388453658,7.2914386160358635,-0.7676195339518349,-6.29251384726995,36.72622148899683,-45.418847862261956
5.251890774614017,7.658700830925832,-0.8305446724245344,-6.746702325892569,29.10652924373829,-32.98285555684431
5.328477782923275,7.949766123363215,-0.8980116956834602,-7.076530881461012,14.710128916321702,-10.603204749822638
5.407975444156907,8.096867412526432,-0.9687770044980702,-7.182562928959238,-3.879877768318333,18.065251024780896
5.488944118282172,8.058068634843249,-1.0406026337876626,-7.00191041871143,-20.323115746851823,43.999561915833674
5.569524804630604,7.854837477374731,-1.110621737974777,-6.561914799553093,-29.503631178012537,59.84370510211867
5.648073179404352,7.559801165594605,-1.1762408859703077,-5.963477748531906,-31.357495727637716,65.36291176361935
5.723671191060298,7.246226208318228,-1.2358756634556267,-5.309848630895712,-28.807829287986944,64.58918136237826
5.79613345314348,6.958147915438358,-1.288974149764584,-4.66395681727193,-24.52997008652627,61.26589282367555
5.8657149322978634,6.712848214573095,-1.335613717937303,-4.051297889035174,-19.999102801757186,57.47652003420144
5.932843414443594,6.512857186555523,-1.3761266968276549,-3.47653268869316,-15.825236571823634,54.091083750471505
5.99797198630915,6.354604820837287,-1.4108920237145866,-2.935621851188445,-12.190801301610826,51.370176120444796
6.061518034517523,6.232696807821179,-1.440248242226471,-2.4219200899839968,-9.105278722188048,49.31948182568503
6.1238450025957345,6.141644020599298,-1.464467443126311,-1.9287252717271466,-6.521886569575161,47.853476301017274
6.185261442801727,6.076425154903546,-1.4837546958435823,-1.450190508716974,-4.384766679235415,46.86244689878762
6.246025694350763,6.032577488111192,-1.498256600930752,-0.9815660397290977,-2.6457674394630706,46.237125657700716
6.306351469231875,6.006119813716562,-1.508072261328043,-0.5191947831520906,-1.2688300116589144,45.87616188429021
6.36641266736904,5.9934315135999725,-1.513264209159564,-0.060433164309188436,-0.22960442327809924,45.68725020107289
6.4263469825050406,5.991135469367191,-1.513868540802656,0.3964393377015405,0.4866226399862983,45.58636488606546
6.486258337198713,5.996001695767054,-1.5099041474256405,0.8523029865621952,0.8874934708605053,45.49685277712234
6.546218354156383,6.00487663047566,-1.5013811175600185,1.3072715143334186,0.9761937363076975,45.34900198932821
6.60626712046114,6.014638567838737,-1.4883084024166844,1.7607615342267007,0.7539473156250148,45.080218286110586
6.666413506139527,6.022178040994987,-1.4707007870744173,2.2115637170878064,0.22230810987373206,44.63572479879827
6.726635286549477,6.024401122093725,-1.4485851499035391,2.657920965075789,-0.6148197328490509,43.96960187768843
6.786879297770414,6.018252924765234,-1.4220059402527812,3.0976169838526735,-1.7495030842829302,43.04594556347113
6.8470618270180665,6.000757893922405,-1.3910297704142545,3.5280764394873847,-3.1685069961844787,41.83992618826037
6.907069405957291,5.96907282396056,-1.3557490060193806,3.9464757013699883,-4.852472636193246,40.33856462188051
6.966760134196896,5.920548097598627,-1.3162842490056808,4.349861347588793,-6.77556002055086,38.54110354584112
7.025965615172883,5.852792497393119,-1.2727856355297928,4.735272383047204,-8.90553583582608,36.458921299411685
7.084493540146814,5.763737139034858,-1.2254329116993208,5.099861596041321,-11.204260166848043,34.11499996788222
7.142130911537162,5.651694537366378,-1.1744342957389076,5.441011595720143,-13.628514180650333,31.543003076216877
7.198647856910826,5.515409395559875,-1.120024179781706,5.756441626482312,-16.131115217264135,28.786034151619617
7.253801950866425,5.3540982433872335,-1.0624597635168829,6.044301967998508,-18.662280742403883,25.89513815874399
7.307342933300297,5.167475435963195,-1.0020167438368979,6.3032533495859475,-21.171217483785707,22.927585266893775
7.359017687659929,4.9557632611253375,-0.9389842103410384,6.532529202254885,-23.607915088191056,19.94495727790927
7.408575320271182,4.719684110243427,-0.8736589183184895,6.731978775033978,-25.925107141605185,17.01105634513785
7.455772161373616,4.460433038827375,-0.8063391305681498,6.902089338485356,-28.080326679963708,14.189680569701197
7.50037649176189,4.179629772027738,-0.7373182371832963,7.043986144182369,-30.037937711919803,11.542357754652306
7.5421727894821675,3.87925039490854,-0.6668783757414726,7.159409721728892,-31.77098470169322,9.126182835577472
7.580965293431253,3.5615405478916076,-0.5952842785241836,7.250671550084666,-33.262685565444684,6.991946741232778
7.616580698910169,3.228913692237161,-0.522777563023337,7.320591017496994,-34.50741246028092,5.182757018606856
7.64886983583254,2.8838395676343516,-0.4495716528483671,7.372418587683063,-35.511060280243505,3.733324479821393
7.677708231508884,2.5287289648319167,-0.3758474669715365,7.409751832481277,-36.29078560044291,2.6700285391011875
7.702995521157203,2.1658211088274877,-0.3017499486467237,7.436452117872289,-36.874190479243225,2.011790887580216
7.7246537322454785,1.7970792040350554,-0.22738542746800083,7.456570026748091,-37.29810489404665,1.771702305967539
7.742624524285829,1.4240981550945888,-0.15281972720051992,7.474287049807766,-37.60717085156758,1.9592784113187325
7.7568655058367755,1.048026446578913,-0.07807685670244226,7.493879833920953,-37.85243954286273,2.583175733202415
7.767345770302565,0.6695020511502858,-0.003138058363232721,7.519711591252977,-38.09015559046252,3.6541743805579467
7.774040790814068,0.2886004952456606,0.07205905754929705,7.556253335058557,-38.38081475648436,5.188203816981417
7.776926795766524,-0.09520765231918299,0.14762159089988264,7.608135373228371,-38.788426681298574,7.209103640630155
7.775974719243332,-0.48309191913216876,0.22370294463216633,7.680226409634672,-39.37964268771917,9.750575708582709
7.771143800052011,-0.8768883460093604,0.30050520872851305,7.777732166720499,-40.22190058987233,12.856210177235937
7.762374916591917,-1.2791073519080838,0.378282530395718,7.906294268492858,-41.378733265543275,16.575180971697783
7.749583843072837,-1.6928946845635164,0.4573454730806466,8.072046078209835,-42.898355556361395,20.948458726406336
7.732654896227202,-2.1218782401271303,0.5380659338627449,8.281530665473898,-44.78759339239586,25.974779401657567
7.711436113825931,-2.5697541740510887,0.620881240517484,8.541278459490474,-46.95562411788416,31.53494117175966
7.68573857208542,-3.0393104152299304,0.7062940251123887,8.85662787120807,-49.09993913249108,37.23581228898739
7.65534546793312,-3.530309806554841,0.7948603038244694,9.228985994097945,-50.496922672879286,42.12035017800233
7.620042369867572,-4.035279033283634,0.8871501637654489,9.650189495877969,-49.69074944851895,44.23098403677702
7.579689579534736,-4.532186527768824,0.9836520587242286,10.092499336245739,-44.27503394887142,40.289041225222284
7.534367714257048,-4.974936867257537,1.084577052086686,10.495389748497962,-31.51144559472126,26.51531417577005
7.484618345584472,-5.29005132320475,1.1895309495716655,10.760542890255662,-10.892066033812918,2.1280559310402682
7.431717832352425,-5.3989719835428795,1.297136378474222,10.781823449566065,12.655017085147758,-26.26658111486943
7.377728112516996,-5.272421812691402,1.4049546129698827,10.51915763841737,30.79567060749539,-47.48047420529248
7.325003894390082,-4.964465106616448,1.5101461893540564,10.044352896364446,39.27325697394191,-55.95150078309233
7.275359243323917,-4.571732536877029,1.610589718317701,9.484837888533523,40.1146434282759,-54.59466994629598
7.229641917955147,-4.17058610259427,1.705438097203036,8.938891189070564,37.19923805905178,-48.670846653739545
7.187936056929205,-3.7985937220037522,1.7948270090937417,8.452182722533168,33.1543103980992,-41.634159069235416
7.1499501197091675,-3.46705061802276,1.8793488363190733,8.035841131840813,29.182996355092076,-34.990342663840046
7.11527961352894,-3.1752206544718393,1.9597072476374815,7.685937705202413,25.697559366296705,-29.195736945082924
7.083527406984222,-2.9182450608088724,2.0365666246895056,7.393980335751584,22.7733371490706,-24.27796669446901
