th1 (rad),w1 (rad/s),th2 (rad),w2 (rad/s)
3.308596301419227,2.6027675769525374,3.233382611029646,0.8515265846854928
3.3346239771887523,2.620668938551222,3.241897876876501,0.8477490964155996
3.3608306665742647,2.6413228553507744,3.250375367840657,0.8433565644307885
3.3872438951277726,2.6646641271049956,3.258808933484965,0.8384875761907887
3.4138905363988226,2.6906167425469434,3.267193809246873,0.8333040161814381
3.440796703824292,2.7190935914689502,3.275526849408687,0.8279915439715928
3.4679876397389813,2.7499962680513863,3.283806764848403,0.8227599188865802
3.495487602419495,2.7832150088016756,3.292034364037269,0.8178430966450679
3.5233197525075117,2.81862880727537,3.3002127950037194,0.8134990235115611
3.5515060405802656,2.8561057433402732,3.308347785238835,0.8100090584558249
3.5800670980136684,2.8955035566643987,3.3164478758233935,0.8076769641649761
3.6090221335803125,2.936670482155292,3.3245246454650434,0.8068274238492548
3.6383888384018657,2.9794463494085113,3.332592919703536,0.8078040624167583
3.668183301895951,3.0236639294465264,3.3406709603277034,0.8109669768976855
3.698419941190416,3.069150491252771,3.3487806300966803,0.8166898103734823
3.729111446102944,3.1157295094027777,3.356947528200415,0.825356433817175
3.7602687411969717,3.1632224443859167,3.3652010925385865,0.8373573283662162
3.791900965640831,3.2114505010559946,3.3735746658222485,0.8530857836036355
3.824015470651391,3.2602362599688144,3.382105523658285,0.8729340425850076
3.856617833251079,3.309405072647743,3.390834864084135,0.8972895294198512
3.8897118839775566,3.3587861158571886,3.399807759378333,0.9265312890266127
3.9232997451361284,3.408213011690115,3.4090730722685993,0.961026751347394
3.9573818752530294,3.457523938731666,3.4186833397820733,1.0011289052950672
3.9919571146403463,3.5065611830262187,3.4286946288350237,1.047173933655462
4.027022726470609,3.5551701038261254,3.4391663681715783,1.099479322543581
4.06257442750887,3.603197515752334,3.450161161397014,1.1583424216090379
4.098606402666393,3.6504895138592177,3.4617445856131046,1.2240393976131378
4.135111297804985,3.6968887894699813,3.473984979589236,1.2968244972461267
4.172080185699685,3.742231501520319,3.4869532245616974,1.3769295171909584
4.209502500714889,3.78634378024487,3.500722519733607,1.4645633715181878
4.247365938517337,3.829037947769606,3.515368153448789,1.559911648604581
4.285656317995033,3.870108544457339,3.5309672699348345,1.6631360612303874
4.324357403439607,3.9093282519216075,3.5475986305471383,1.7743737131492727
4.363450685958823,3.946443804786299,3.565342367678631,1.8937361318275625
4.402915124006686,3.9811719847158087,3.5842797289969064,2.021308048787655
4.442726843853844,4.013195792888822,3.604492809484783,2.1571459447643204
4.482858801782732,4.042160901471187,3.626064268932426,2.3012764155754453
4.523280410797444,4.06767249085233,3.6490770330881803,2.453694455260211
4.563957135705967,4.089292587079617,3.6736139776407826,2.6143617947513986
4.604850061576763,4.10653802224907,3.6997575955882964,2.783205476156541
4.645915441799254,4.118879148388849,3.727589650349862,2.9601168834280864
4.687104233283142,4.125739441093672,3.7571908191841428,3.1449514882199257
4.7283616276940785,4.1264961311429165,3.788640334066342,3.337529602933877
4.769626589005508,4.120481998885774,3.822015630095681,3.5376384585652425
4.810831408994366,4.106988455929571,3.8573920146813334,3.7450359393887767
4.851901293553661,4.085270020971073,3.894842374075221,3.9594563053070795
4.892753993763372,4.054550272135944,3.934436937128292,4.180618210250316
4.933299496484731,4.014029329777552,3.976243119230795,4.408235274394439
4.973439789782507,3.962892897528696,4.02032547197474,4.642029380122793
5.013068718757794,3.900322876729172,4.066745765775968,4.881746724262432
5.052071947525086,3.825509588838574,4.115563233018593,5.127176454258206
5.090327043413471,3.737665721712029,4.166834997561175,5.378171416017681
5.127703700630591,3.636042304493259,4.220616711721352,5.634670101957315
5.164064123675524,3.5199473823306526,4.276963412740925,5.896718236956096
5.19926359749883,3.388768712246194,4.3359305951104865,6.1644874586001155
5.233151284621292,3.242002895170762,4.397575469696488,6.438287042748397
5.265571313573,3.0792951343408106,4.461958340123972,6.718562287692331
5.296364264916408,2.9004966110107455,4.529143963000895,7.005869526568388
5.3253692310265155,2.7057507617598398,4.599202658266579,7.300812106973241
5.352426738644114,2.4956260732435176,4.672210779336312,7.603913197241509
5.377382999376549,2.271321763199883,4.748249911308727,7.915389183999318
5.4000962170085485,2.034983342806841,4.827403803148719,8.234772011307271
5.420446050436617,1.7901740764381162,4.909751523261792,8.560314060300927
5.438347791200998,1.5425449354329188,4.995354663864801,8.888108713507016
5.453773240555328,1.3007037442747031,5.084235750999872,9.210907717861836
5.466780277998074,1.0771545787195353,5.17634482817849,9.51677918535078
5.477551823785269,0.8889002007716162,5.271512620031998,9.788112319364183
5.486440825792986,0.7568861539291887,5.36939374322564,10.002027225210526
5.4940096873322775,0.7032148900818058,5.469414015477745,10.133599126627107
5.501041836233096,0.7457154441074013,5.570750006744016,10.16246751042582
5.50849899067417,0.8915637983070563,5.672374681848274,10.080646550851599
5.5174146286572405,1.1338277290985928,5.77318114735679,9.896537678916488
5.5287529059482265,1.4538330963286237,5.872146524145955,9.631531606879989
5.543291236911513,1.8278332399406938,5.968461840214755,9.311407311927152
5.56156956931092,2.2335037513702516,6.061575913334027,8.958409826865473
5.583904606824622,2.6533266793088544,6.151160011602681,8.587605609808346
5.610437873617711,3.075017884419118,6.237036067700765,8.207033032907441
5.641188052461902,3.4905042175848187,6.319106398029839,7.81955118094398
5.67609309463775,3.894645571962717,6.397301909839279,7.424841691750118
5.715039550357377,4.284217647259081,6.47155032675678,7.0209557515337035
5.757881726829968,4.657246533929574,6.541759884272118,6.605341885025449
5.804454192169263,5.012626577375281,6.607813303122372,6.175471928073501
5.854580457943016,5.34992615270376,6.669568022403107,5.72919648671557
5.908079719470054,5.669302640520257,6.726859987270262,5.264927942810633
5.964772745875257,5.971470577231509,6.779509266698368,4.781715747560664
6.0244874516475715,6.257684646539664,6.827326424173975,4.279257156865776
6.087064298112968,6.52971028817474,6.870118995742633,3.7578767250036256
6.152361400994716,6.789759714945061,6.907697762992669,3.2185075833715526
6.220258998144166,7.0403701615441125,6.939882838826384,2.6627154012438874
6.290662699759607,7.284193432157869,6.966509992838823,2.0928219930111616
6.363504634081186,7.5236499470266285,6.987438212768935,1.5122106645268043
6.438741133551452,7.760376488895796,7.002560319414203,0.9259286453894094
6.51634489844041,7.994371421351546,7.011819605868098,0.34173274909916274
6.596288612653925,8.222741403520804,7.015236933359089,-0.22828714154815866
6.678516026689134,8.438054086479346,7.012954061943608,-0.7655334944471098
6.762896567553927,8.626651831414398,7.005298726999137,-1.2427265206131624
6.849163085868071,8.768044883278291,6.992871461793006,-1.6233932164115075
6.936843534700854,8.837456490283792,6.97663752962889,-1.8660468085465265
7.025218099603692,8.813331613498706,6.957977061543425,-1.9356533903132118
7.113351415738679,8.687939446027553,6.938620527640293,-1.819578588126013
7.2002308101989545,8.473607253094787,6.9204247417590325,-1.5370240781881614
7.284966882729902,8.197975819009567,6.905054500977151,-1.1321250473629987
7.366946640919998,7.891776424112807,6.893733250503521,-0.6556198607234529
7.445864405161126,7.57894602081437,6.887177051896287,-0.1495108811998983
7.52165386536927,7.273704609409442,6.885681943084288,0.3581382033314633
7.594390911463365,6.982330673125333,6.889263325117603,0.8512552382289893
7.664214218194618,6.706114755168316,6.8977758774998925,1.3217590137934192
7.731275365746302,6.4437402683649525,6.910993467637827,1.7661745040936787
7.795712768429952,6.192781885700425,6.9286552126787635,2.1834340876593887
7.857640587286956,5.950532200146977,6.950489553555357,2.573628431483097
7.9171459092884255,5.7144168206758295,6.976225837870188,2.937358200257945
7.9742900774951835,5.482181833686957,7.005599419872767,3.2754264671544715
8.029111895832052,5.251962231734449,7.038353684544312,3.588711772107785
8.081631518149397,5.022290209281514,7.07424080226539,3.8781311829370853
8.131854420242211,4.792073808717633,7.11302211409476,4.144644135309799
8.179775158329388,4.560561277085663,7.154468555447858,4.389271073085684
8.225380771100244,4.327298815675362,7.198361266178715,4.613113654968181
8.268653759256997,4.092085669964442,7.244492402728397,4.817370250971476
8.309574615956642,3.8549287816318243,7.292666105238111,5.003344262104702
8.34812390377296,3.6159984790378914,7.342699547859159,5.172444874124462
8.384283888563338,3.3755863860981448,7.394423996600403,5.326180945205203
8.41803975242432,3.1340666185835113,7.447685806052455,5.466149216814735
8.449380418610156,2.8918612938927066,7.502347298220602,5.594018131135817
8.478299031549083,2.649411368027217,7.558287479531961,5.7115083445686246
8.504793145229355,2.4071538400689008,7.615402562977647,5.820370599384339
8.528864683630044,2.1655064641718025,7.673606268971491,5.922360975214288
8.550519748271762,1.924861330372849,7.732829878723634,6.019212684930812
8.569768361575491,1.6855890710754216,7.793022005572942,6.112602484092526
8.586624252286246,1.4480560625191474,7.854148030413867,6.204108404441762
8.601104812911437,1.2126578240954216,7.916189114458285,6.295153906755418
8.613231391152391,0.9798727789826582,7.979140653525839,6.38693179550785
8.623030118942218,0.750341316828068,8.043009971480917,6.48029974118118
8.630533532110498,0.5249749551290339,8.107812968892729,6.575638979521959
8.635783281661787,0.305097845533319,8.17356935868795,6.672670687336675
8.63883426011712,0.09261534674957414,8.240296065561315,6.770234173440824
8.639760413584616,-0.1098117013298496,8.307998407295724,6.866052361349393
8.638662296571317,-0.2986360923549775,8.376658930909217,6.956547534127262
8.635675935647766,-0.4694229547571396,8.44622440625049,7.03682134911756
8.630981706100195,-0.6170941214344843,8.516592619741665,7.100955614968799
8.62481076488585,-0.7365182262294132,8.587602175891353,7.142771804807412
8.617445582623557,-0.8234364379886082,8.659029893939428,7.157041650861474
8.60921121824367,-0.875506616700158,8.730600310448043,7.140863442797471
8.600456152076669,-0.8930570691129428,8.802008944876018,7.094660715677223
8.59152558138554,-0.8791613200203824,8.87295555203279,7.022287550830561
8.582733968185336,-0.8389545569526902,8.943178427541095,6.9301403893145235
8.574344422615809,-0.7785057448986186,9.012479831434241,6.825700275573714
8.566559365166823,-0.7037238059635218,9.08073683418998,6.7161404882963645
8.559522127107188,-0.6196300672296913,9.147898239072942,6.607429828443386
8.553325826434891,-0.5300631150671173,9.213972537357376,6.504004421137706
8.54802519528422,-0.437702227368424,9.279012581568754,6.40884632304314
8.543648173010535,-0.3442531234989176,9.343101044799186,6.323758515719174
8.540205641775545,-0.2506779373451915,9.406338629956377,6.249682209086534
8.537698862402094,-0.1574058036403051,9.468835452047243,6.1869769485457216
8.53612480436569,-0.06450070278596083,9.530705221532699,6.135637260214851
8.53547979733783,0.028215047174604727,9.592061594134847,6.095447225035513
8.535761947809576,0.1210744911655856,9.653016066385202,6.066084716031436
8.536972692721232,0.21450786836121016,9.713676913545516,6.047188534225937
8.539117771404843,0.30900447869626635,9.774148798887776,6.0383997055882475
8.542207816191805,0.40508826244610197,9.834532795943659,6.039385424567108
8.546258698816267,0.5033024793381984,9.89492665018933,6.049851619466452
8.55129172360965,0.6042002411365883,9.955425166383995,6.069548166960861
8.557333726021016,0.7083386537048978,10.016120648053603,6.098269380728021
8.564417112558065,0.8162750224010943,10.077103341860884,6.135851430932962
8.572579862782076,0.9285640444671124,10.138461856170213,6.182167698837821
8.581865503226748,1.045755220233339,10.200283533158592,6.237122637530142
8.592323055429082,1.1683899125700552,10.262654759533893,6.300644425076256
8.604006954554782,1.2969976084559949,10.325661203784655,6.372676512010082
8.616976930639343,1.4320910148187997,10.389387968904757,6.453168049641784
8.63129784078753,1.5741596729232565,10.453919649401174,6.542063120233062
8.647039437516764,1.7236618171837192,10.519340280603505,6.639288664485986
8.664276055688601,1.881014248625971,10.585733167248364,6.744741012206463
8.68308619817486,2.046580052529708,10.653180577370428,6.858270969109803
8.703551998700158,2.2206540758839752,10.721763287061526,6.979667500220312
8.725758539458997,2.403446204686672,10.79155996206373,7.1086401833740265
8.749793001505864,2.5950626542647925,10.86264636389747,7.2448007898559394
8.775743628048513,2.795485715473935,10.93509437179603,7.387644585400669
8.803698485203252,3.0045526883774833,11.008970817650036,7.536532230086501
8.833744012087028,3.2219350764799457,11.084336139950901,7.690673476935649
8.865963362851828,3.4471194893564463,11.161242874720257,7.849114199595589
8.900434557745392,3.6793920728711385,11.239734016716213,8.010728575644839
8.937228478474104,3.9178285974570923,11.31984130247266,8.174218451974495
8.976406764448676,4.161292510372548,11.401583486992406,8.338121945274079
9.018019689552402,4.408443209257657,11.484964706445147,8.50083310100069
9.062104121644978,4.657756435530071,11.569973037455155,8.660633876772238
9.10868168600028,4.907557955563356,11.656579376222878,8.815738794920636
9.157757265555913,5.156070585855704,11.744736764172083,8.964351350753377
9.209317971414471,5.401473194494502,11.834380277679617,9.104729779306329
9.263332703359415,5.641968736291325,11.92542757547268,9.235258275440648
9.319752390722329,5.875856896824995,12.017780158227087,9.354518500052777
9.378510959690578,6.1016058183625494,12.111325343227614,9.461355475533415
9.439527017874203,6.3179169226414205,12.205938897982948,9.554932005127515
9.502706187100618,6.523777197483217,12.301488218034223,9.634766638534456
9.56794395907545,6.71849448278531,12.397835884419568,9.700751862853938
9.635128903903302,6.901713104932802,12.494843403048106,9.753151357403711
9.70414603495263,7.0734093516628045,12.592374916622143,9.792577427442282
9.774880128469258,7.233868372581615,12.690300690896565,9.81995172084682
9.847218812195074,7.3836457885722,12.788500208105035,9.836453714704284
9.921055270080796,7.523518366539453,12.886864745252078,9.843462075746285
9.996290453746191,7.654428489849046,12.98529936600954,9.842493867258687
10.072834738644682,7.777426900867908,13.083724304682127,9.835145856494467
10.15060900765336,7.893617481391727,13.182075763247072,9.82304110854314
10.229545182467277,8.004106879618366,13.280306174332503,9.807782878786647
10.309586251263461,8.10996078400689,13.37838400312037,9.790916732832695
10.39068585910353,8.212167731220294,13.476293170448697,9.773900953341066
10.472807536415733,8.311610602995273,13.574032179982108,9.758084687134234
10.555923642445686,8.40904544549574,13.67161302685345,9.744692935650338
10.640014096900643,8.505086924171193,13.769059956209952,9.73481735406463
10.725064966142355,8.600199573273954,13.8664081297506,9.729411841300575
10.811066961875095,8.694693968450668,13.963702248163605,9.729292016617578
10.898013901559603,8.7887270000927,14.06099516832978,9.735137838781759
10.98590117156053,8.882305517181496,14.158346546717597,9.747498792821784
11.074724226732345,8.975292716965122,14.255821534645815,9.766801220222147
11.164477153901997,9.067416753687093,14.353489546848037,9.793357483787194
11.255151321438868,9.158281115398829,14.45142312168591,9.827376728188787
11.346734132592857,9.247376362803978,14.549696888967798,9.868977016407767
11.439207896220896,9.334092833585236,14.648386659131877,9.918198589575704
11.532548824556748,9.417733888582084,14.747568645027634,9.975017914551621
11.62672616344257,9.49752921407949,14.84731882417315,10.039362053655385
11.721701455583364,9.572647601274388,14.947712444709705,10.111122720181735
11.817427931596109,9.642208505905327,15.048823671911522,10.190169179598733
11.913850016655163,9.705291556574535,15.15072536370751,10.27635892980083
12.010902932220908,9.760943040568943,15.253488953005519,10.369544856818283
12.108512362626598,9.80817826530519,15.357184401573702,10.469577329988761
12.20659414527965,9.845978590522597,15.46188017487359,10.576299491313945
12.305053931184876,9.873281875941288,15.567643169786729,10.689533831547907
12.403786749944288,9.888965125557394,15.674538508102208,10.80905806349183
12.502676401199862,9.891818281152199,15.782629088737126,10.934568348820862
12.601594584011384,9.880508491648111,15.891974772225335,11.06562817971438
12.700399668927865,9.853534855246435,16.00263105402248,11.201601766074006
12.79893501748033,9.809174721686041,16.11464707168322,11.341571784409131
12.897026764697191,9.74542430386885,16.22806278952731,11.48424300929116
12.99448100773588,9.65993874117841,16.34290521962022,11.627835920495237
13.091080395147664,9.549979998178392,16.459183578825172,11.769978108678222
13.186580195129448,9.412385044495844,16.576883359911953,11.907606339955274
13.280704045574407,9.243571301445993,16.695959423311507,12.036898343250336
13.373139758588866,9.039600462365748,16.81632840674401,12.153260023226826
13.463535763212525,8.796323802485787,16.937861006976277,12.251399197061748
13.551499001237383,8.509629405956153,17.060374998946894,12.325518216220177
13.636595295296944,8.17580123126863,17.183630181109095,12.369651033857373
13.71835330760963,7.791979107459014,17.307326691447667,12.378151502786633
13.796273098684221,7.3566778092077865,17.431108206475532,12.34630731642465
13.869839876776298,6.870287696226402,17.554571279639777,12.271011793625444
13.938542753738563,6.335450815596967,17.67728139757603,12.151385029916003
14.001897261894532,5.757200646617639,17.79879524787519,11.989214423202027
14.059469268360708,5.142783417097762,17.918687392107213,11.789099227330246
14.110897102531686,4.501144059378899,18.036578384380515,11.558240295871977
14.155908543125475,3.842142395153617,18.152160787339234,11.30590116033835
14.194329967077012,3.175634416232489,18.265219798942617,11.042650199966648
14.226086311239337,2.510581574936519,18.375646300942282,10.779543912123714
14.251192126988702,1.854328081909176,18.48344174006352,10.527411393838069
14.269735407807794,1.2121254954255918,18.5887158540019,10.296356630501148
14.28185666276205,0.5869121560264208,18.69167942030691,10.095531644834402
14.287725784322314,-0.020702688057383622,18.792634736755257,9.933176030471444
14.28751875744174,-0.6123312340566374,18.891966497059972,9.816883185439895
14.281395445101174,-1.1916621290732428,18.99013532891437,9.754043535115368
14.269478823810442,-1.7643512198977298,19.087675764265523,9.752422784402599
14.251835311611464,-2.3379970007511743,19.18519999210955,9.820845306349863
14.228455341603953,-2.9222125655217,19.28340844517305,9.969948820688176
14.199233215948736,-3.528733316719889,19.38310793337993,10.21291656229799
14.163945882781537,-4.171321885465513,19.48523709900291,10.565878499834715
14.122232663926882,-4.864761997176959,19.590895884001256,11.047045954982323
14.073585043955113,-5.621014406793301,19.70136634355108,11.671966695605462
14.01737489988718,-6.437756835582677,19.818086010507134,12.438309045906651
13.952997331531353,-7.269849151233109,19.9424691009662,13.286952487319331
13.880298840019023,-7.977491428598726,20.075338625839393,14.030276550486251
13.800523925733035,-8.301775495542264,20.215641391344256,14.317100228589611
13.717506170777613,-8.03671554274458,20.358812393630153,13.867726618469248
13.637139015350167,-7.325375770504145,20.497489659814846,12.877308389151146
13.563885257645126,-6.508509902714304,20.62626274370636,11.802253486073226
13.498800158617982,-5.776016158855654,20.74428527856709,10.887497294863572
13.441039997029426,-5.163552152916197,20.853160251515728,10.170747658211292
