th1 (rad),w1 (rad/s),th2 (rad),w2 (rad/s),a1 (rad/s^2),a2 (rad/s^2)
2.797686095314366,2.223455726498329,3.3937909671582274,0.4778279047729975,-4.7195391130534095,3.5754407481911277
2.819920652579349,2.176260335367795,3.398569246205957,0.5135823122549088,-4.594850008109342,3.747419197933023
2.841683255933027,2.1303118352867014,3.403705069328506,0.551056504234239,-4.463499333928786,3.897897577645416
2.862986374285894,2.0856768419474134,3.4092156343708484,0.5900354800106932,-4.32569847434345,4.02805878738467
2.883843142705368,2.042419857203979,3.4151159891709555,0.6303160678845399,-4.181750906939707,4.139178894551482
2.904267341277408,2.0006023481345823,3.421419149849801,0.6717078568300547,-4.032035951924106,4.232604264820058
2.9242733647587538,1.9602819886153413,3.428136228418101,0.7140338994782554,-3.876991221940932,4.30972700914896
2.9438761846449073,1.921512076395932,3.435276567412884,0.7571311695697449,-3.717094641146589,4.37195994242401
2.9630913054088666,1.8843411299844661,3.442847879108581,0.800850768993985,-3.552846817209069,4.420712140537672
2.9819347167087114,1.8488126618123755,3.4508563867985207,0.8450578903993617,-3.3847544269165946,4.457366015663949
3.000422843326835,1.8149651175432095,3.459306965702514,0.8896315505560012,-3.2133151302622176,4.483256626835828
3.018572494502267,1.7828319662405874,3.468203281208074,0.9344641168243595,-3.0390043742828543,4.49965372676163
3.036400814164673,1.7524419224977588,3.4775479223763175,0.9794606540919758,-2.862264299580086,4.507746835283605
3.0539252333896507,1.7238192795019578,3.487342528917237,1.0245381224448118,-2.683494829291098,4.508633439752616
3.07116342618467,1.696984331209047,3.4975879101416854,1.0696244568423379,-2.503046908828748,4.5033102626615635
3.0881332694967605,1.6719538621207595,3.508284154710109,1.1146575594689534,-2.321217778172508,4.492667412129172
3.1048528081179683,1.6487416843390343,3.5194307303047982,1.159584233590245,-2.138248097239464,4.477485142105567
3.1213402249613584,1.6273592033666398,3.531026572640701,1.2043590850113008,-1.9543207071184572,4.458432894172839
3.137613816995025,1.6078159962954552,3.543070163490814,1.2489434139530293,-1.7695607925127865,4.436070267120368
3.1536919769579796,1.5901203883703274,3.555559597630344,1.293304116624233,-1.5840372096645894,4.4108495585384
3.169593180841683,1.5742800162736816,3.5684926387965863,1.337412612209617,-1.397764755192753,4.383119538622594
3.1853359810044197,1.560302368721754,3.5818667649186824,1.381243807595843,-1.2107071707487693,4.353130144620212
3.2009390046916373,1.5481952970142665,3.5956792029946407,1.4247751090420453,-1.0227807027393758,4.321037819938469
3.21642095766178,1.5379674899868727,3.6099269540850614,1.46798548724143,-0.8338580627506862,4.2869112608057165
3.2318006325616486,1.5296289093593658,3.6246068089574757,1.5108545998494871,-0.643772660552606,4.250737372382376
3.2470969216552423,1.5231911827538398,3.6397153549559706,1.5533619735733109,-0.45232300609677306,4.212427273104607
3.2623288334827807,1.5186679526928721,3.6552489746917036,1.5954862463043569,-0.25927719872268823,4.171822219344011
3.2775155130097096,1.5160751807056452,3.671203837154747,1.6372044684977969,-0.06437744028281801,4.128699351375853
3.292676264816766,1.515431406302817,3.687575881839725,1.6784914620115554,0.1326554761264687,4.082777185886456
3.3078305788797944,1.5167579610640816,3.7043607964598406,1.71931923387042,0.33211773863353494,4.033720799933868
3.322998158490435,1.5200791384504169,3.721553988798545,1.7596564418697587,0.5343181787837531,3.9811466668048827
3.3381989498749394,1.5254223202382544,3.7391505532172427,1.7994679085378076,0.739574046558465,3.9246271161754196
3.353453173077322,1.532818060703839,3.7571452323026207,1.8387141796995619,0.9482069183219827,3.8636944000850417
3.3687813536843603,1.542300129887059,3.7755323740996163,1.8773511237004123,1.160538756741239,3.7978443532396113
3.384204354983231,1.5539055174544714,3.7943058853366205,1.9153295672328086,1.3768881421305752,3.726539641831617
3.3997434101577757,1.567674398875777,3.8134591810089487,1.9525949636511248,1.5975666960842898,3.64921260016604
3.4154201541465334,1.58365006583662,3.83298513064546,1.9890870896527852,1.8228757202414967,3.5652676596060484
3.4312566548048995,1.6018788230390348,3.852876001541988,2.0247397662488456,2.053103075195668,3.4740833803492155
3.4472754430352897,1.6224098537909915,3.8731233992044767,2.059480600052338,2.2885203265778653,3.375014103879615
3.4634995415731997,1.6452950570567701,3.893718205205,2.093230741091134,2.5293801869242074,3.2673912531014757
3.4799524921437675,1.6705888589260123,3.914650512615911,2.1259046536221486,2.77591428284843,3.150524318556044
3.4966583807330274,1.6983480017544965,3.9359095591521327,2.157409896807709,3.0283312770837507,3.0237015830936382
3.5136418607505724,1.728631314525334,3.9574836581202097,2.187646912638645,3.286815373962071,2.8861906542042393
3.5309281738958256,1.7614994682649547,3.979360127246596,2.2165088191806874,3.5515252346889996,2.737238893163875
3.548543168578475,1.7970147206118448,4.001525215438403,2.243881208112326,3.8225933251404074,2.576073853507658
3.5665133157845936,1.8352406538632489,4.0239640275195265,2.2696419466474027,4.100125713556311,2.4019038684428518
3.5848657223232263,1.876241910998812,4.046660446986,2.2936609853318313,4.384202328005146,2.2139189581583416
3.6036281414332145,1.9200839342788634,4.069597056839319,2.3158001749134147,4.674877673179605,2.011292264299872
3.6228289807760032,1.9668327110106594,4.092755058588453,2.3359130975564133,4.9721819919963,1.7931822612447583
3.64249730788611,2.0165545309306223,4.1161141895640165,2.3538449201688607,5.276122838207989,1.558736043807979
3.662662853195416,2.069315759312702,4.139652638765705,2.3694322806069406,5.586686999832381,1.3070940509066034
3.6833560107885432,2.125182629311026,4.163346961571775,2.3825032211160067,5.903842676944052,1.037396657675366
3.7046078370816535,2.1842210560804665,4.187171993782935,2.3928771876927604,6.227541767597008,0.748793158928674
3.7264500476424582,2.2464964737564364,4.211100765659863,2.400365119282047,6.5577220474555515,0.4404537806134334
3.7489150123800226,2.312073694230992,4.235104416852683,2.4047696570881816,6.894308935679888,0.1115855008753994
3.7720357493223324,2.381016783587791,4.259152113423565,2.4058855120969356,7.237216413382868,-0.23854735106291858
3.79584591715821,2.4533889477216198,4.283210968544535,2.4035000385863063,7.5863464908101745,-0.610596508402674
3.8203798066354264,2.5292524126297216,4.307245968930398,2.3973940735022796,7.9415863916860205,-1.0050956690535027
3.8456723307617238,2.608668276546582,4.331219909665421,2.3873431168117447,8.302802320928343,-1.4224169557666795
3.8717590135271895,2.6916962997558653,4.355093340833538,2.373118947254078,8.669828284448538,-1.8627154763443263
3.898675976524748,2.7783945826003507,4.378824530306079,2.354491792490635,9.042447912540881,-2.3258588497079344
3.9264599223507517,2.8688190617257594,4.402369448230985,2.3312332039935555,9.420366574022706,-2.8113377050013795
3.9551481129680095,2.9630227274659866,4.425681780270921,2.303119826943542,9.803170228881099,-3.3181520895005043
3.9847783402426695,3.0610544297547975,4.448712978540356,2.2699383060485365,10.190266429717703,-3.8446674173013218
4.015388884540218,3.1629570940519747,4.471412361600842,2.231491631875523,10.580801639480573,-4.38843206330129
4.047018455480737,3.2687651104467803,4.4937272779195965,2.1876073112425103,10.973547613125364,-4.945947023936629
4.0797061065852045,3.378500586578034,4.515603351032022,2.138147841003144,11.366748092438225,-5.512376407742703
4.113491112450985,3.492168067502416,4.536984829442053,2.083024076925717,11.75791571241424,-6.08118626372253
4.14841279312601,3.6097472246265583,4.55781507021131,2.0222122142884915,12.143568258755495,-6.643699114636244
4.184510265372276,3.731182907214113,4.578037192354195,1.955775223142129,12.518894046128734,-7.188553773671425
4.221822094444417,3.8563718476754003,4.597594944585616,1.8838896854054148,12.877339536285366,-7.701066609674566
4.260385812921172,3.985145243038254,4.61643384143967,1.8068790193086692,13.21012045601286,-8.162504483568814
4.300237265351554,4.117246447598383,4.634502631632756,1.7252539744729811,13.505673577695495,-8.549305470037224
4.341409729827538,4.2523031833753375,4.651755171377486,1.6397609197726088,13.749093770081156,-8.83232664682528
4.383932761661291,4.389794121076149,4.6681527805752125,1.5514376533043561,13.921643773145698,-8.976264045514045
4.427830702872052,4.529010558807606,4.683667157108256,1.4616750128492157,14.000484305813405,-8.939480516492607
4.473120808460128,4.66901540186574,4.698283907236748,1.3722802076842897,13.958845364196195,-8.674585595174616
4.519810962478785,4.808603855507702,4.712006709313591,1.2855343517325435,13.766928807449576,-8.130210960393402
4.567897001033862,4.946273143582197,4.724862052830916,1.2042322421286094,13.393859570375946,-7.25445830469254
4.6173597324696845,5.080211739285957,4.736904375252203,1.131687659081684,12.810925686731261,-6.000370186888743
4.668161849862544,5.20832099615327,4.748221251843019,1.0716839572127965,11.996091952493742,-4.333379411105445
4.720245059824077,5.3282819156782075,4.758938091415147,1.028350163101742,10.939297889182654,-2.2399693595417696
4.773527878980858,5.437674894570034,4.769221593046164,1.0059504695063244,9.64742795621371,0.2641682162849612
4.827904627926559,5.534149174132171,4.779281097741228,1.008592151669174,8.147321556273495,3.1289872906245346
4.883246119667881,5.615622389694906,4.789367019257919,1.0398820245754195,6.48516963055643,6.270516913406429
4.939402343564829,5.68047408600047,4.7997658395036735,1.1025871937094838,4.72144358168305,9.578258142182856
4.996207084424834,5.727688521817301,4.810791711440769,1.1983697751313123,2.9220231636741114,12.928672428940834
5.053483969643008,5.756908753454042,4.822775409192082,1.3276564994207205,1.147765085384761,16.201492229804742
5.111053057177548,5.76838640430789,4.836051974186289,1.4896714217187679,-0.5545222313044826,19.294411982564235
5.168736921220627,5.762841181994845,4.850948688403477,1.6826155415444102,-2.1573315000065265,22.132499506865027
5.226365333040575,5.74126786699478,4.867774843818921,1.9039405366130604,-3.6531266457907727,24.67091334562395
5.283778011710523,5.704736600536872,4.8868142491850515,2.1506496700693,-5.051221566160638,26.891901846121012
5.340825377715892,5.654224384875266,4.908320745885744,2.4195686885305103,-6.372549601034304,28.79845875357839
5.397367621564645,5.590498888864923,4.932516432771049,2.707553276066294,-7.644019270011978,30.407126172209537
5.453272610453294,5.5140586961648035,4.959591965531712,3.0116245377883897,-8.893611298343671,31.741703502829555
5.508413197414942,5.425122583181367,4.989708210909596,3.3290415728166853,-10.146714714752266,32.828669947209654
5.562664423246756,5.323655436033844,5.022998626637762,3.657328272288782,-11.423705348294826,33.69437951813683
5.615900977607094,5.209418382550896,5.05957190936065,3.99427206747015,-12.738511109645504,34.36366796129264
5.667995161432603,5.082033271454441,5.099514630035351,4.337908747083077,-14.097832333299815,34.85936070455958
5.718815494147147,4.941054948121443,5.1428937175061815,4.686502354128673,-15.500705892299301,35.202173724941474
5.768226043628362,4.78604788919845,5.189758741047468,5.038524091378088,-16.93814926184763,35.4105571405899
5.816086522520346,4.616666396579974,5.240143981961249,5.392629662783987,-18.39265504093092,35.50008527210629
5.8622531864861465,4.432739846170665,5.294070278589089,5.74763051550505,-19.837311806467184,35.48202061376251
5.906580584947853,4.234366728105993,5.35154658374414,6.1024507216426755,-21.234304957215645,35.360669012212135
5.948924252228912,4.022023678533836,5.412571090960567,6.456057411764797,-22.532518670685757,35.12911562387433
5.989144489014251,3.7966984918269784,5.477131665078215,6.80734856800354,-23.6639588647729,34.76293281121248
6.0271114739325204,3.5600589031792493,5.5452051507582505,7.154977896115665,-24.538834907930624,34.21158943172426
6.062712062964313,3.3146705540999433,5.6167549297194075,7.497093790432908,-25.039545558550326,33.387786239739604
6.0958587685053125,3.06427509851444,5.691725867623736,7.830971652830304,-25.014805682238016,32.156187976195646
6.126501519490457,2.8141270416920596,5.77003558415204,8.15253353259226,-24.277120740890364,30.32557334655935
6.154642789907378,2.571355834283156,5.851560919477962,8.455789266057854,-22.610001519397102,27.652661993302093
6.180356348250209,2.345255819089185,5.936118812138541,8.732315885990875,-19.794932239041337,23.870882042505595
6.2038089064411,2.1473064966987714,6.02344197099845,8.971024706415932,-15.66871245145312,18.758648618864935
6.225281971408088,1.9906193721842402,6.113152218062609,9.158611192604582,-10.21213164400822,12.249697511270037
6.245188165129931,1.888498055744158,6.204738329988655,9.281108167717282,-3.644300601851223,4.553533704543216
6.264073145687372,1.8520550497256458,6.297549411665828,9.326643504762714,3.5374706458421086,-3.7910578214169095
6.2825936961846285,1.887429756184067,6.390815846713455,9.288732926548546,10.635876502612996,-12.011174884909785
6.301467993746469,1.993788521210197,6.48370317597894,9.168621177699448,16.94784593607653,-19.339557890546576
6.321405878958571,2.1632669805709623,6.575389387755934,8.975225598793982,21.97462087874446,-25.268515737741037
6.343038548764281,2.383013189358407,6.665141643743874,8.722540441416571,25.524792909432225,-29.662593871582008
6.366868680657865,2.638261118452729,6.75236704815804,8.425914502700751,27.67572369603391,-32.69303344661429
6.393251291842392,2.915018355413068,6.836626193185047,8.098984168234608,28.657876962611997,-34.68324518128835
6.422401475396523,3.2015971250391884,6.917616034867393,7.752151716421725,28.744270027075853,-35.97089134166634
6.454417446646914,3.489039825309947,6.99513755203161,7.3924428030050615,28.1840439470617,-36.83202569673725
6.489307844900014,3.770880264780564,7.069061980061661,7.024122546037689,27.177749852530503,-37.45951806085312
6.5270166475478195,4.042657763305869,7.139303205522038,6.649527365429158,25.877044124220582,-37.97112081189809
6.567443225180878,4.301428204548075,7.205798479176329,6.269816157310177,24.393916064346847,-38.42763046745199
6.610457507226359,4.545367365191543,7.268496640749431,5.885539852635657,22.811206987570333,-38.85100807994519
6.655911180878275,4.773479435067247,7.327352039275787,5.497029771836205,21.191157401582682,-39.238841056424164
6.703645975228947,4.985391009083074,7.382322336994149,5.104641361271963,19.58129914089335,-39.57466615556002
6.753499885319778,5.1812040004920075,7.433368750606869,4.708894699716363,18.01801928255304,-39.83475927857905
6.805311925324698,5.361384193317538,7.480457697604033,4.3105471069305725,16.52836578996317,-39.99216216058279
6.858925767257873,5.526667851217169,7.523563168673339,3.9106254853247444,15.130607985270586,-40.01857240115709
6.914192445770045,5.677973931069875,7.562669423526586,3.5104397613131737,13.833925368696828,-39.88453458248891
6.970972185080743,5.816313184756844,7.597773821139717,3.1115944154882844,12.637465263537985,-39.558230165953205
7.029135316928312,5.942687837392223,7.6288897652946,2.7160121138287523,11.528922507167541,-39.00310527796147
7.088562195302234,6.057977062463899,7.656049886432887,2.325981061049138,10.482783033723347,-38.17462565451893
7.149141965926874,6.162804892801133,7.6793096970433785,1.9442348045039486,9.458478815251006,-37.0166550713304
7.2107700148548854,6.257389680953643,7.698752045088418,1.5740682537906445,8.398982147419447,-35.458392820930584
7.273343911664422,6.341379502427837,7.714492727626324,1.2194843255813388,7.230879992636986,-33.41355219997475
7.3367577066887,6.413688302354207,7.726687570882138,0.8853488035815913,5.867702403936046,-30.784489375849823
7.400894589712242,6.472365326393567,7.735541058917954,0.5775039098230931,4.218993995925986,-27.474944243511978
7.465618242976177,6.5145552663528274,7.741316098016185,0.3027544673879733,2.207606359795205,-23.4149028641217
7.5307637956397055,6.5366313299507794,7.7443436426900645,0.06860543874675629,-0.20433446170068986,-18.59798789012429
7.596130108939214,6.534587985333773,7.745029697077532,-0.11737444015448661,-2.9856028228788305,-13.123994118451813
7.661475988792551,6.504731957104984,7.743855952675988,-0.24861438133900476,-6.014660272765294,-7.228053570658067
7.726523308363601,6.444585354377331,7.741369808862598,-0.3208949170455854,-9.084099566388964,-1.271420541861713
7.790969161907374,6.353744358713441,7.738160859692142,-0.33360912246420255,-11.940847983700678,4.320743389724384
7.8545066054945085,6.2343358788764345,7.7348247684675,-0.2904016885669587,-14.35194248891415,9.159338348331735
7.916849964283273,6.090816453987293,7.73192075158183,-0.19880830508364133,-16.165897900532002,12.984646857529508
7.977758128823146,5.929157474981973,7.729932668530994,-0.06896183650834625,-17.340178101024193,15.709082117013574
8.037049703572965,5.755755693971731,7.729243050165911,0.0881289846617895,-17.9276553250564,17.398185891565944
8.094607260512682,5.576479140721167,7.730124340012528,0.26211084357744896,-18.038475286600463,18.213641554108893
8.150372051919893,5.396094387855163,7.732745448448303,0.4442472591185379,-17.800176666787525,18.352224493816898
8.204332995798445,5.218092621187288,7.737187921039489,0.6277695040567068,-17.33006393252695,18.002096764011497
8.256513922010319,5.044791981862018,7.743465616080056,0.8077904716968218,-16.72224073660231,17.320801915002924
8.306961841828938,4.877569574495995,7.751543520797024,0.9809984908468511,-16.045284543678754,16.42952912796695
8.355737537573898,4.7171167290592075,7.761353505705492,1.1452937821265206,-15.345455751166075,15.416257575553056
8.40290870486449,4.563662171547547,7.772806443526758,1.299456357882051,-14.651745093120491,14.34224674868469
8.448545326579966,4.417144720616342,7.7858010071055785,1.442878825368898,-13.980786993760987,13.248797471980673
8.49271677378613,4.277336850678732,7.800229795359267,1.5753668000887047,-13.340872161950196,12.16298996324033
8.535490142292918,4.14392812905923,7.815983463360154,1.696996699721108,-12.734932816708007,11.102086795281291
8.576929423583511,4.01657880089215,7.832953430357365,1.8080175676739207,-12.16263835439846,10.076719593607114
8.617095211592433,3.8949524173481653,7.851033606034104,1.908784763609992,-11.62180786759012,9.09311219323346
8.656044735765915,3.778734338672264,7.870121453670204,1.9997158855423265,-11.10933154588978,8.154594255392666
8.693832079152639,3.667641023213366,7.890118612525627,2.0812618280962534,-10.621753096156022,7.262614563134147
8.730508489384773,3.561423492251806,7.9109312308065896,2.1538879737275947,-10.155624511679378,6.4174111833646466
8.76612272430729,3.459867247135012,7.932470110543865,2.218062085561241,-9.707711049898275,5.6184507177894085
8.800721396778641,3.362790136636029,7.954650731399478,2.274246592739135,-9.275099380515243,4.86471431157827
8.834349298145002,3.2700391428308766,7.977393197326869,2.3228937358549175,-8.85524429424787,4.154883094755528
8.86704968957331,3.181486699888398,8.000622134685418,2.364442566802473,-8.445977338000338,3.487458273207787
8.898864556572194,3.0970269265083945,8.024266560353443,2.399317149534551,-8.045492666165002,2.8608391517898974
8.929834825837277,3.0165719998467444,8.048259731848788,2.42792554105245,-7.652320034390532,2.273374327885087
8.960000545835745,2.940048799502839,8.072538987259312,2.450659284331301,-7.265291323428238,1.7233959260544305
8.989401033830774,2.8673958862685565,8.097045580102625,2.4678932435918455,-6.883504653756987,1.2092431919149005
9.018074992693458,2.7985608397309867,8.121724512538544,2.4799856755109944,-6.506288623840993,0.7292794310226233
9.046060601090769,2.7334979534925767,8.146524369293653,2.4872784698212205,-6.133168202232719,0.2819047612926454
9.073395580625695,2.6721662714702497,8.171397153991865,2.490097517434147,-5.763833146216118,-0.13443382791934277
9.100117243340398,2.6145279400080885,8.196298129166207,2.4887531791549535,-5.39810938946828,-0.5212342340296996
