th1 (rad),w1 (rad/s),th2 (rad),w2 (rad/s),a1 (rad/s^2),a2 (rad/s^2)
5.57887725362936,1.2352999336976682,5.302715577045354,2.938678475620983,1.9576384425889368,6.674052912164448
5.591230252966336,1.2548763181235576,5.332102361801564,3.0054190047426275,1.961092295480478,6.485522867101255
5.603779016147572,1.2744872410783623,5.36215655184899,3.07027423341364,1.9919638364271124,6.2575641070846455
5.616523888558355,1.2944068794426333,5.392859294183126,3.1328498744844864,2.0521055831600217,5.987954502036529
5.629467957352781,1.3149279352742336,5.424187792927971,3.1927294195048517,2.142976141372446,5.674910673391793
5.642617236705523,1.336357696687958,5.4561150871230195,3.2494785262387698,2.2655219465796312,5.317222097500381
5.655980813672403,1.3590129161537543,5.488609872385407,3.3026507472137734,2.4200589218601976,4.914386488388242
5.66957094283394,1.3832135053723562,5.5216363798575445,3.3517946120976556,2.60616259400407,4.466736531550495
5.683403077887664,1.409275131312397,5.555154325978521,3.3964619774131606,2.822576755566213,3.9755461412465314
5.697495829200788,1.437500898868059,5.589118945752653,3.4362174388256257,3.067151450875519,3.4431035606932707
5.711870838189468,1.4681724133768144,5.62348112014091,3.4706484744325583,3.3368205018531074,2.872739315484322
5.726552562323237,1.5015406183953455,5.658187604885235,3.4993758675874016,3.627626698236464,2.268799606670331
5.74156796850719,1.53781688537771,5.693181363561109,3.522063863654105,3.934799116196941,1.6365602299794497
5.756946137360967,1.5771648765396795,5.72840200219765,3.5384294659538993,4.252882080660766,0.9820821602943065
5.772717786126364,1.6196936973462872,5.763786296857189,3.5482502875568422,4.575909669082799,0.3120167474270032
5.788914723099827,1.665452794037115,5.799268799732758,3.5513704550311123,4.897614244119138,-0.36662508524653475
5.805569251040199,1.7144289364783065,5.834782504283069,3.547704204178647,5.21165325679693,-1.0467203654270085
5.8227135404049815,1.7665454690462759,5.8702595463248555,3.5372370005243767,5.511836288504181,-1.721276716892685
5.840378995095445,1.8216638319313176,5.905631916330099,3.52002423335545,5.792334444493239,-2.3836492529678917
5.858595633414757,1.87958717637625,5.940832158663654,3.496187740825771,6.047856731768029,-3.027714512069684
5.87739150517852,1.9400657436939301,5.975794036071912,3.465910595705074,6.273782433498642,-3.64799010106968
5.896792162615459,2.0028035680289165,6.010453142028963,3.4294306946943776,6.466243883136325,-4.239695661157522
5.916820198295748,2.06746600686028,6.044747448975906,3.387033738082802,6.622159490690571,-4.798757563627501
5.937494858364351,2.1336876017671855,6.078617786356735,3.339046162446527,6.739221549481205,-5.321765338089711
5.958831734382023,2.2010798172619976,6.1120082479812,3.28582850906563,6.815846706717906,-5.805891585092496
5.980842532554643,2.2692382843291767,6.144866533071856,3.2277695932147052,6.851098813681166,-6.2487888401538925
6.0035349153979345,2.3377492724659885,6.1771442290040035,3.1652817048131663,6.844594288961739,-6.648476745911484
6.026912408122595,2.406195215355606,6.208797046052135,3.0987969373540514,6.796399449133547,-7.0032314204382855
6.05097436027615,2.4741592098469414,6.239785015425675,3.0287646231496685,6.706927893608463,-7.311486646265688
6.07571595237462,2.541228488783026,6.270072661657172,2.9556497566870115,6.57684436857861,-7.571753971140285
6.10112823726245,2.606996932468812,6.299629159224041,2.8799322169756087,6.406979890611653,-7.782566408749544
6.1271982065871375,2.6710667313749283,6.328428481393797,2.8021065528881133,6.198261482524444,-7.9424483985815995
6.153908873900887,2.733049346200173,6.356449546922678,2.7226820689022975,5.951658749235562,-8.0499131202307
6.181239367362889,2.7925659336925284,6.383676367611701,2.6421829376999906,5.6681486928500044,-8.103487127983264
6.209165026699814,2.8492474206210283,6.410098196988701,2.561148066420158,5.348699561315368,-8.101761460777317
6.237657500906025,2.902734416234182,6.435709677652903,2.480130451812385,4.994274031222978,-8.043467726750654
6.266684845068366,2.952677156546412,6.4605109821710265,2.3996957745448784,4.605851514895305,-7.927576980595372
6.29621161663383,2.998735671695365,6.484507939916475,2.3204200047389247,4.184468732619995,-7.753418338033669
6.326198973350784,3.0405803590215648,6.507712139963864,2.242885821358588,3.7312768059876094,-7.52081307651439
6.3566047769409995,3.077893127081441,6.53014099817745,2.167677690593444,3.247611956626743,-7.230218394110552
6.3873837082118134,3.1103692466477084,6.551817775083385,2.0953755066523385,2.735075451625228,-6.882873076523441
6.41848740067829,3.1377200011639608,6.572771530149908,2.026546775887104,2.195616823731093,-6.480935216568323
6.44986460068993,3.159676169401272,6.593036997908779,1.961737423721421,1.6316128096273772,-6.027600143130899
6.481461362383943,3.1759922974975456,6.612654372145993,1.9014614222901118,1.0459331848590572,-5.527185280433875
6.513221285358918,3.186451629346136,6.6316689863688945,1.846189569485773,0.441984084503555,-4.985168291891264
6.545085801652379,3.190871470191172,6.650130882063753,1.7963378865668604,-0.176280157891733,-4.408166077387389
6.576994516354291,3.1891086686122545,6.668094260929421,1.7522562257929866,-0.8043838735849534,-3.8038453598637822
6.608885603040413,3.181064829876405,6.685616823187351,1.7142177721943488,-1.4373997131177525,-3.1807607969693454
6.640696251339177,3.1666908327452274,6.702759000909294,1.6824101642246554,-2.070060860272257,-2.5481234508163713
6.672363159666629,3.145990224142505,6.719583102551541,1.6569289297164917,-2.696910568971664,-1.9155102478539463
6.7038230619080545,3.119021118452788,6.736152391848705,1.6377738272379523,-3.312478862752567,-1.2925325857109977
6.735013273092583,3.085896329825262,6.752530130121085,1.6248485013808422,-3.911472277097306,-0.6884881545251552
6.765872236390836,3.0467816070542892,6.768778615134893,1.6179636198355907,-4.488960325262394,-0.11202314378127762
6.796340052461378,3.0018920038016654,6.784958251333249,1.616843388397778,-5.04054242177817,0.42916842484599294
6.826358972499395,2.9514865795838836,6.801126685217227,1.621135072646238,-5.5624813486176095,0.9285855040881702
6.855873838295233,2.8958617660977075,6.817338035943689,1.6304209276871195,-6.05179356565937,1.3810851328987486
6.88483245595621,2.8353438304411136,6.8336422452205605,1.644231779016107,-6.506291951637936,1.782964576603903
6.9131858942606215,2.7702809109247344,6.850084563010721,1.662061424782146,-6.9245819581013475,2.131961953508302
6.940888703369869,2.701035091343721,6.866705177258543,1.683381044317229,-7.3060167882353975,2.427184354365337
6.967899054283307,2.627974923461367,6.883538987701715,1.7076528878608823,-7.650620461562564,2.668977859799743
6.99417880351792,2.5514687188457414,6.900615516580324,1.7343426664588797,-7.958989237866492,2.858756689974827
7.019693490706378,2.4718788264670764,6.917958943244912,1.7629302333586279,-8.23218193429346,2.998809085764732
7.044412278971048,2.3895570071241417,6.935588245578498,1.7929183242162752,-8.471608511391526,3.0920959136005
7.06830784904229,2.3048409220102264,6.9535174288206605,1.82383928335228,-8.678924379941455,3.1420550943687524
7.091356258262392,2.218051678210812,6.971755821654184,1.8552598342959676,-8.855935644917206,3.1524214814923894
7.1135367750445,2.12949232176164,6.9903084199971435,1.8867840491108916,-9.0045183276144,3.127068340389752
7.134831698262117,2.039447138485496,7.009176260488252,1.9180547325147892,-9.126552742089759,3.0698735172720437
7.155226169646972,1.9481816110645984,7.028356807813401,1.9487534676875096,-9.223872774341153,2.9846109497043094
7.1747079857576175,1.8559428833211868,7.047844342490276,1.9785995771845526,-9.298228847754975,2.874866428464877
7.19326741459083,1.762960594843637,7.067630338262121,2.0073482414692014,-9.351262813009416,2.7439754246710515
7.210897020539266,1.669447966713543,7.087703820676813,2.034787995715912,-9.384492794415655,2.5949802405121116
7.227591500206402,1.5756030387693865,7.108051700633972,2.0607377981210333,-9.399306065150007,2.430603595141109
7.243347530594096,1.4816099781178864,7.128659078615182,2.085043834072444,-9.396958223198576,2.2532358906359318
7.258163630375274,1.3876403958859007,7.149509516955907,2.1075761929788035,-9.378577223905268,2.0649337047758816
7.272040034334133,1.293854623646848,7.170585278885695,2.1282255300265622,-9.34517113619149,1.867427438721257
7.284978580570602,1.2004029122849331,7.191867534185961,2.1468998044137746,-9.297638786127829,1.6621364421635203
7.296982609693451,1.1074265244236547,7.213336532230098,2.16352116883541,-9.236782705288352,1.4501902992210327
7.308056874937687,1.0150586973707711,7.234971743918452,2.1780230718276203,-9.163323994265152,1.2324552537195448
7.318207461911395,0.9234254574281197,7.256751974636728,2.190347624364816,-9.077918833641775,1.0095649625317458
7.3274417164856755,0.8326462690917019,7.278655450880376,2.200443273990133,-8.981176421326499,0.7819548793141438
7.3357681791765925,0.7428345048784369,7.300659883620278,2.208262822783275,-8.873678087280155,0.5498995849232683
7.343196524225377,0.6540977240056354,7.32274251184811,2.2137618186325074,-8.755997240462023,0.31355229944108726
7.349737501465433,0.5665377516010152,7.3448801300344355,2.216897341626918,-8.628719650424717,0.07298564732286153
7.355402878981443,0.480250555096768,7.367049103450705,2.2176271981001467,-8.492463376554587,-0.17176747488862704
7.360205384532411,0.39532592133122213,7.389225375431706,2.2159095233512605,-8.347897458097844,-0.42067432512235015
7.364158643745723,0.3118469467502437,7.411384470665219,2.211702780100037,-8.195758301308858,-0.6736656591204585
7.367277113213226,0.22988936373715513,7.433501498466219,2.2049661235088323,-8.036862584273312,-0.9306037659424846
7.369576006850598,0.149520737894422,7.455551159701307,2.1956600858494073,-7.87211548319211,-1.1912569975243514
7.371071214229542,0.07079958306250089,7.477507760559801,2.1837475158741637,-7.702513137805951,-1.4552824481444555
7.371779210060168,-0.006225548315558618,7.499345235718542,2.169194691392719,-7.529138536014089,-1.7222180926741595
7.371716954577012,-0.08151693367569951,7.52103718263247,2.1519725104659777,-7.353150405630602,-1.991485143963003
7.370901785240255,-0.15504843773200555,7.542556907737129,2.132057659026348,-7.1757652264453355,-2.2624006734735618
7.3693513008629346,-0.2268060899964589,7.563877484327393,2.1094336522916124,-6.998233064996749,-2.5341997242660566
7.3670832399629695,-0.2967884206464264,7.584971820850309,2.084091655048952,-6.8218085150537,-2.8060653284386574
7.364115355756505,-0.3650065057969634,7.605812737400798,2.0560310017645653,-6.647718517977371,-3.0771641319680776
7.360465290698535,-0.4314836909767371,7.626373047418444,2.0252593604448847,-6.477129164799916,-3.3466848314001205
7.356150453788768,-0.4962549826247363,7.646625641022893,1.9917925121308835,-6.31111369351304,-3.613876414304585
7.35118790396252,-0.5593661195598667,7.666543566144202,1.9556537479878375,-6.150623771038397,-3.8780833006961557
7.345594242766921,-0.6208723572702507,7.68610010362408,1.916872914980876,-5.996465807245493,-4.13877488733983
7.339385519194219,-0.6808370153427057,7.705268832773888,1.8754851661074778,-5.8492835393982565,-4.3955676364840786
7.332577149040792,-0.7393298507366882,7.724023684434963,1.831529489742637,-5.70954752363744,-4.648238628341393
7.325183850533425,-0.7964253259730626,7.74233897933239,1.7850471034592232,-5.577551557650773,-4.8967303033496625
7.317219597273694,-0.8522008415495703,7.7601894503669815,1.7360798004257265,-5.45341551055178,-5.141146854646476
7.308697588858198,-0.9067349966550882,7.777550248371239,1.6846683318792617,-5.337093608245171,-5.3817433162363075
7.299630238891647,-0.9601059327375399,7.794396931690032,1.6308508987168986,-5.2283869459558785,-5.61890878421338
7.290029179564272,-1.0123898021970987,7.810705440677201,1.5746618108747648,-5.126958879147672,-5.853145397588752
7.279905281542302,-1.0636593909885754,7.826452058785948,1.5161303568988773,-5.032351963394688,-6.085044711021915
7.269268687632416,-1.1139829106225223,7.841613362354937,1.4552799097886582,-4.9440052423732945,-6.315262952735401
7.258128858526191,-1.1634229630462554,7.8561661614528235,1.3921272802613043,-4.861270884210552,-6.54449642473239
7.246494628895729,-1.212035671888361,7.870087434255437,1.3266823160139805,-4.783429403722166,-6.77345801661466
7.234374272176845,-1.2598699659255825,7.883354257415577,1.2589477358478338,-4.709702950747651,-7.002855509619926
7.22177557251759,-1.3069669954330592,7.895943734774055,1.1889191807516346,-4.639266369930934,-7.2333720746050645
7.208705902563259,-1.3533596591323684,7.907832926581571,1.116585460005584,-4.571255930482901,-7.465649136217443
7.195172305971935,-1.3990722184371975,7.918998781181627,1.0419289686434097,-4.5047757789208305,-7.700271595056491
7.181181583787564,-1.4441199762264059,7.929418070868061,0.9649262526928447,-4.438902282730066,-7.937755271977202
7.1667403840252994,-1.4885089990537066,7.9390673333949895,0.8855486999730727,-4.3726865116689515,-8.178536360113917
7.151855294034762,-1.5322358641703961,7.94792282039472,0.8037633363719335,-4.305155151724361,-8.422962633814366
7.136532935393058,-1.5752874156876397,7.95596045375844,0.7195337100337899,-4.235310171129598,-8.67128616124096
7.120780061236181,-1.6176405173989357,7.963155790858778,0.6328208484213802,-4.162127564885087,-8.92365729066253
7.104603656062192,-1.6592617930477864,7.969483999342992,0.5435842755147549,-4.084555499630926,-9.180119721955418
7.0880110381317145,-1.7001073480440956,7.9749198420981395,0.4517830782952007,-4.001512169184335,-9.440606528264567
7.071009964651274,-1.740122469735939,7.979437672881091,0.35737701301255503,-3.9118836560584307,-9.704937053124926
7.053608739953914,-1.7792413062965233,7.9830114430112165,0.2603276424813058,-3.81452207815542,-9.972814671765443
7.035816326890949,-1.8173865270780776,7.98561471943603,0.16059949576365137,-3.7082442838800973,-10.243825468932506
7.017642461620168,-1.8544689699168786,7.987220714393667,0.05816124107432631,-3.591831343576548,-10.517437947215083
6.999097771920999,-1.890387283352644,7.98780232680441,-0.04701313839782452,-3.4640290701666205,-10.793003937836698
6.980193899087473,-1.9250275740543104,7.987332195420431,-0.1549431777761915,-3.3235497863147927,-11.069760938757197
6.96094362334693,-1.9582630719174583,7.9857827636426695,-0.2656407871637635,-3.1690755380868665,-11.346836151328867
6.9413609926277555,-1.989953827298327,7.983126355771032,-0.37910914867705214,-2.9992629343321435,-11.62325252525041
6.921461454354772,-2.0199464566416485,7.979335264284261,-0.49534167392955625,-2.812749765132848,-11.897937150599544
6.901261989788356,-2.048073954292977,7.974381847544965,-0.6143210454355517,-2.6081635197866184,-12.16973235358226
6.880781250245426,-2.0741555894908434,7.968238637090609,-0.7360183689713743,-2.384131883114412,-12.437409857463122
6.860039694350518,-2.0979969083219876,7.960878453400896,-0.8603924675460055,-2.139295236785294,-12.69968836002241
6.839059725267298,-2.1193898606898407,7.952274528725436,-0.9873893511462296,-1.872321128509439,-12.95525485196478
6.8178658266604,-2.138113071974935,7.942400635213974,-1.1169418996658773,-1.5819205955471471,-13.202789955333003
6.79648469594065,-2.1539322779304064,7.9312312162173155,-1.2489697992192073,-1.2668661398667758,-13.44099749591139
6.774945373161346,-2.1666009393290744,7.918741518225123,-1.3833797741783211,-0.9260110511945119,-13.668638438191287
6.753279363768056,-2.1758610498410196,7.90490772048334,-1.520066158560234,-0.5583096629733149,-13.884569205878346
6.7315207532696455,-2.181444146470753,7.889707058897738,-1.6589118506190175,-0.16283800805889642,-14.087784286294626
6.709706311804938,-2.1830725265513418,7.873117940391547,-1.7997896934819637,0.26118577944072247,-14.277462875609979
6.687875586539425,-2.1804606687569343,7.855120043456727,-1.9425643222380635,0.7143820859121974,-14.453019166962687
6.666070979851856,-2.173316847897812,7.835694400234347,-2.08709451390769,1.1971923366263366,-14.614155719446286
6.6443378113728775,-2.161344924531549,7.81482345509527,-2.2332360711021533,1.709864363570089,-14.760919177361222
6.622724362127562,-2.144246280895848,7.792491094384249,-2.3808452628757655,2.252441618375901,-14.893757440404105
6.601281899318604,-2.1217218647120886,7.7686826417554915,-2.5297828372798064,2.824757215707381,-15.013577219209353
6.580064680671483,-2.093474292555015,7.7433848133826935,-2.6799186094719,3.4264337091105994,-15.121800745622371
6.559129937745933,-2.059209955463909,7.716585627287975,-2.8311366169281236,4.05688932021135,-15.220420234962113
6.538537838191294,-2.0186410622617954,7.688274261118694,-2.983340819277745,4.71535103162686,-15.312048498214043
6.518351427568676,-1.9714875519455268,7.658440852925916,-3.1364613042598855,5.400874472082729,-15.399963836689494
6.49863655204922,-1.9174788072246995,7.627076239883317,-3.2904609426267806,6.112369810774914,-15.488146952230608
6.479461763976973,-1.8563551091169503,7.5941716304570495,-3.4453424121490865,6.848631853032666,-15.58130696023267
6.4608982128858035,-1.7878687905866237,7.559718206335559,-3.6011554817514133,7.6083710659101875,-15.684892521187964
6.443019524979937,-1.7117850799275218,7.523706651518045,-3.758004406963293,8.390240170830761,-15.805082328427323
6.425901674180662,-1.6278826782192142,7.486126607448412,-3.916055230247566,9.19284793004176,-15.948746271957425
6.40962284739847,-1.5359541989187966,7.4469660551459365,-4.07554269296714,10.014747377884728,-16.123363878387774
6.394263305409282,-1.4358067251399493,7.406210628216265,-4.236776331751018,10.854379325124315,-16.336879101442317
6.379905238157883,-1.3272629318887061,7.363842864898755,-4.400145122765441,11.709942468113166,-16.597458703813327
6.366632608838995,-1.2101635072075745,7.319841413671101,-4.566119709803574,12.579147352784739,-16.913103119866935
6.354530973766919,-1.0843720336797271,7.274180216573066,-4.735250741002243,13.458790633949391,-17.291030672486972
6.343687253430121,-0.9497841273402332,7.226827709163043,-4.908161047727113,14.3440556951214,-17.736714102862656
6.334189412156719,-0.8063435703890192,7.1777460986857715,-5.085528188755739,15.227402480377807,-18.252387495343672
6.326125976452829,-0.6540695455852411,7.126890816798214,-5.268052063709176,16.09685082414513,-18.834757417350904
6.319585280996977,-0.49310103734378985,7.074210296161122,-5.456399637882685,16.933389408677396,-19.471545241760026
6.314654270623539,-0.3237671432570159,7.019646299782296,-5.651115090300285,17.70717152081077,-20.136375896867303
6.311416599190968,-0.14669542804890817,6.963135148879293,-5.852478849268959,18.372136279371258,-20.78147280898502
6.309949644910479,0.03702593474480442,6.904610360386604,-6.060293577358809,18.858838015360202,-21.327776967223254
6.310319904257927,0.22561431489840644,6.844007424613016,-6.273571347031042,19.065828655056656,-21.65282161049633
6.312576047406911,0.41627260144897305,6.781271711142706,-6.490099563136005,18.85136890318241,-21.57858423791983
6.316738773421401,0.6047862904807971,6.716370715511346,-6.705885405515204,18.030138290530726,-20.86544063980599
6.322786636326208,0.7850876733861044,6.6493118614561935,-6.914539811913264,16.384172147461822,-19.2245896647092
6.330637513060069,0.9489293948607227,6.5801664633370605,-7.1067857085603565,13.701632249105648,-16.367466647258357
6.3401268070086765,1.0859457173517792,6.509098606251457,-7.27046037503294,9.854589500604925,-12.107726445197871
6.350986264182194,1.1844916123578284,6.436394002501127,-7.391537639484919,4.90635674894944,-6.5037343523308655
6.362831180305772,1.2335551798473228,6.362478626106278,-7.4565749830082275,-0.8032873433574769,0.027563279376707075
6.375166732104245,1.225522306413748,6.287912876276196,-7.4562993502144606,-6.678654004732953,6.737797820008773
6.387421955168382,1.1587357663664184,6.213349882774051,-7.388921372014373,-12.036557794910486,12.77103097613834
6.399009312832047,1.0383701884173135,6.139460669053907,-7.26121106225299,-16.344254707131906,17.4771932946514
