th1 (rad),w1 (rad/s),th2 (rad),w2 (rad/s)
3.353844650727837,-0.7557466577822906,0.36566823454081954,-1.2134420469321996
3.346287184150014,-0.7505953963546225,0.35353381407149753,-1.2425206759097283
3.338781230186468,-0.7458757762866516,0.3411086073124002,-1.2709468708227534
3.3313224724236017,-0.7415382863962241,0.3283991386041727,-1.2986404536263363
3.3239070895596394,-0.7375331661447284,0.3154127340679093,-1.3255214640436512
3.316531757898192,-0.733810488312496,0.3021575194274728,-1.3515103214663344
3.309193653015067,-0.7303202682472133,0.28864241621280945,-1.376528016576426
3.301890450332595,-0.7270125995966595,0.27487713604704517,-1.4004963326294149
3.2946203243366283,-0.7238378159282391,0.260872172720751,-1.4233380957173245
3.287381946177346,-0.7207466770929687,0.24663879176357778,-1.4449774526696069
3.2801744794064165,-0.7176905786192973,0.2321890172368817,-1.4653401745577073
3.2729975736202235,-0.7146217818338588,0.21753561549130462,-1.48435398305985
3.265851355801885,-0.711493661816236,0.20269207566070613,-1.5019488962325815
3.2587364191837227,-0.708260969719897,0.1876725866983803,-1.5180575895445823
3.2516538094865237,-0.7048801054505147,0.17249201080293447,-1.5326157673783387
3.2446050084320186,-0.701309396206172,0.15716585312915107,-1.5455625396202388
3.2375919144699568,-0.6975093759723348,0.1417102277329487,-1.5568407974639358
3.2306168207102335,-0.6934430607483066,0.12614181975830935,-1.566397582169372
3.2236823901027503,-0.6890762140800512,0.11047784393661562,-1.5741844402728122
3.2167916279619497,-0.6843775974029406,0.0947359995338875,-1.5801577586506643
3.2099478519879203,-0.6793191997695764,0.07893442194738086,-1.58427907291641
3.2031546599902248,-0.6738764417599202,0.06309163121821676,-1.5865153428846714
3.1964158955726254,-0.6680283487455503,0.047226477789370044,-1.5868391892718179
3.18973561208517,-0.661757689202737,0.031358085896651865,-1.5852290864138732
3.1831180351931425,-0.6550510744295959,0.015505795032513134,-1.5816695065576312
3.1765675244488465,-0.6478990168039773,-0.00031090003306317657,-1.5761510122003317
3.1700885342808065,-0.640295944598372,-0.016072410155066493,-1.5686702939907418
3.163685574834823,-0.6322401723184887,-0.03175911309497391,-1.5592301528280799
3.157363173111638,-0.6237338265222295,-0.047351414623254706,-1.547839425968679
3.151125834846416,-0.6147827280722932,-0.0628298088829415,-1.5345128581347456
3.144978007565693,-0.605396232744841,-0.07817493746428895,-1.5192709197754999
3.1389240452382445,-0.5955870330259737,-0.09336764666204395,-1.502139575720062
3.132968174907985,-0.5853709247473741,-0.10838904241924456,-1.4831500084484852
3.127114465660511,-0.574766542916782,-0.12322054250372941,-1.4623383010619362
3.1213668002313435,-0.5637950716677567,-0.13784392551434876,-1.439745085730933
3.115728849514666,-0.5524799336724132,-0.1522413763716581,-1.4154151639246695
3.1102040501779418,-0.5408464646230968,-0.1663955280109048,-1.3893971050652973
3.104795585531711,-0.5289215784935081,-0.18028949906155778,-1.3617428304068955
3.0995063697467757,-0.5167334292421848,-0.19390692736562673,-1.3325071889153157
3.094339035454354,-0.5043110744326533,-0.2072319992547799,-1.3017475317344016
3.089295924710027,-0.4916841459308684,-0.2202494745721239,-1.2695232914840018
3.0843790832507185,-0.47888253242122153,-0.23294470748696391,-1.2358955721677958
3.0795902579265064,-0.46593607797923753,-0.2453036632086419,-1.2009267548991795
3.074930897146714,-0.4528743003750644,-0.2573129307576337,-1.16468012400778
3.0704021541429634,-0.4397261321799695,-0.26895973199771145,-1.1272195173942159
3.0660048928211636,-0.4265196871302395,-0.2802319271716536,-1.0886090042821204
3.061739695949861,-0.4132820535892307,-0.29111801721447483,-1.048912592797811
3.0576068754139687,-0.40003911635642075,-0.30160714314245296,-1.0081939691101915
3.0536064842504045,-0.3868154075168271,-0.3116890828335549,-0.966516269204073
3.049738330175236,-0.373633986516562,-0.3213542455255956,-0.9239418837530694
3.0460019903100704,-0.3605163491988849,-0.3305936643631263,-0.880532296013917
3.0423968268180817,-0.3474823651450699,-0.3393989873232655,-0.8363479521891917
3.038922003166631,-0.3345502423380878,-0.34776246684515744,-0.791448163303453
3.03557650074325,-0.3217365179043247,-0.355676948478192,-0.7458910373092804
3.0323591355642066,-0.30905607348702385,-0.3631358588512848,-0.6997334398824563
3.029268574829336,-0.29652217366081807,-0.37013319325010935,-0.6530309821755854
3.026303353092728,-0.2841465257042938,-0.3766635030718652,-0.6058380336709818
3.023461887835685,-0.2719393590007387,-0.382721883408575,-0.5582077581998293
3.020742494245678,-0.25990952232928194,-0.3883039609905733,-0.5101921711677844
3.018143399022385,-0.24806459733246486,-0.39340588270225113,-0.46184221603929376
3.0156627530490603,-0.23641102649483328,-0.39802430486264406,-0.4132078581758093
3.013298642784112,-0.2249542540335614,-0.40215638344440213,-0.364338194188805
3.0110491002437763,-0.21369887817991118,-0.4057997653862902,-0.31528157504937304
3.008912111461977,-0.20264881341347082,-0.40895258113678395,-0.26608574128501444
3.0068856233278423,-0.1918074612941098,-0.4116134385496341,-0.21679796868441994
3.0049675487149012,-0.1811778886145182,-0.4137814182364783,-0.16746522301656158
3.003155769828756,-0.1707630116647295,-0.4154560704666439,-0.11813432234592885
3.0014481397121084,-0.16056578545540814,-0.4166374136901032,-0.06885210558655935
2.9998424818575544,-0.15058939678573477,-0.4173259347459688,-0.019665605979592916
2.998336587889697,-0.1408374600618208,-0.4175225908057647,0.02937777180096117
2.996928213289079,-0.13131421477064256,-0.4172288130877551,0.07823007221445663
2.9956150711413723,-0.12202472349097122,-0.41644651236561053,0.12684260842390654
2.9943948239064624,-0.11297506927569559,-0.4151780862813715,0.17516578226263257
2.9932650732137054,-0.10417255116888119,-0.41342642845874517,0.22314890607887408
2.9922233477020166,-0.095625876526093,-0.4111949393979564,0.270740028058336
2.991267088936756,-0.087345348688821,-0.40848753911737307,0.3178857627712139
2.9903936354498675,-0.07934304842494867,-0.4053086814896609,0.36453112886317973
2.989600204965618,-0.0716330073896103,-0.40166337020102916,0.41061939600630576
2.988883874891722,-0.06423137168798176,-0.3975571762409661,0.4560919434419292
2.9882415611748425,-0.05715655343811587,-0.3929962568065468,0.5008881326776974
2.9876699956404615,-0.05042936804363732,-0.38798737547976986,0.5449451971387095
2.9871657019600253,-0.04407315470003034,-0.3825379235083828,0.5881981518094485
2.986724970413025,-0.038113877482835075,-0.3766559419902883,0.6305797261290632
2.9863438316381967,-0.0325802042111821,-0.37035014472899763,0.672020323605795
2.9860180295960848,-0.027503560156993474,-0.3636299414929397,0.7124480117835156
2.985742993994515,-0.022918153591399974,-0.3565054613751045,0.7517885463094388
2.985513812458601,-0.018860970139090626,-0.34898757591201013,0.7899654329006961
2.98532520275721,-0.01537173296278826,-0.34108792158300316,0.8269000309712496
2.9851714854275824,-0.01249282593849666,-0.33281892127329066,0.8625117025416842
2.9850465571681974,-0.01026917722191258,-0.3241938042478738,0.896718009795165
2.9849438653959783,-0.008748100960656794,-0.31522662414992214,0.9294349642467823
2.984856384386372,-0.007979095386926887,-0.3059322745074543,0.9605773299463743
2.9847765934325023,-0.008013596138885859,-0.29632650120799053,0.9900589824259429
2.9846964574711135,-0.008904684410397335,-0.2864259113837311,1.0177933242260053
2.9846074106270093,-0.010706750415979144,-0.276247978141471,1.0436937567909967
2.9845003431228494,-0.01347511367287412,-0.26581104057356103,1.0676742073201224
2.9843655919861205,-0.01726560272914875,-0.2551342985003598,1.089649707813753
2.984192935958829,-0.02213409818164285,-0.24423780142222226,1.1095370220932896
2.9839715949770125,-0.02813604409765873,-0.23314243120128936,1.1272553150315074
2.983690234536036,-0.03532593423825922,-0.22186987805097427,1.1427268566581477
2.9833369751936534,-0.043756780729984554,-0.2104426094843928,1.1558777522589119
2.9828994073863537,-0.053479573990502544,-0.19888383196180368,1.1666386881299482
2.9823646116464486,-0.06454274372293203,-0.1872174450805042,1.1749456813547874
2.9817191842092194,-0.07699163159292842,-0.1754679882669563,1.1807408209091197
2.98094926789329,-0.09086798673399674,-0.1636605800578651,1.1839729866416222
2.98004058802595,-0.10620949543799639,-0.1518208501914489,1.1845985322907397
2.97897849307157,-0.12304935623768257,-0.1399748648685415,1.1825819187313307
2.977747999509193,-0.14141591104866866,-0.12814904568122817,1.1778962841391354
2.9763338403987065,-0.16133234209894506,-0.11637008283983682,1.1705239387331112
2.974720516977717,-0.18281644304429662,-0.10466484345250571,1.1604567732009663
2.9728923525472744,-0.20588047097774484,-0.09306027572049605,1.1476965718023158
2.970833547837497,-0.2305310840412655,-0.08158331000247289,1.1322552234227439
2.9685282369970842,-0.2567693671081244,-0.07026075776824545,1.1141548264436965
2.965960543326003,-0.28459094560943,-0.05911920950380848,1.0934276861011454
2.9631146338699086,-0.3139861851250755,-0.048184932642797024,1.070116205919621
2.9599747720186578,-0.3449404719486318,-0.03748377058360081,1.044272677708784
2.9565253672991716,-0.37743456756863225,-0.02704104380651297,1.0159589773776352
2.9527510216234854,-0.41144502797872584,-0.01688145403273662,0.9852461763435463
2.948636571343698,-0.44694467701731694,-0.007028992269301157,0.9522140804895585
2.944167124573525,-0.4839031216070445,0.002493148535594427,0.9169507103728313
2.9393280933574544,-0.5222872958584723,0.01166265563932274,0.879551737652025
2.9341052203988696,-0.5620620205407574,0.02045817301584299,0.8401198934497776
2.928484600193462,-0.603190564402278,0.028859371950340766,0.7987643645926449
2.9224526945494396,-0.6456351942225499,0.03684701559626721,0.755600193394212
2.915996342607214,-0.6893577012513155,0.04440301753020933,0.7107476959088674
2.909102765594701,-0.7343198927852893,0.05151049448929801,0.6643319124430065
2.901759566666848,-0.7804840389818065,0.058153813613728074,0.6164821026389021
2.89395472627703,-0.82781326654084,0.0643186346401171,0.5673312957230411
2.8856765936116218,-0.8762718925315832,0.0699919475973475,0.5170159046161437
2.876913874686306,-0.9258256933300304,0.07516210664350895,0.4656754106141054
2.8676556177530057,-0.9764421053100408,0.07981886074965,0.4134521233384163
2.857891196699905,-1.0280903555424208,0.08395338198303416,0.36049101868174604
2.847610293144481,-1.0807415222661618,0.08755829216985163,0.30693965558767256
2.8368028779218193,-1.1343685262768222,0.09062768872572835,0.25294817073814374
2.825459192659051,-1.1889460556147322,0.09315717043310978,0.1986693486001591
2.8135697321029034,-1.244450427027036,0.09514386391911138,0.1442587628138901
2.801125227832633,-1.3008593886291666,0.09658645154725028,0.08987498358656754
2.7881166339463412,-1.3581518690180423,0.09748520138311595,0.035679844579385965
2.774535115256161,-1.4163076788123081,0.09784199982890981,-0.01816123827909795
2.760372038468038,-1.4753071712400723,0.09766038744611884,-0.07147890457215922
2.745618966755637,-1.5351308689901897,0.09694559840039725,-0.12409945316141424
2.7302676580657352,-1.595759065118498,0.09570460386878311,-0.17584442215817941
2.71431006741455,-1.6571714063839724,0.09394615964720132,-0.22653015610874
2.6977383533507107,-1.7193464680076966,0.09168085808611393,-0.275967372179576
2.680544888670634,-1.782261329522202,0.08892118436431816,-0.32396073790069396
2.662722275375412,-1.8458911621273226,0.08568157698531122,-0.3703084737928185
2.6442633637541384,-1.9102088388019673,0.08197849224738303,-0.4148019949561982
2.6251612753661187,-1.9751845793420169,0.07783047229782104,-0.45722560641037474
2.6054094295726986,-2.0407856434966454,0.0732582162337173,-0.4973562676048161
2.585001573137732,-2.1069760864420903,0.06828465355766913,-0.534963442011286
2.563931812273311,-2.1737165919349093,0.06293501913755628,-0.5698090479820239
2.5421946463539618,-2.2409643995851822,0.05723692865773604,-0.6016475270140331
2.51978500235811,-2.308673343729804,0.051220453387595705,-0.6302260450782315
2.4966982689208117,-2.3767940222996824,0.044918192936813386,-0.6552848416110448
2.472930328697815,-2.445274114782801,0.038365344520702935,-0.6765577389643033
2.448477587549987,-2.5140588687982772,0.0315997671310599,-0.6937728223911643
2.423336998862004,-2.583091774819397,0.024662038907148257,-0.7066532968268968
2.3975060811138103,-2.652315448120972,0.017595505938879288,-0.7149185216203694
2.3709829266326006,-2.7216727359920476,0.010446320722675593,-0.718285217815147
2.34376619927268,-2.7911080665832233,0.003263468544524123,-0.7164688344273809
2.315855118606848,-2.8605690534176937,-0.003901219799749686,-0.7091850503274071
2.287249428072671,-2.9300083666075585,-0.010993070303023756,-0.6961513767756609
2.2579493444065957,-2.999385878273867,-0.017954584070780363,-0.6770888124486205
2.227955485623857,-3.0686710857530684,-0.02472547219526657,-0.6517234880744716
2.197268774766326,-3.137845812176962,-0.031242707076011286,-0.6197882218464782
2.1658903166445564,-3.2069071803575704,-0.037440589294476065,-0.5810238899645233
2.1338212448409806,-3.2758708531505785,-0.0432508281941213,-0.5351804994264872
2.101062536309475,-3.3447745323122757,-0.048602633188386174,-0.48201783304998647
2.0676147909863523,-3.4136817091457488,-0.05342281151888604,-0.4213055201304454
2.033477973894895,-3.482685664920145,-0.05763586672019049,-0.3528223705026947
1.9986511172456936,-3.5519137282177864,-0.061164090425217435,-0.2763547952155955
1.9631319799635156,-3.6215318111789747,-0.06392763837737339,-0.19169412334036484
1.926916661851726,-3.6917492683010544,-0.06584457961077704,-0.09863261089884826
1.8899991691687155,-3.7628241512915626,-0.06683090571976552,0.0030420768422754624
1.8523709276557998,-3.8350689728271448,-0.06680048495134276,0.11355414654324203
1.8140202379275283,-3.9088571423809952,-0.06566494348591034,0.23314898266625678
1.7749316665037183,-3.9846303001499934,-0.06333345365924778,0.362104773889269
1.7350853635022183,-4.062906852323047,-0.05971240592035509,0.5007468053206683
1.6944562949789879,-4.144292104419018,-0.054704937867148404,0.6494648311192736
1.6530133739347976,-4.229490501012007,-0.04821028955595567,0.8087340361862858
1.6107184689246776,-4.319320610788969,-0.04012294919409281,0.9791402173526746
1.567525262816788,-4.4147336436761435,-0.030331547020566063,1.1614099618782987
1.5233779263800264,-4.516836442746615,-0.018717447401783077,1.3564467604314643
1.4782095619525604,-4.626920032486829,-0.0051529797974684335,1.5653741242088903
1.431940361627692,-4.746494865823144,0.01050076144462047,1.7895867897211473
1.3844754129694605,-4.877333758332813,0.028396629341831944,2.030810788061791
1.3357020753861324,-5.021522833301006,0.048704737222449855,2.291172097939412
1.2854868470531224,-5.181518997441891,0.07161645820184398,2.5732708904781108
1.2336716570787036,-5.360208204953167,0.09734916710662508,2.8802521282459477
1.1800695750291719,-5.560949299916687,0.12615168838908455,3.215849607249968
1.124460082030005,-5.787567898948774,0.15831018446158424,3.584351446149411
1.0665844030405174,-6.044222221694686,0.19415369892307835,3.990374538299356
1.0061421808235704,-6.334976355795896,0.2340574443060719,4.438213225538925
0.9427924172656115,-6.6627500980554135,0.2784395765614611,4.930293029634678
0.8761649162850573,-7.027029846835409,0.3277425068578079,5.463860668313263
0.8058946178167032,-7.4193765121183395,0.38238111354094056,6.024556154612027
0.7317008526955199,-7.815877832728954,0.44262667508706083,6.575685132093927
0.6535420743682303,-8.16814899563176,0.5083835264080001,7.0455054300656474
0.5718605844119127,-8.402508293951747,0.5788385807086566,7.326204995378597
0.4878355014723952,-8.446299336633095,0.6521006306624425,7.31145729260517
0.40337250810606423,-8.281398157414069,0.7252152035884942,6.972643462447247
0.3205585265319235,-7.9684033545470605,0.7949416382129667,6.393782715318885
0.24087449298645291,-7.600042779159523,0.8588794653661556,5.70610312009974
0.1648740651948577,-7.24432372369788,0.9159404965671529,5.007311244824485
0.0924308279578789,-6.932162423785713,0.9660136090153978,4.343271179262929
0.02310920372002176,-6.670885066305283,1.009446320808027,3.7264866953712765
-0.043599646943031076,-6.457483995235218,1.0467111877617399,3.1546417258424255
-0.10817448689538325,-6.2856695197400825,1.0782576050201642,2.6206053853434383
-0.17103118209278406,-6.148773166556831,1.1044636588735985,2.1166531314701893
-0.23251891375835237,-6.040714624728592,1.1256301901883004,1.63596020021811
-0.2929260600056383,-5.9561977264152235,1.1419897921904814,1.1729910792602252
-0.35248803726979056,-5.890638302038655,1.1537197029830837,0.723490017646692
-0.4113944202901771,-5.840021825373967,1.1609546031595506,0.284351222136661
-0.46979463854391673,-5.8007630579323175,1.1637981153809172,-0.14652998138897688
-0.5278022691232399,-5.769590822391293,1.1623328155670274,-0.5703937447809155
-0.5854981773471528,-5.7434627547221035,1.1566288781192182,-0.9877349917380776
-0.6429328048943739,-5.719508521173485,1.1467515282018375,-1.398409093825098
-0.7001278901061088,-5.694998007899954,1.1327674372635865,-1.8017294780997744
-0.7570778701851083,-5.667330476530083,1.1147501424825887,-2.196561937369676
-0.8137511749504092,-5.634040566230153,1.092784523108892,-2.58141871644179
-0.8700915806127107,-5.592816996740957,1.066970335944474,-2.954553581055466
-0.9260197505801203,-5.541529859723622,1.0374248001339192,-3.3140574129321636
-0.9814350491773566,-5.4782625364365884,1.0042842260045977,-3.657952622695319
-1.0362176745417224,-5.401344600776037,0.9677046997776445,-3.984283936256048
-1.0902311205494828,-5.309382563851151,0.927861860415084,-4.291202898401949
-1.1433249461879944,-5.2012859415856685,0.8849498314310645,-4.577043669066098
-1.195337805603851,-5.07628679506751,0.8391793947404036,-4.840388214770185
-1.2461006735545261,-4.933951511866995,0.7907755125927017,-5.080119643445274
-1.295440188673196,-4.774184096833791,0.739974316158249,-5.295463036948294
-1.343182029641534,-4.597220600369398,0.6870196857887662,-5.486013601040755
-1.389154235645228,-4.403614558739517,0.6321595497783586,-5.651752252433651
-1.4331903812326232,-4.194213519531728,0.5756420272540221,-5.793048941797824
-1.4751325164279405,-3.9701269515762903,0.5177115378360438,-5.910654158048601
-1.5148337859437033,-3.732686149463047,0.45860499625555784,-6.005679264655564
-1.5521606474383338,-3.483397153497775,0.3985482036090022,-6.079566643237575
-1.5869946189733115,-3.2238881815171903,0.33775253717662646,-6.1340510688019965
-1.6192335007884835,-2.9558535322083634,0.27641202648860647,-6.171114262767622
-1.6487920361105672,-2.6809962730843284,0.21470088386093025,-6.19293507132287
-1.6756019988414106,-2.4009721810554248,0.15277153314770156,-6.201838092426087
-1.6996117206519648,-2.1173373047641633,0.09075315222344069,-6.200243738719167
-1.7207850936996063,-1.8315011600125473,0.02875071483624901,-6.190622632638596
-1.7391001052997317,-1.5446869972944341,-0.03315551149013695,-6.175456893497435
-1.7545469752726761,-1.2578998759621636,-0.0949100804251113,-6.157210350317054
-1.7671259740322978,-0.971902542843287,-0.15648218392828184,-6.138309083322131
-1.7768449994607307,-0.6871984411909849,-0.21786527476150314,-6.121133050649898
-1.7837169838726405,-0.40402064836272905,-0.2790766052680021,-6.108018965615343
-1.787757190356268,-0.12232521593510548,-0.3401567949241555,-6.101274085976394
-1.788980442515619,0.15821269028272128,-0.40116953578391945,-6.103200136786905
-1.787398315612792,0.438201225354995,-0.4622015371517885,-6.116126113953345
-1.7830163033592419,0.7185336147686654,-0.5233627982913219,-6.142447997895758
-1.7758309672115553,1.0003886953358725,-0.5847872782702795,-6.184672058514521
-1.7658270802581966,1.2852273931839227,-0.6466339988554247,-6.245455753636509
-1.7529748063263573,1.5747780316913276,-0.7090885563917898,-6.3276349485521415
-1.737227026009444,1.8709956083643913,-0.7723649058773112,-6.434216044145803
