th1 (rad),w1 (rad/s),th2 (rad),w2 (rad/s),a1 (rad/s^2),a2 (rad/s^2)
2.3208606005363763,-0.3718191510069198,4.982981545007069,1.1941135009361112,-4.419900083829757,5.458121603764321
2.317142409026307,-0.4160181518452174,4.994922680016431,1.2486947169737546,-4.453145552332184,5.351339568513758
2.312982227507855,-0.4605496073685392,5.007409627186168,1.3022081126588922,-4.498677430115837,5.228533451371269
2.3083767314341697,-0.5055363816696976,5.020431708312757,1.354493447172605,-4.557813506524212,5.088497139789221
2.303321367617473,-0.5511145167349397,5.033976642784483,1.4053784185704972,-4.631923467263445,4.929970560480373
2.2978102224501233,-0.5974337514075742,5.048030426970189,1.4546781241753008,-4.722399628946017,4.751677942937327
2.2918358849360474,-0.6446577476970343,5.062577208211942,1.5021949036046742,-4.830617336456056,4.55238077183491
2.285389307459077,-0.6929639210615949,5.077599157247989,1.5477187113230233,-4.957883220486518,4.330948107452092
2.2784596682484612,-0.74254275326646,5.0930763443612195,1.5910281923975442,-5.105369736699256,4.08644669975219
2.271034240715797,-0.7935964506334525,5.108986626285195,1.6318926593950662,-5.274034935139534,3.818252656212267
2.2630982762094622,-0.8463367999848479,5.125305552879146,1.670075185957189,-5.464527342802449,3.526185195849476
2.254634908209614,-0.9009820734128724,5.142006304738718,1.7053370379156838,-5.677077281844447,3.2106610854927995
2.245625087475485,-0.9577528462313168,5.1590596751178746,1.7374436487706117,-5.911377957052158,2.872865601371558
2.236047559013172,-1.0168666258018384,5.17643411160558,1.7661723047843274,-6.16646222474433,2.5149322733276644
2.2258788927551536,-1.0785312480492817,5.194095834653424,1.791321627517604,-6.44058397915032,2.1401193933829608
2.2150935802746607,-1.142937087840785,5.212009050928599,1.8127228214514337,-6.73111627213858,1.7529666790390555
2.203664209396253,-1.2102482505621708,5.230136279143114,1.8302524882418243,-7.034481126930353,1.3594112343559064
2.1915617268906313,-1.2805930618314743,5.2484388040255325,1.8438466005853833,-7.346127827183182,0.9668389990181915
2.1787557962723167,-1.354054340103306,5.266877270031387,1.8535149905755652,-7.660576441545239,0.5840473751135165
2.165215252871284,-1.4306601045187584,5.285412419937142,1.8593554643267003,-7.971540686912811,0.22109783666104718
2.150908651826096,-1.5103755113878865,5.304005974580409,1.8615664426933107,-8.272138407361538,-0.11095509416644395
2.135804896712217,-1.593096895461502,5.322621639007343,1.8604568917516462,-8.555188951885127,-0.40045993527331075
2.119873927757602,-1.678648784980353,5.341226207924859,1.856452292398913,-8.813585341692132,-0.6356749457161474
2.1030874399077986,-1.7667846383972745,5.359790730848848,1.8500955429417516,-9.040716937396695,-0.8053535101800531
2.085419593523826,-1.8571918077712415,5.378291686278266,1.842042007839951,-9.230907617722595,-0.8993602994872929
2.0668476754461134,-1.9495008839484673,5.396712106356666,1.8330484048450781,-9.379827726797744,-0.9092593059912022
2.0473526666066286,-2.043299161216445,5.4150425904051165,1.8239558117851662,-9.484837230503823,-0.8288118166249248
2.0269196749944642,-2.138147533521483,5.433282148522968,1.815667693618917,-9.545223516109925,-0.6543288405802509
2.0055381996592496,-2.2335997686825824,5.4514388254591575,1.8091244052131144,-9.562309432041836,-0.3848379298345338
1.9832022019724238,-2.3292228630030007,5.469530069511289,1.805276025914769,-9.539423393782416,-0.02204611455505262
1.9599099733423937,-2.4246170969408247,5.487582829770437,1.8050555647692186,-9.481740634005412,0.42989523919457695
1.9356638023729855,-2.5194345032808787,5.505633385418129,1.8093545171611642,-9.3960197807929,0.964795899450081
1.9104694573401768,-2.613394701088808,5.52372693058974,1.8190024761556651,-9.29026943267647,1.5749587035578474
1.8843355103292887,-2.7062973954155725,5.541916955351297,1.8347520631912435,-9.173384030458006,2.2517859234594457
1.857272536375133,-2.7980312357201527,5.560264475983209,1.857269922425838,-9.054787237642325,2.986408053649368
1.8292922240179315,-2.8885791080965757,5.578837175207468,1.8871340029623316,-8.944115467610969,3.7702899269248293
1.8004064329369658,-2.9780202627726853,5.597708515237091,1.9248369022315799,-8.850965970259935,4.595780593530508
1.7706262303092388,-3.0665299224752847,5.616956884259407,1.970794708166885,-8.784724919796654,5.45658704156357
1.739960931084486,-3.1543771716732514,5.636664831341076,2.0253605785825206,-8.754482808476947,6.348165422982478
1.7084171593677533,-3.241921999758021,5.656918437126901,2.0888422328123455,-8.769038202338058,7.26803548402908
1.6759979393701732,-3.3296123817814016,5.677806859455025,2.1615225876526365,-8.836987069849002,8.216033642768696
1.6427018155523592,-3.4179822524798915,5.699422085331551,2.2436829240803235,-8.966893541171142,9.194527538027634
1.6085219930275603,-3.507651187891603,5.721858914572354,2.3356281994606,-9.16753891947445,10.208620310112268
1.5734454811486442,-3.599326577086347,5.74521519656696,2.4377144025617223,-9.448248766678663,11.266377078035234
1.5374522153777808,-3.693809064753134,5.7695923405925775,2.5503781733420747,-9.819302657121128,12.379109896333953
1.5005141247302494,-3.792002091324345,5.795096122325998,2.6741692723054142,-10.292437538431075,13.561761750724965
1.4625941038170058,-3.8949264667086556,5.821837815049053,2.809786889812664,-10.881463417075993,14.833435590230124
1.4236448391499192,-4.003741100879416,5.849935683947179,2.958121245714965,-11.603019072349053,16.218121334315697
1.383607428141125,-4.119771291602906,5.879516896404329,3.120302459058122,-12.477505031934705,17.745681723063736
1.342409715225096,-4.244546341922254,5.910719920994911,3.297759276288759,-13.530239169889489,19.4531642898277
1.2999642518058734,-4.379848733621149,5.943697513757798,3.492290919187036,-14.792881871644804,21.386504489483567
1.256165764469662,-4.5277775523375965,5.9786204229496684,3.7061559640818715,-16.30516003152341,23.60265625262726
1.210887988946286,-4.690829152652831,6.015681982590487,3.942182526608144,-18.116851869576436,26.17208836343449
1.1639796974197578,-4.871997671348595,6.055103807856568,4.203903410242489,-20.28980657622469,29.18131837533584
1.1152597207062718,-5.074895737110841,6.097142841958993,4.495716593995848,-22.899298722523866,32.734488523759744
1.0645107633351634,-5.30388872433608,6.142100007898952,4.823061479233445,-26.032874210874247,36.95138363337103
1.0114718760918027,-5.5642174664448225,6.190330622691286,5.192575315567155,-29.78215370564827,41.955517930513814
0.9558297014273545,-5.862039003501305,6.242256375846958,5.612130494872293,-34.216859957846175,47.83722569302102
0.8972093113923414,-6.204207603079767,6.2983776807956815,6.090502751802503,-39.316567523562796,54.557381271114316
0.8351672353615437,-6.597373278315395,6.359282708313707,6.636076564513646,-44.807637900523574,61.718031302572896
0.7691935025783897,-7.04544965732063,6.425643473958843,7.253256877539375,-49.80838772205214,68.06384107450162
0.6987390060051833,-7.543533534541152,6.4981760427342365,7.933895288284392,-52.176425621499305,70.56537631348439
0.6233036706597719,-8.065297790756144,6.57751499561708,8.639549051419236,-47.76786985707352,63.37885356252503
0.5426506927522105,-8.542976489326879,6.663910486131273,9.273337587044486,-31.19306146760406,38.90954049306819
0.45722092785894164,-8.854907104002919,6.7566438620017175,9.662432991975168,-1.3954059511302181,-4.346381976716448
0.36867185681891246,-8.868861163514222,6.853268191921469,9.618969172208002,30.812698105343106,-51.214338255794885
0.27998324518377027,-8.560734182460791,6.949457883643549,9.106825789650053,49.929365247555275,-79.91807169910926
0.19437590335916236,-8.061440529985239,7.04052614154005,8.30764507265896,52.98170076042673,-86.22109631832078
0.11376149805930996,-7.531623522380972,7.123602592266639,7.445434109475753,47.33454436405134,-80.364931439077
0.038445262835500246,-7.058278078740458,7.198056933361396,6.641784795084982,39.36653681172288,-71.2410310447895
-0.03213751795190434,-6.66461271062323,7.264474781312246,5.929374484637087,31.806488741141578,-62.66464440423405
-0.09878364505813664,-6.3465478232118135,7.3237685261586165,5.302728040594746,25.373869005621064,-55.65292802951946
-0.16224912329025476,-6.092809133155603,7.376795806564564,4.746198760299552,20.070066542177262,-50.218578811709115
-0.22317721462181078,-5.892108467733831,7.424257794167559,4.24401297218246,15.711593889648892,-46.110176656536126
-0.2820982992991491,-5.734992528837342,7.466697923889384,3.7829112056170993,12.103823796399208,-43.05335434842358
-0.3394482245875225,-5.61395429087335,7.5045270359455545,3.3523776621328634,9.086206023656706,-40.81350739768218
-0.395587767496256,-5.523092230636783,7.538050812566883,2.9442425881560417,6.537245337025425,-39.20260762065662
-0.45081868980262385,-5.4577197772665285,7.567493238448444,2.5522165119494753,4.368840032093501,-38.07128953344008
-0.5053958875752891,-5.414031376945593,7.5930154035679385,2.1715036166150745,2.519104203905056,-37.29901162338084
-0.559536201344745,-5.388840334906543,7.614730439734089,1.798513500381266,0.9460830015361759,-36.78580416797254
-0.6134246046938104,-5.3793795048911806,7.632715574737902,1.4306554587015405,-0.37730867102296767,-36.446233788265936
-0.6672183997427222,-5.3831525916014105,7.647022129324918,1.0661931208188813,-1.4673529064645967,-36.205414107769656
-0.7210499256587364,-5.397826120666056,7.657684060533106,0.7041389797411848,-2.332905379124753,-35.99672765661154
-0.775028186865397,-5.421155174457303,7.664725450330518,0.34417170317506934,-2.978316873750879,-35.760921548666076
-0.82923973860997,-5.450938343194812,7.668167167362269,-0.013437512311591404,-3.4060304813873343,-35.44625046250627
-0.8837491220419181,-5.484998648008685,7.668032792239154,-0.36790001693665414,-3.618882880315338,-35.00933058848176
-0.938599108522005,-5.521187476811838,7.664353792069787,-0.7179933228214718,-3.6220549820367434,-34.41634480388499
-0.9938109832901234,-5.5574080266322055,7.657173858841572,-1.0621567708603217,-3.424565702519101,-33.64422516891111
-1.0493850635564455,-5.5916536836573965,7.646552291132969,-1.398599022549433,-3.0401921037746686,-32.68145855598419
-1.1053016003930194,-5.622055604695143,7.632566300907475,-1.7254136081092748,-2.487732528523975,-31.528231119940166
-1.161522156439971,-5.646932929980383,7.615312164826382,-2.0406959193086767,-1.790599438762871,-30.195747676851084
-1.2179914857397747,-5.664838924368012,7.594905205633295,-2.3426533960771874,-0.9758177906218329,-28.704714747451614
-1.2746398749834549,-5.67459710227423,7.571478671672523,-2.6297005435517034,-0.07258888414910694,-27.083129167580093
-1.3313858460061971,-5.6753229911157215,7.5451816662370055,-2.9005318352275045,0.8893641809633075,-25.3636328862075
-1.3881390759173544,-5.666429349306088,7.5161763478847305,-3.1541681640895796,1.8814391059465094,-23.580753306497474
-1.4448033694104152,-5.647614958246623,7.484634666243835,-3.3899756971545543,2.8775834716100293,-21.768339522919252
-1.5012795189928814,-5.618839123530523,7.450734909272289,-3.607659092383747,3.8553692898830896,-19.957439175130418
-1.5574679102281865,-5.580285430631692,7.414658318348452,-3.807233484135051,4.796646406283254,-18.174762322876646
-1.6132707645345035,-5.53231896656886,7.376585983507101,-3.9889811073638173,5.687778247589681,-16.441775013180173
-1.668593954200192,-5.475441184092963,7.336696172433463,-4.153398857495619,6.519516397959159,-14.77437810665332
-1.7233483660411215,-5.410246020113371,7.295162183858507,-4.301142638562152,7.28660089342138,-13.18306866062641
-1.7774508262422553,-5.337380011179158,7.252150757472885,-4.432973325168416,7.987182118136389,-11.673453900152408
-1.8308246263540469,-5.257508189997794,7.2078210242212,-4.549707864169941,8.62215307069312,-10.246986479066184
-1.8833997082540248,-5.171286659290863,7.162323945579501,-4.652177728960602,9.19446423285095,-8.901805847851747
-1.9351125748469333,-5.079342016962354,7.115802168289894,-4.7411957874391195,9.708473333421498,-7.633595410962673
-1.985905995016557,-4.9822572836281385,7.068390210415504,-4.817531741548747,10.169363262300744,-6.43639183717569
-2.0357285678528383,-4.880563651005131,7.020214893000016,-4.881895659920503,10.582645667549194,-5.303306897741989
-2.0845342043628894,-4.7747371943296395,6.971395936400811,-4.9349287288979236,10.953756215264159,-4.227141345852871
-2.1322815763061858,-4.665199632176998,6.922046649111832,-4.977200142356453,11.287739919669146,-3.2008841137230046
-2.178933572627956,-4.552322232980306,6.8722746476882675,-5.009208983493683,11.589020620813997,-2.2180990279148545
-2.224456794957759,-4.436432026772167,6.82218255785333,-5.031389973772831,11.861246677632616,-1.273206358520572
-2.2688211152254807,-4.317819559995841,6.7718686581156025,-5.044122037358036,12.107204377999166,-0.36166896425458
-2.3119993108254393,-4.196747516215849,6.7214274377420224,-5.047738727000582,12.32879072893271,0.5199063964861829
-2.353966785987598,-4.073459608926522,6.670950050472016,-5.04253966303572,12.527037664542014,1.3737420342061435
-2.394701382076863,-3.948189232281102,6.620524653841659,-5.028802242693659,12.702179980109035,2.200926291843198
-2.434183274399674,-3.821167432480012,6.570236631414722,-5.006792979775227,12.8537593246797,3.001504405248639
-2.472394948724474,-3.6926298392332146,6.52016870161697,-4.97677793572274,12.98075635762227,3.774613128216121
-2.509321247116806,-3.562822275656992,6.470400922259742,-4.939031804440579,13.081742793819387,4.518648751242368
-2.544949469873376,-3.4320048477187983,6.421010604215336,-4.8938453169281555,13.155044685679854,5.231457824710608
-2.5792695183505643,-3.300454400862,6.372072151046055,-4.841530738681049,13.198908097408172,5.910539679602885
-2.6122740623591842,-3.1684653198879182,6.323656843659244,-4.782425341885021,13.211658480771579,6.5532499118266285
-2.6439587155580635,-3.0363487350802023,6.275832590240395,-4.716892842766755,13.191845676031717,7.1569945151919745
-2.6743222029088654,-2.904430278319885,6.228663661812727,-4.645322897614835,13.13836757963794,7.719405401288877
-2.703366505692064,-2.7730466025235057,6.182210432836579,-4.568128843601946,13.050567104032563,8.238489634538848
-2.731096971717299,-2.64254093148318,6.136529144400559,-4.485743947256558,12.92829899149075,8.7127467524572
-2.757522381032131,-2.5132579415682725,6.091671704927994,-4.398616479731986,12.77196516363768,9.141250876322891
-2.7826549604478137,-2.3855382899318958,6.047685540130674,-4.307203970968757,12.582519393008512,9.523696741607933
-2.806510343347133,-2.2597130960018106,6.004613500420986,-4.211967003552678,12.361443978043212,9.860411074189116
-2.829107474307151,-2.1360986562213786,5.962493830385459,-4.113362892810787,12.11070262629635,10.152332712794697
-2.8504684608693647,-2.014991629958415,5.921360201457351,-4.011839565682839,11.8326747945571,10.400966384479132
-2.870618377168949,-1.896664882012844,5.8812418058005225,-3.9078299018380482,11.530077255513948,10.60831599740123
-2.8895850259890774,-1.7813641094577046,5.842163506782142,-3.801746741864036,11.205878677982245,10.776803711769414
-2.9073986670836542,-1.6693053226778822,5.804146039363501,-3.6939787047463417,10.863212592798359,10.909180934516696
-2.924091720310433,-1.5606731967498986,5.767206252316038,-3.5848868954011746,10.505293375140917,11.008436850383152
-2.939698452277932,-1.4556202629984893,5.731357383362027,-3.474802526897343,10.135338927489297,11.077709271642261
-2.954254654907917,-1.3542668737235963,5.6966093580930535,-3.3640254341809204,9.756502714567183,11.12020158707631
-2.967797323645153,-1.2567018465779245,5.662969103751244,-3.2528234183101574,9.37181678545933,11.139108534629905
-2.9803643421109323,-1.1629836787233312,5.630440869568143,-3.1414323329638583,8.984146497478267,11.137552507333693
-2.9919941788981657,-1.0731422137485485,5.5990265462385045,-3.0300568078905212,8.596156882907305,11.118531198122556
-3.0027256010356513,-0.9871806449194754,5.568725978159599,-2.9188714959092956,8.210289999041256,11.08487663844794
-3.0125974074848463,-0.9050777449290629,5.539537263200506,-2.8080227295248164,7.828752177658037,11.039225106084114
-3.021648184934137,-0.8267902231524825,5.5114570359052575,-2.6976304784639753,7.453509829529386,10.983996967724636
-3.0299160871656614,-0.7522551248571887,5.484480731120618,-2.587790508786729,7.086292339699808,10.921385266519316
-3.0374386384142333,-0.6813922014601906,5.458602826032751,-2.4785766561215357,6.728600581728746,10.85335173999165
-3.044252560428835,-0.6141061956429031,5.433817059471536,-2.370043138721619,6.381719654617112,10.78162893257356
-3.050393622385264,-0.550288999096732,5.410116628084319,-2.2622268493958835,6.046734577441522,10.707727122053583
-3.0558965123762314,-0.4898216533223168,5.38749435959036,-2.155149578175348,5.72454784030608,10.632944885683917
-3.0607947289094546,-0.432576174919256,5.365942863808607,-2.0488201293185084,5.415897887225071,10.558382268409181
-3.0651204906586473,-0.3784171960470053,5.345454662515422,-1.9432363066344167,5.121377782823346,10.484955665836488
-3.068904662619117,-0.32720341821877186,5.326022299449078,-1.8383867499760518,4.841453480476842,10.413413685579748
-3.072176696801305,-0.27878888341400343,5.307638431949317,-1.7342526131202542,4.576481258601375,10.344353393739851
-3.074964585635445,-0.23302407082798968,5.290295905818114,-1.6308090791828558,4.326724021064224,10.27823648301201
-3.0772948263437248,-0.18975683061734744,5.2739878150262856,-1.5280267143527357,4.092366266172091,10.215405012290125
-3.079192394649898,-0.14883316795562654,5.258707547882758,-1.4258726642298345,3.8735276169550095,10.156096463637127
-3.0806807263294544,-0.11009789178607644,5.24444882124046,-1.3243116995934632,3.670274875071405,10.100457941423514
-3.081781705247315,-0.07339514303536239,5.231205704244525,-1.223307120179228,3.482632613711917,10.04855940150404
-3.0825156566776686,-0.03856881689824322,5.218972633042733,-1.1228215261641876,3.310592363709011,10.000405847208054
-3.082901344846651,-0.0054628932611531095,5.2077444177810905,-1.0228174676921071,3.1541204740000888,9.955948465601194
-3.0829559737792622,0.02607831147884778,5.197516243104169,-0.9232579830360952,3.013164744837079,9.915094703914688
-3.0826951906644737,0.05620995892721857,5.1882836632738085,-0.8241070359969483,2.8876599416509627,9.87771730411925
-3.0821330910752014,0.08508655834372819,5.180042592913839,-0.7253298629557559,2.777532300972224,9.843662325068072
-3.0812822254917642,0.11286188135345043,5.172789294284281,-0.6268932397050752,2.682703138711365,9.81275618796008
-3.0801536066782296,0.13968891274056408,5.166520361887231,-0.5287656778254743,2.6030916665975665,9.784811783376151
-3.078756717550824,0.16571982940653973,5.161232705108976,-0.43091755999171283,2.5386171156043984,9.759633677892989
-3.0770995192567585,0.19110600056258373,5.156923529509059,-0.33332122321278296,2.4892002565070537,9.73702245615759
-3.0751884592511325,0.21599800312765427,5.153590317276931,-0.23595099865120706,2.454764397892632,9.716778231003385
-3.073028479219856,0.2405456471065806,5.151230807290419,-0.1387832163411732,2.435235931424059,9.698703350242862
-3.0706230227487903,0.2648980064208212,5.149842975127008,-0.04179618283874456,2.4305444832706735,9.68260432458467
-3.067974042684582,0.2892034512535279,5.149425013298621,0.055029860407102144,2.440622719610896,9.668292996989111
-3.065082008172047,0.3136096784496369,5.149975311902692,0.15171279037699326,2.4654058431709127,9.655586969900906
-3.0619459113875505,0.33826373688134603,5.151492439806462,0.24826866007600232,2.504830807028355,9.64430930332179
-3.058563274018737,0.3633120449516296,5.1539751264072216,0.3447117531092202,2.558835261496123,9.63428749369847
-3.0549301535692206,0.38890039756659084,5.1574222439383135,0.4410546280462049,2.6273562399055863,9.625351741162838
-3.0510411495935545,0.4151739599656467,5.161832790218775,0.5373081454578332,2.7103285796240355,9.617332510813045
-3.046889409993898,0.4422772457618871,5.167205871673354,0.6334814705659637,2.807683065765928,9.610057392504583
