th1 (rad),w1 (rad/s),th2 (rad),w2 (rad/s),a1 (rad/s^2),a2 (rad/s^2)
3.819917209853508,0.9791559168882926,0.1896908093782161,-2.5438824142284706,10.904679847967431,7.330663808669304
3.829708769022391,1.088202715367967,0.1642519852359314,-2.4705757761417777,10.878349687278766,7.224677444204149
3.840590796176071,1.1969862122407546,0.13954622747451362,-2.3983290016997363,10.817610313820268,7.044899333013125
3.8525606582984784,1.3051623153789573,0.11556293745751625,-2.327880008369605,10.728442499873927,6.796940035766958
3.8656122814522678,1.4124467403776966,0.0922841373738202,-2.2599106080119356,10.616929578085536,6.486658410908539
3.8797367488560446,1.518616036158552,0.06968503129370085,-2.19504402390285,10.489070798442379,6.11990002885066
3.8949229092176303,1.6235067441429756,0.04773459105467234,-2.1338450236143434,10.350641017884339,5.702283280566003
3.91115797665906,1.727013154321819,0.02639614081852891,-2.0768221908086835,10.2070956728849,5.239033290065128
3.928428108202278,1.829084111050668,0.005627918910442075,-2.024431857908032,10.063517141712365,4.734859938816552
3.9467189493127846,1.9297192824677916,-0.014616399668638244,-1.9770832585198665,9.92459695595523,4.1938738486019975
3.9660161421374625,2.028965252027344,-0.034387232253836914,-1.9351445200338466,9.794647684634379,3.61953286705594
3.986305794657736,2.1269117288736874,-0.053738677454175376,-1.8989491913632872,9.677638447382892,3.01461119451932
4.007574911946473,2.2236881133475164,-0.07272816936780825,-1.868803079418094,9.577248673062133,2.3811835017589638
4.029811793079948,2.3194606000781377,-0.09141620016198919,-1.8449912444005045,9.49693569666031,1.7206169598228247
4.053006399080729,2.414429957044741,-0.10986611260599424,-1.8277850748022764,9.440012918641054,1.0335648255304017
4.0771506986511765,2.5088300862311517,-0.128143963354017,-1.8174494265469723,9.409736426591849,0.31995593976608827
4.102238999513488,2.60292745049707,-0.14631845761948672,-1.8142498671493115,9.409399134803088,-0.4210249108452798
4.128268274018459,2.697021441845101,-0.16446095629097984,-1.8184601162577643,9.442432606337002,-1.1909704178796836
4.15523848843691,2.791445767908471,-0.18264555745355748,-1.830369820436561,9.512517784416156,-1.9923024451566145
4.183152946115995,2.8865709457526325,-0.2009492556579231,-1.8502928448881273,9.623706892617706,-2.828346568800141
4.212018655573521,2.9828080146788096,-0.21945218410680437,-1.8785763105761286,9.780559789541929,-3.703434385903525
4.241846735720309,3.0806136125742287,-0.23823794721256564,-1.9156106544351639,9.988299099431158,-4.623039088780733
4.272652871846051,3.1804966035685402,-0.25739405375691726,-1.961841045322971,10.25298947499118,-5.5939505297715275
4.304457837881737,3.283026498318452,-0.27701246421014697,-2.0177805506206865,10.581747310709872,-6.624496718034693
4.337288102864921,3.3888439714255507,-0.2971902697163538,-2.0840255178010336,10.982987917549561,-7.724819049241628
4.371176542579176,3.498673850601046,-0.3180305248943642,-2.16127370829345,11.466717148771773,-8.907207871150122
4.4061632810851865,3.613341022088764,-0.33964326197729866,-2.2503457870049512,12.044872803528323,-10.186501839660524
4.442296691306074,3.733789750124047,-0.3621467198473482,-2.3522108054015565,12.731715958653472,-11.580546182765861
4.479634588807315,3.861106909710582,-0.38566882790136375,-2.468016267229215,13.54425998399899,-13.11068611531394
4.518245657904421,3.996549509550572,-0.4103489905736559,-2.5991231283823546,14.502698104061905,-14.802231820184018
4.5582111529999265,4.1415764905911905,-0.43634022185747945,-2.7471454465841947,15.630734742100687,-16.684750375520508
4.599626917905838,4.297883838012197,-0.4638116763233214,-2.9139929503393995,16.955613773301756,-18.791878443133236
4.642605756285961,4.467439975745215,-0.4929516058267154,-3.1019117347707317,18.50741447575496,-21.16003152250103
4.687280156043413,4.652514120502764,-0.5239707231744227,-3.313512049995742,20.316750791735725,-23.82476654502411
4.733805297248441,4.855681628420122,-0.5571058436743801,-3.551759715445983,22.40917172424988,-26.812367770957444
4.782362113532643,5.079773345662621,-0.5926234408288399,-3.8198833931555574,24.792993303616733,-30.122012901178678
4.833159846989269,5.327703278698788,-0.6308222747603954,-4.121103522167344,27.434523653962184,-33.689978395852926
4.886436879776257,5.60204851523841,-0.6720333099820689,-4.458003306125873,30.21034593817217,-37.32131596554619
4.942457364928641,5.904151974620132,-0.7166133430433276,-4.831216465781335,32.821818223546245,-40.56817022963464
5.0014988846748425,6.232370156855595,-0.764925507701141,-5.236898168077682,34.6604153219084,-42.53901413166359
5.063822586243399,6.5789743100746785,-0.8172944893819178,-5.6622883093943175,34.651800971918156,-41.67890341451024
5.129612329344146,6.92549231979386,-0.873917372475861,-6.07907734353942,31.240349792722512,-35.750375271619006
5.198867252542084,7.2378958177210855,-0.9347081459112552,-6.43658109625561,22.918013272226386,-22.58705961122001
5.271246210719295,7.467075950443349,-0.9990739568738113,-6.66245169236781,9.663951605339772,-2.1389477876702077
5.345916970223729,7.563715466496747,-1.0656984737974895,-6.683841170244512,-5.605782482315155,21.463139605641203
5.421554124888696,7.507657641673596,-1.1325368854999347,-6.4692097741881,-18.11142819505333,41.408194382463925
5.496630701305432,7.326543359723063,-1.1972289832418157,-6.05512783036346,-24.81979732580681,53.310024259163875
5.569896134902662,7.078345386464995,-1.2577802615454503,-5.522027587771822,-26.13327883337868,57.63046199203777
5.640679588767313,6.817012598131208,-1.3130005374231686,-4.945722967851444,-24.17146449432268,57.2911106057436
5.708849714748625,6.575297953187981,-1.362457767101683,-4.372811861794008,-20.82068097224144,54.924972004967294
5.774602694280504,6.367091143465567,-1.4061858857196232,-3.8235621417443353,-17.176152518793508,52.07207651735283
5.83827360571516,6.195329618277632,-1.4444215071370665,-3.302841376570807,-13.736043979646398,49.436391048939306
5.900226901897936,6.057969178481168,-1.4774499209027745,-2.808477466081414,-10.679002238660152,47.26785786869533
5.960806593682747,5.951179156094566,-1.5055346955635887,-2.3357988873944606,-8.040586656019924,45.60727299462719
6.020318385243693,5.870773289534367,-1.5288926844375332,-1.8797261574481887,-5.801894682219817,44.41003970374938
6.079026118139036,5.812754342712169,-1.547689946012015,-1.4356257604106948,-3.929195743498765,43.60197811464427
6.137153661566158,5.773462385277181,-1.562046203616122,-0.9996059792642521,-2.390038767502313,43.10246399256927
6.19488828541893,5.749561997602158,-1.5720422634087645,-0.5685813393385594,-1.1588206177556486,42.83303093572865
6.252383905394952,5.737973791424602,-1.5777280768021502,-0.14025102998127287,-0.21783285001995628,42.71992784556657
6.309763643309198,5.735795462924402,-1.579130587101963,0.2869482484743929,0.44355395241815554,42.69444341787836
6.367121597938442,5.740231002448584,-1.576261104617219,0.7138926826531765,0.8304296408426249,42.69265746453756
6.424523907962928,5.748535298857011,-1.5691221777906872,1.1408192572985523,0.9441312349204548,42.65530427789336
6.482009260951497,5.757976611206216,-1.5577139852177018,1.5673723000774857,0.7840745969716711,42.52798702016633
6.53958902706356,5.765817357175933,-1.542040262216927,1.992652170279149,0.3495314793470354,42.26177019286044
6.597247200635319,5.769312671969403,-1.5221137405141354,2.4152698722077535,-0.35871696022572025,41.81407143403675
6.654940327355013,5.765725502367146,-1.497961041792058,2.833410586548121,-1.3369139869284694,41.14972119707359
6.7125975823786845,5.752356362497861,-1.4696269359265768,3.244907798518857,-2.57711067581867,40.24203905437734
6.770121146003663,5.726585255739674,-1.4371778579413883,3.6473281890626303,-4.066253440702885,39.07378072632508
6.827386998561059,5.685922721332645,-1.400704576050762,4.038065996325881,-5.7856146000936075,37.63783535858444
6.884246225774386,5.628066575331709,-1.3603239160875031,4.414444349911725,-7.710583947305338,35.937591266414316
6.940526891527703,5.550960735858656,-1.316179472588386,4.773820262575868,-9.810818438039716,33.98693119343465
6.99603649888629,5.452852551478259,-1.2684412699626273,5.113689574510214,-12.050731590403913,31.809855436001857
7.050565024401072,5.33234523557422,-1.2173043742175251,5.431788128870233,-14.390296816603044,29.43975577968831
7.103888476756814,5.188442267408189,-1.1629864929288227,5.726185686667116,-16.786138557571945,26.918373009202583
7.155772899430896,5.02058088183247,-1.1057246360621515,5.995369416759142,-19.192886864948633,24.29446975417802
7.20597870824922,4.8286520131829835,-1.0457709418945602,6.238314114300922,-21.56476813367935,21.622247197769145
7.25426522838105,4.61300433184619,-0.983387800751551,6.454536586278614,-23.857391288028442,18.959538448601243
7.300395271699512,4.374430418965905,-0.9188424348887648,6.644131970764627,-26.02966324387999,16.365829857157742
7.344139575889171,4.114133786527105,-0.8524011151811186,6.807790269336204,-28.045734166532505,13.900194574850941
7.385280913754443,3.8336764448617795,-0.7843232124877566,6.946792215084713,-29.876841570161318,11.619263192007212
7.42361767820306,3.5349080291601664,-0.7148552903369094,7.062984847004785,-31.502904878546406,9.575391961193441
7.458966758494662,3.2198789803747023,-0.6442254418668616,7.158738766616719,-32.91372912594039,7.815206501645665
7.491165548298409,2.8907416891152984,-0.5726380542006944,7.2368908316331755,-34.10971247219157,6.378688637899997
7.520072965189562,2.5496445643933825,-0.5002691458843626,7.300677718012175,-35.102013252051,5.298934600878165
7.545569410833496,2.1986244318728723,-0.4272623687042408,7.353667064020957,-35.91220670823774,4.602651218024506
7.5675556551522245,1.839502364790495,-0.3537256980640312,7.399693576201202,-36.571533118729306,4.311385816888186
7.585950678800129,1.4737870336032017,-0.27972876230201915,7.442807434370084,-37.11989117240595,4.443418834018423
7.600688549136161,1.1025881218791422,-0.2053006879583183,7.487241622710268,-37.60474947118898,5.0161932483000875
7.611714430354953,0.7265406271672524,-0.13042827173121563,7.537403555193269,-38.08012389437698,6.0491073293518145
7.618979836626625,0.3457393882234826,-0.05505423617928293,7.597894628486787,-38.60568548874501,7.566432261801454
7.62243723050886,-0.040317466663967516,0.020924710105584943,7.673558951104802,-39.24589326064535,9.599976558301268
7.62203405584222,-0.43277639927042105,0.09766029961663296,7.769558716687815,-40.068718981415,12.190786845520083
7.617706291849515,-0.8334635890845711,0.1753558867835111,7.891466585143015,-41.14288886909083,15.388410579589813
7.60937165595867,-1.2448924777754793,0.25427055263494125,8.045350690938914,-42.5312723509034,19.244565471184742
7.596922731180915,-1.6702052012845132,0.3347240595443304,8.23779634565076,-44.2754223365549,23.794500978178466
7.58022067916807,-2.1129594246500623,0.417102023000838,8.475741355432545,-46.361080148087275,29.01214226961683
7.55909108492157,-2.576570226130935,0.5018594365551634,8.765862778128714,-48.644988396258,34.71178339794271
7.53332538266026,-3.063020110093515,0.5895180643364506,9.11298061210814,-50.70960329104135,40.349361063972566
7.502695181559325,-3.5701161430039283,0.6806478704575321,9.516474222747867,-51.60716376041399,44.667564228033356
7.4669940201292855,-4.086187780608068,0.7758126126850107,9.9631498650282,-49.521274151163595,45.218405116549725
7.426132142323205,-4.581400522119703,0.8754441113352927,10.415333916193697,-41.68782548663865,38.22839393026454
7.380318137102008,-4.99827877698609,0.9795974504972296,10.797617855496343,-25.590806521988423,20.207176554890832
7.330335349332147,-5.254186842205974,1.087573629052193,10.99968962104525,-2.294669181369192,-7.500775420386581
7.277793480910088,-5.277133534019666,1.1975705252626454,10.924681866841386,21.196775329467886,-35.500411954143495
7.225022145569891,-5.065165780724987,1.3068173439310593,10.56967774729995,36.73752302676514,-52.93556082047551
7.1743704877626415,-4.697790550457336,1.4125141214040589,10.040322139095196,42.37339537734268,-57.413135075179625
7.127392582258068,-4.274056596683909,1.5129173427950109,9.466190788343399,41.51194520579445,-53.680196277613824
7.084652016291229,-3.8589371446259646,1.607579250678445,8.92938882556726,37.9266004462414,-46.79594315652157
7.0460626448449695,-3.4796711401635507,1.6968731389341176,8.461429394002044,33.763708902666224,-39.533948552580746
7.011265933443334,-3.1420340511368883,1.7814874328741381,8.066089908476236,29.901251893169295,-32.9530525688392
6.979845592931965,-2.8430215322051953,1.8621483319589005,7.736559382787845,26.596875927305692,-27.302108658270196
6.951415377609913,-2.5770527729321384,1.939513925786779,7.463538296205143,23.86366435039277,-22.527962390982072
6.925644849880592,-2.338416129428211,2.0141493087488307,7.238258672295322,21.635629742247218,-18.49206872238878
6.90226068858631,-2.1220598320057387,2.0865318954717837,7.053337985071434,19.831576610398415,-15.050176196132155
6.881040090266253,-1.9237440659017544,2.157065275322498,6.902836223110112,18.37680181661566,-12.076953556788064
6.8618026496072355,-1.7399760477355977,2.226093637553599,6.7820666875422315,17.208598110500816,-9.47045284743219
6.84440288912988,-1.5678900666305895,2.293914304429021,6.687362159067909,16.275989921124623,-7.150051200098735
6.828723988463573,-1.4051301674193433,2.3607879260197002,6.615861647066922,15.537696426853499,-5.052915056259995
6.81467268678938,-1.2497532031508083,2.4269465424903696,6.565332496504322,14.959763556382617,-3.1307154078405284
6.8021751547578715,-1.100155567586982,2.4925998674554126,6.534025342425917,14.51331776023977,-1.3470921487625842
6.7911735990820015,-0.9550223899845843,2.557940120879672,6.520554420938291,14.17252466987674,0.32406369011546
6.781623375182155,-0.8132971432858169,2.623145665089055,6.523795057839446,13.912710040283955,1.8995720124879307
6.773490403749297,-0.6741700428829773,2.6883836156674494,6.542790777964325,13.708572768820307,3.3872619571028806
6.766748703320467,-0.5370843151947743,2.7538115234470926,6.576663397535354,13.532436754409922,4.785706720086941
6.76137786016852,-0.4017599476506751,2.819578157422446,6.624520464736223,13.352534654278106,6.083518679772153
6.757360260692013,-0.268234601107894,2.885823362069808,6.6853556515339445,13.131393425320423,7.258388785308311
6.754677914680935,-0.13692066685468976,2.952676918585148,6.757939539387028,12.824506097713252,8.276166760126172
6.753308708012388,-0.008675605877557224,3.020256313979018,6.84070120698829,12.379630938305146,9.09045146044048
6.753221951953613,0.11512070350549423,3.088663326048901,6.931605721592694,11.73724727132054,9.643381582804498
6.754373158988668,0.23249317621869964,3.157979383264828,7.02803953742074,10.832872272910596,9.868531709599456
6.756698090750855,0.34082189894780557,3.2282597786390355,7.126724854516734,9.602005447096781,9.696904336698337
6.760106309740333,0.4368419534187734,3.2995270271842028,7.2236938978837175,7.988253677613232,9.06676097034288
6.764474729274521,0.5167244901949057,3.37176396616304,7.314361507587146,5.95450896772986,7.937214170548216
6.769641974176469,0.5762695798722044,3.4449075812389114,7.393733649292629,3.495807531728665,6.3039828434955485
6.775404669975192,0.6112276551894911,3.5188449177318377,7.456773477727584,0.6509003299734448,4.213746387600624
6.781516946527087,0.6177366584892255,3.5934126525091137,7.49891094160359,-2.4917020473524114,1.7719658104670455
6.787694313111979,0.5928196380157015,3.6684017619251494,7.516630599708261,-5.797335112873917,-0.8608363372334396
6.7936225094921365,0.5348462868869623,3.743568067922232,7.508022236335926,-9.100284621631872,-3.4865724111925034
6.798970972361007,0.44384344067064363,3.818648290285591,7.473156512224001,-12.22816349321502,-5.898152321506639
6.803409406767713,0.32156180573849347,3.893379855407831,7.414174989008935,-15.029316596532624,-7.911571837286394
6.806625024825098,0.17126863977316722,3.9675216052979203,7.335059270636071,-17.395407664407916,-9.392139056769121
6.80833771122283,-0.002685436870911939,4.040872198004281,7.24113788006838,-19.273263197339702,-10.267857718014072
6.808310856854121,-0.19541806884430896,4.113283576804965,7.138459302888239,-20.66437168419825,-10.528206817346424
6.806356676165677,-0.4020617856862915,4.184668169833847,7.033177234714775,-21.614697504286543,-10.211590425132744
6.802336058308814,-0.6182087607291569,4.254999942180994,6.931061330463447,-22.19970146053708,-9.38727030646457
6.796153970701522,-0.8402057753345277,4.324310555485629,6.837188627398802,-22.509297358470576,-8.137284346406053
6.787751912948177,-1.0652987489192334,4.392682441759617,6.755815783934741,-22.63583746969486,-6.541850333084732
6.777098925458985,-1.291657123616182,4.460240599598965,6.690397280603894,-22.666318513076302,-4.669497486351542
6.7641823542228225,-1.518320308746945,4.527144572405004,6.643702305740378,-22.67860676167663,-2.571542290301145
6.7489991511353535,-1.7451063763637114,4.593581595462408,6.617986882837367,-22.74079723737416,-0.2797347406422702
6.731548087371716,-1.972514348737453,4.659761464290781,6.615189535430944,-22.912695492364602,2.194253756648131
6.711822943884342,-2.201641303661099,4.725913359645091,6.637132072997425,-23.248590818440658,4.858649347652186
6.689806530847731,-2.4341272118455053,4.792284680375065,6.685718566473947,-23.800773498283924,7.741568982858681
6.6654652587292755,-2.6721349468283444,4.8591418660398045,6.763134256302534,-24.62351588493484,10.891799128425024
6.638743909260992,-2.9183701056776927,4.92677320860283,6.872052247586784,-25.77742841713708,14.380771312871566
6.609560208204215,-3.1761443898490636,4.995493731078698,7.0158599607155,-27.33417396076907,18.305955440238865
6.577798764305724,-3.449486129456754,5.065652330685853,7.198919515117889,-29.38138855998363,22.795560329051657
6.543303903011156,-3.7433000150565903,5.137641525837032,7.426875118408406,-32.02707042526913,28.013588075423037
6.5058709028605906,-4.063570719309282,5.211910277021116,7.707010999162636,-35.40101401802551,34.16201287477088
6.465235195667498,-4.4175808594895365,5.288980387012742,8.048631127910344,-39.64641351495675,41.47081624785228
6.421059387072603,-4.814044994639104,5.369466698291846,8.463339290388866,-44.88335207981873,50.1509684832951
6.372918937126212,-5.262878515437292,5.454100091195734,8.964848975221818,-51.097592456259015,60.24627324061246
6.320290151971839,-5.773854439999882,5.543748580947952,9.567311707627942,-57.84297622087644,71.22913988793053
6.26255160757184,-6.352284202208646,5.639421698024231,10.279603106507247,-63.526730975005144,81.0176374041883
6.199028765549754,-6.9875515119586975,5.742217729089304,11.08977948054913,-64.00386417214878,84.02433281781923
6.129153250430167,-7.627590153680186,5.853115523894795,11.930022808727323,-51.16982677232615,69.17537486653667
6.052877348893365,-8.139288421403448,5.972415751982068,12.621776557392689,-16.51801023452384,24.78599705512888
5.971484464679331,-8.304468523748685,6.098633517555995,12.869636527943978,33.36771202099578,-40.04511525221506
5.888439779441844,-7.970791403538727,6.227329882835435,12.469185375421828,70.80446173716079,-87.35141962919069
5.8087318654064575,-7.262746786167119,6.352021736589653,11.595671179129921,80.79170954288868,-97.10086264466666
5.7361043975447865,-6.454829690738232,6.467978448380952,10.624662552683255,74.44094775166118,-85.02218578133707
5.671556100637404,-5.71042021322162,6.574225073907785,9.774440694869885,64.2567080483266,-68.21765972311381
5.614451898505187,-5.067853132738354,6.671969480856484,9.092264097638747,55.13648104406975,-53.16241356307878
5.563773367177804,-4.516488322297657,6.762892121832872,8.56063996200796,48.038649799534596,-40.97534801201863
5.518608483954828,-4.036101824302311,6.848498521452951,8.150886481887774,42.77384289217944,-31.274466531685057
5.478247465711805,-3.608363395380517,6.9300073862718286,7.838141816570923,38.95761142621291,-23.460582789207002
5.442163831757999,-3.218787281118388,7.008388804437538,7.603535988678853,36.249674850723004,-17.02641274617033
