th1 (rad),w1 (rad/s),th2 (rad),w2 (rad/s)
6.206744205529254,-2.0035484482700543,1.6852333445142744,2.248345977272921
6.1867087210465534,-1.9838683519270586,1.7077168042870037,2.1153076989781234
6.166870037527283,-1.9678897067503995,1.7288698812767849,1.98363026598286
6.147191140459779,-1.9552772733948645,1.7487061839366134,1.852992340959895
6.12763836772583,-1.9457109465227234,1.7672361073462124,1.7231300900454067
6.108181258260603,-1.938881593264547,1.7844674082466665,1.5938325414090495
6.088792442327958,-1.9344876560005477,1.800405733660757,1.4649376343963776
6.069447565767953,-1.932232453283356,1.8150551100047208,1.3363287683923901
6.050125241235119,-1.9318221240555986,1.8284183976886446,1.2079316858014073
6.030807019994564,-1.932964168376696,1.8404977145466586,1.0797115480139037
6.011477378310796,-1.9353665424757915,1.8512948300267975,0.9516700871876633
5.9921237128860385,-1.9387372672542715,1.8608115308986741,0.8238427404324392
5.972736340213496,-1.9427845077740458,1.8690499583029985,0.696295696756446
5.953308495135755,-1.9472170773685415,1.876012915270563,0.5691228108898909
5.93383632436207,-1.9517453145225603,1.881704143379462,0.4424423615660573
5.914318871216844,-1.9560822744028266,1.8861285669951224,0.316393654484491
5.8947580484728155,-1.9599451707504392,1.8892925035399672,0.1911334912709837
5.875158596765311,-1.963056998627186,1.891203838452677,0.0668325444275895
5.855528026779039,-1.9651482650222576,1.891872163896953,-0.05632830635095723
5.8358765441288165,-1.965958753215012,1.8913088808334433,-0.17816160983186569
5.816216956596667,-1.9652392484932526,1.8895272647351247,-0.29847687763287134
5.796564564111734,-1.9627531575415706,1.886542495958796,-0.41708394258591375
5.776937032536319,-1.9582779614736394,1.882371656532937,-0.533796069858036
5.757354252921583,-1.9516064527617132,1.8770336958343565,-0.6484327578745362
5.737838188393965,-1.942547718667721,1.8705493682556111,-0.7608221784027543
5.7184127112072884,-1.9309278474863982,1.8629411464715835,-0.8708032205738966
5.699103432732424,-1.91659034815721,1.8542331142658446,-0.9782271210125967
5.679937529250852,-1.8993962877522919,1.8444508430557187,-1.0829586803912774
5.660943566373329,-1.8792241642175573,1.833621256251806,-1.1848770844291108
5.642151324731153,-1.8559695428605905,1.8217724854075148,-1.2838763635258732
5.623591629302547,-1.8295444939237488,1.808933721772256,-1.3798655389569046
5.60529618436331,-1.7998768748127307,1.795135066382687,-1.472768514186246
5.587297415615183,-1.7669095040081335,1.7804073812408245,-1.5625237769611469
5.569628320575101,-1.730599274374714,1.764782143471213,-1.6490839812575149
5.552322327831354,-1.6909162516458567,1.7482913036586378,-1.7324154778970573
5.535413165314896,-1.6478427995556266,1.7309671488796672,-1.8124978589798244
5.51893473731934,-1.6013727667541833,1.7128421702898688,-1.8893235745388284
5.502921009651798,-1.5515107626636007,1.6939489345444805,-1.9628976704964878
5.487405902025162,-1.4982715402316307,1.6743199578395156,-2.0332376856251493
5.472423186622846,-1.44167949355987,1.653987580983264,-2.1003737323701475
5.458006391687247,-1.381768268068971,1.6329838436595625,-2.1643487726972745
5.444188709006558,-1.3185804706706343,1.6113403559325898,-2.22521908621028
5.431002904299851,-1.2521674577986561,1.5890881650704871,-2.2830549142940706
5.4184812297218645,-1.1825891705579314,1.5662576159275463,-2.337941251626283
5.406655338016285,-1.1099139791122745,1.5428782034112836,-2.389978745706017
5.3955561982251625,-1.0342184931443572,1.5189784159542234,-2.439284656686249
5.3852140132937185,-0.9555872921178584,1.4945855693873609,-2.4859938243187925
5.37565814037254,-0.8741125283948369,1.4697256311441729,-2.5302595866833
5.366917015088592,-0.7898933581274066,1.44442303527734,-2.572254596891381
5.359018081507317,-0.7030351592141982,1.418700489308426,-2.6121714892702363
5.351987729915175,-0.6136485022741579,1.3925787744157236,-2.6502233555620185
5.345851244892433,-0.5218478491426578,1.3660765408601034,-2.6866440041206374
5.340632766401007,-0.42774996326024833,1.339210100818897,-2.721687990417125
5.336355266768405,-0.3314720267757322,1.3119932209147258,-2.7556304246519545
5.333040546500648,-0.2331294693917751,1.2844369166682064,-2.7887665810508326
5.33070925180673,-0.13283352306783225,1.256549250857698,-2.821411352557572
5.329380916576052,-0.03068852380882614,1.2283351373321223,-2.8538986132287567
5.329074031337964,0.07321101385698559,1.1997961511998347,-2.886580567898204
5.329806141476533,0.17878352309540255,1.1709303455208526,-2.9198271840466763
5.331593976707487,0.2859636878610196,1.1417320736803858,-2.9540258140039466
5.334453613586097,0.3947059059163009,1.1121918155403463,-2.9895811266847714
5.33840067264526,0.5049879058360521,1.0822960042734986,-3.026915477437078
5.343450551703621,0.6168145271651959,1.0520268494991278,-3.0664698530337873
5.3496186969752735,0.7302216919575928,1.02136215096879,-3.108705537465834
5.356920913894849,0.8452806187761586,0.9902750955941316,-3.1541066543587126
5.365373720082611,0.9621023567563062,0.9587340290505445,-3.2031837550990843
5.374994743650174,1.0808427474733668,0.9267021914995537,-3.256478639780068
5.385803171124908,1.2017079561132984,0.894137405101753,-3.3145706224685485
5.397820250686041,1.324960750777139,0.8609916988770675,-3.3780844844071334
5.411069858193812,1.4509277492862152,0.8272108540329962,-3.447700399246935
5.425579135686674,1.5800078953488041,0.7927338500405269,-3.524166162474288
5.441379214640162,1.7126824671741692,0.757492188415784,-3.608312109140077
5.458506039311904,1.8495269542886468,0.7214090673243833,-3.701069150412973
5.47700130885479,1.9912251471390188,0.6843983758202535,-3.8034903799221533
5.49691356032618,2.138585738382303,0.6463634720210321,-3.9167766537666684
5.518299417710003,2.2925615745205326,0.6071957054833654,-4.042306351555526
5.541225033455208,2.454271305950477,0.5667726419678102,-4.181669021189909
5.565767746514713,2.625022341052336,0.5249559517559111,-4.336701492396279
5.592017969925236,2.8063322940621367,0.48158893683194837,-4.509522730671607
5.620081292865858,2.999942728939493,0.4364937095252323,-4.702559087128097
5.650080720155253,3.2078124443066365,0.38946811865395137,-4.91854259564928
5.6821588445983195,3.432065058102333,0.3402826926974586,-5.160447722054195
5.7164794951793425,3.674842344895608,0.28867821547691663,-5.431299624852723
5.753227918628299,3.937972700337241,0.2343652192283894,-5.733728339910264
5.792607645631671,4.222292885802135,0.17702793582928678,-6.069043612183514
5.8348305744896924,4.526356811973343,0.11633749970745164,-6.4354581644731965
5.880094142609426,4.844166857995603,0.051982918062719666,-6.824946866377424
5.928535811189382,5.161663591196613,-0.016266550601054572,-7.218363136244995
5.980152447101348,5.452563049513557,-0.08845018196350453,-7.579616341043405
6.0346780775964834,5.676625682611075,-0.16424634537393856,-7.853191271510211
6.091444334422595,5.787012791127425,-0.2427782580890407,-7.974283050130154
6.1493144623338685,5.751425646121036,-0.32252108859034223,-7.898098290135483
6.206828718795079,5.575350987524728,-0.40150207149169703,-7.632051621393546
6.262582228670326,5.3017615731058045,-0.47782258770563246,-7.2352000715397145
6.315599844401384,4.984715469244173,-0.5501745884210296,-6.781567743395282
6.365446999093826,4.665131916953462,-0.6179902658549824,-6.326757157618073
6.412098318263361,4.365038698265953,-0.6812578374311631,-5.900254919597228
6.4557487052460205,4.09281166448232,-0.7402603866271353,-5.512846023030017
6.496676821890843,3.849527026233785,-0.7953888468574355,-5.165434621546831
6.535172092153181,3.6330953215661426,-0.8470431930729038,-4.854730161085717
6.571503045368843,3.4403878420611833,-0.895590494683761,-4.576142598321683
6.605906923789455,3.268188252320702,-0.9413519206669778,-4.32505935541845
6.6385888063126615,3.113562052176528,-0.9846025142211623,-4.097327872955883
6.669724426834427,2.973962931445358,-1.0255757929507212,-3.8893835368078737
6.69946405614888,2.847229669589222,-1.0644696283188,-3.698232962331247
6.727936352844773,2.731543281642719,-1.1014519579421125,-3.521386874893618
6.7552517856611995,2.6253744745604006,-1.1366658266910488,-3.3567825981653288
6.781505530406804,2.5274334597510077,-1.170233652672702,-3.202711735623346
6.806779865004314,2.4366262255705675,-1.2022607700289354,-3.0577579962644035
6.83114612726002,2.3520180220605775,-1.2328383499915794,-2.920745712299592
6.854666307480626,2.272803512713291,-1.2620458071145753,-2.790697952214704
6.877394342607759,2.1982826460927947,-1.2899527866367222,-2.666802673484049
6.8993771690686865,2.1278412694775692,-1.3166208133715627,-2.548385380356193
6.920655581763462,2.0609356133963956,-1.3421046671751247,-2.434886943272503
6.941264937897426,1.997079918597586,-1.3664535366078496,-2.325845466060878
6.961235737083402,1.9358366142955559,-1.3897119912684583,-2.2208813035041985
6.980594103226357,1.876808573966064,-1.4119208043035003,-2.1196845186612423
6.999362188966018,1.8196330695706524,-1.4331176494901128,-2.022004224412685
7.0175585196617245,1.7639771185963118,-1.4533376917342395,-1.9276393804711656
7.0351982908476876,1.7095339740003357,-1.4726140855389511,-1.836430720235185
7.052293630587691,1.656020548639836,-1.490978392741303,-1.7482535657954679
7.06885383607409,1.6031755964023313,-1.5084609283992576,-1.6630113576850731
7.0848855920381135,1.5507584950037259,-1.5250910419761083,-1.5806297812406018
7.100393176988151,1.498548492811974,-1.5408973397885144,-1.501051415552653
7.115378661916271,1.4463442961814958,-1.555907853944041,-1.424230865178137
7.129842104878086,1.393963886307015,-1.5701501625958223,-1.3501303599441243
7.143781743741156,1.341244466761405,-1.5836514661952636,-1.2787158250077695
7.157194188408771,1.2880424554861896,-1.5964386244453412,-1.209953432570356
7.170074612963632,1.2342334484700141,-1.6085381587710448,-1.1438066491220875
7.182416947448332,1.1797120967292658,-1.6199762252622656,-1.0802337888527003
7.194214068415625,1.1243918532390154,-1.6307785631507925,-1.0191860761301474
7.205457986948015,1.0682045616662321,-1.640970423912094,-0.9606062091031214
7.216140032564677,1.0110998735091001,-1.6505764860031251,-0.9044274039662241
7.2262510312997685,0.9530444938844909,-1.6596207600427875,-0.8505728866439644
7.235781476238613,0.8940212681178187,-1.668126488909227,-0.798955786862085
7.244721688919792,0.8340281309853768,-1.676116046777848,-0.7494793798078783
7.253061970229646,0.7730769476198962,-1.6836108405759267,-0.70203761356406
7.2607927397058445,0.7111922795900484,-1.6906312167115674,-0.6565158566382532
7.267904662501745,0.6484101115683204,-1.69719637527795,-0.6127917992915144
7.274388763617428,0.5847765735381065,-1.7033242932708652,-0.5707364448077585
7.280236529352809,0.5203466910135685,-1.7090316577189428,-0.5302151319394207
7.285439996262944,0.45518319168574073,-1.714333809038337,-0.4910885369685086
7.289991828179802,0.38935539172641587,-1.7192446944080222,-0.4532136125220415
7.2938853820970655,0.322938179126652,-1.7237768305332426,-0.4164444298585004
7.297114763888332,0.25601110532410676,-1.7279412748318277,-0.380632901227286
7.299674874941573,0.18865759032188778,-1.7317476038441006,-0.3456293686103009
7.301561450844792,0.12096424078409648,-1.7352038975302038,-0.3112830543009182
7.302771093252633,0.05302027539561277,-1.738316728073213,-0.2774423770857195
7.303301296006589,-0.015082952788340681,-1.7410911518440702,-0.2439551450936242
7.303150466478706,-0.08325235114623494,-1.7435307032950065,-0.21066864257494006
7.302317942967243,-0.1513934167530312,-1.7456373897207558,-0.17742963294280678
7.300804008799713,-0.2194105198753421,-1.7474116860501838,-0.14408430436633007
7.29860990360096,-0.28720716327449325,-1.748852529093847,-0.11047818708324797
7.295737831968215,-0.3546862400553919,-1.7499573109646795,-0.07645607343619643
7.292190969567661,-0.4217503133388575,-1.7507218716990416,-0.041861972452755115
7.287973466434273,-0.48830194095218726,-1.751140491423569,-0.006539130583841424
7.283090447024751,-0.5542440676068847,-1.7512058827294075,0.02966985104246738
7.277548006348682,-0.6194805056233467,-1.7509091842189828,0.0669227748617102
7.271353201292449,-0.6839165231137417,-1.7502399564703657,0.10537745617377084
7.264514036061311,-0.7474595555823661,-1.749186181908628,0.14519116389936904
7.257039440505488,-0.8100200530874171,-1.7477342702696343,0.18651987937092773
7.2489392399746135,-0.8715124703884521,-1.745869071475925,0.22951736731619615
7.240224115270729,-0.9318564018757913,-1.743573897802763,0.27433406215527606
7.230905551251971,-0.9909778565941239,-1.7408305571812104,0.32111578297469107
7.22099577268603,-1.0488106614605004,-1.7376193993514635,0.37000230184975025
7.210507666071425,-1.1052979730569068,-1.733919376332966,0.42112580220601753
7.199454686340856,-1.1603938704733465,-1.7297081183109058,0.4746092761401893
7.187850747636123,-1.2140649940183332,-1.724962025549504,0.5305649214101403
7.17571009769594,-1.2662921877257232,-1.7196563763354025,0.5890926093757928
7.163047175818683,-1.3170720980678086,-1.7137654502416446,0.6502785036643601
7.1498764548380045,-1.3664186777644145,-1.707262665205001,0.7141939148643497
7.13621226806036,-1.4143645426631635,-1.7001207260563573,0.7808944783103839
7.122068622633728,-1.4609621318742603,-1.6923117812732535,0.8504197393649667
7.107459001314986,-1.5062846270305204,-1.6838075838796038,0.9227932231718559
7.092396155044681,-1.5504265958390377,-1.6745796516478852,0.9980230536620228
7.076891889086291,-1.593504337845988,-1.664599421111265,1.0761031700957344
7.060956845707831,-1.6356559260998738,-1.6538383894103075,1.1570151695539952
7.0446002864468324,-1.677040956430653,-1.6422682377147675,1.2407307819257167
7.027829876882526,-1.7178400353852132,-1.6298609298955102,1.3272149618091473
7.0106514765286745,-1.7582540573507075,-1.6165887802774188,1.4164295613124989
6.993068935955168,-1.7985033399101862,-1.6024244846642939,1.5083375309961813
6.975083902556066,-1.8388267029781866,-1.5873411093543321,1.6029075849942336
6.956695635526284,-1.8794805909757721,-1.5713120335043897,1.7001192622054904
6.9379008296165265,-1.9207383478063578,-1.554310840882335,1.7999683194172826
6.918693446138463,-1.9628897617054082,-1.536311157688162,1.9024724048544022
6.899064548521409,-2.0062410016446184,-1.5172864336396181,2.007676981963528
6.879002138504963,-2.051115069804391,-1.4972096638199828,2.1156615028622143
6.858490987806919,-2.0978528969953154,-1.4760530487913606,2.226545868154851
6.837512458836965,-2.1468152113971675,-1.453787590109812,2.3404972540285462
6.816044306722993,-2.1983853173381696,-1.4303826175695267,2.4577374380928774
6.794060453549612,-2.252972931823137,-1.405805243188598,2.578550811989461
6.771530724231381,-2.3110192437553767,-1.3800197350687033,2.7032933313575382
6.748420531793827,-2.3730033855221766,-1.3529868017551279,2.8324027224789754
6.724690497938605,-2.4394505392960975,-1.324662774530338,2.9664103397847064
6.700295992545644,-2.510941940020934,-1.294998671132491,3.105955148137235
6.675186573145434,-2.5881270796943845,-1.2639391196511187,3.2518003840411365
6.64930530234849,-2.671738453732163,-1.2314211158107073,3.4048535194298397
6.622587917811169,-2.762609199576016,-1.197372580616409,3.566190185076969
6.594961825815409,-2.861693919023703,-1.1617106787656393,3.7370826545929074
6.5663448866251715,-2.9700927672830297,-1.1243398522197101,3.9190332360885027
6.536643958952341,-3.0890783736004694,-1.085149519858825,4.1138122516867055
6.505753175216337,-3.2201240196321788,-1.044011397341958,4.323498782171067
6.473551935020015,-3.364929140373839,-1.0007764095202474,4.550519189522016
6.439902643616277,-3.525433467287122,-0.9552712176250272,4.797672002164028
6.404648308943406,-3.70380178564416,-0.907294497603387,5.06811498065348
6.367610291086964,-3.9023431753574815,-0.8566133477968522,5.365265291926331
6.32858685933339,-4.123294318052517,-0.8029606948775888,5.692516314244102
6.287353916152865,-4.368334008162687,-0.7460355317351478,6.0525878189121345
6.2436705760712385,-4.637591041106746,-0.6855096535460264,6.446179661105377
6.197294665660171,-4.927762200167732,-0.6210478569349727,6.8693944964065
6.148017043658493,-5.228864606134007,-0.5523539119709077,7.309261029848773
6.095728397597153,-5.519500659291613,-0.4792613016724199,7.737172792517529
6.040533391004237,-5.762312050961548,-0.40188957374724465,8.10255142863571
5.982910270494622,-5.905549499135875,-0.3208640594608876,8.33496067880931
5.923854775503263,-5.899960755241642,-0.23751445267279447,8.367461030444936
5.8648551679508465,-5.729380519992763,-0.1538398423683451,8.178904229527605
5.807561362750919,-5.427201713481965,-0.07205080007306906,7.8164380040728565
5.753289345616099,-5.055030150242869,0.006113579967659502,7.365550273253143
5.70273904411367,-4.667308128309112,0.07976908270019092,6.90110256576846
5.656065962830579,-4.295788361517001,0.14878010835787553,6.466247822234185
5.613108079215409,-3.953304096647528,0.21344258658021736,6.0780160675186945
5.573575038248934,-3.6421329780381457,0.2742227472554043,5.739033964924437
5.537153708468552,-3.359951834706274,0.3316130869046487,5.445764856737071
5.5035541901214895,-3.102932430942296,0.3860707354720194,5.1927439740068335
5.472524865812066,-2.8671024964940615,0.4379981752120878,4.974410715734271
5.443853840847126,-2.6488578980195703,0.4877422823694305,4.785776747006633
5.41736526186693,-2.4451029425131074,0.5356000498394968,4.622590377301378
5.392914232441799,-2.253242555418343,0.5818259536125107,4.481304180134786
5.370381806887616,-2.0711241187382097,0.6266389954138585,4.3589785257163784
5.349670565700234,-1.89696925450641,0.6702287806710223,4.253174815933658
5.33070087315517,-1.7293107145423081,0.7127605288303589,4.161858102307384
5.313407766009747,-1.5669389489441146,0.7543791098534327,4.083314607283061
5.297738376520305,-1.4088586956607658,0.7952122559262633,4.016084156911737
5.283649789563698,-1.2542544242561926,0.8353730974953807,3.9589056775869778
5.271107245321136,-1.102463083382394,0.8749621542712505,3.9106735395049474
5.260082614487311,-0.9529526525598063,0.9140688896663,3.8704027131918135
5.2505530879617135,-0.805305191873456,0.9527729167982181,3.8372010524996587
5.242500036042979,-0.6592032998774319,0.9911449273232147,3.810247372289881
5.235908003044204,-0.514419087715919,1.0292474010461135,3.7887742961342825
5.230763812167045,-0.3708049454488657,1.0671351440074563,3.7720550946345486
5.227055762712556,-0.22828551662672122,1.1048556949538018,3.7593939201716218
5.224772907546289,-0.08685041523956835,1.142449634155518,3.7501189760966027
5.2239044033938935,0.053452678287072675,1.179950823916484,3.7435782457434184
5.224438930176764,0.1925248129627246,1.2173866063739183,3.739137457167992
5.226364178306391,0.33022263984807504,1.2547779809455981,3.7361799808173384
5.229666404704872,0.4663654647333978,1.2921397807537716,3.73410835685258
5.234330059352206,0.6007425069948714,1.3294808643222973,3.7323471340794163
5.240337484422154,0.7331203193841993,1.3668043356630915,3.7303466809547956
5.247668687615996,0.8632502606808634,1.4041078024726394,3.7275876084273905
5.256301190222805,0.9908758622268514,1.4413836785569134,3.7235854314272494
5.2662099488450735,1.1157398938042753,1.478619532871186,3.717895096580154
5.277367347783116,1.237590916910661,1.5157984838369876,3.710115022430422
5.289743256952223,1.3561891157843649,1.5528996340612917,3.6998903371238563
5.303305148110066,1.4713112183699921,1.5898985374325303,3.686915056579893
5.3180182602937665,1.5827543587147033,1.6267676879983293,3.6709330205529795
5.333845803880913,1.6903387851747127,1.663477018203859,3.6517374893339585
5.35074919173266,1.7939093800285348,1.6999943930971986,3.6291693933656997
5.368688285532945,1.8933360196514135,1.7362860870308556,3.6031143143773106
5.3876216457294595,1.9885128643542958,1.7723172301746288,3.5734983528548727
5.407506774373003,2.079356718161388,1.8080522137031776,3.540283097176224
5.428300341554617,2.1658046373878794,1.8434550446749398,3.5034599509248663
5.449958387928495,2.2478109907791843,1.8784896441841885,3.4630440954004715
