th1 (rad),w1 (rad/s),th2 (rad),w2 (rad/s),a1 (rad/s^2),a2 (rad/s^2)
3.860677294241014,0.80141641845164,4.422492391236129,0.25627696839073794,4.1185894656432875,5.563409255562546
3.8686914584255305,0.8426023131080729,4.425055160920036,0.3119110609463634,4.235848279754071,5.426284977417805
3.877117481556611,0.8849607959056136,4.4281742715295,0.36617391072054145,4.360831078121273,5.281489699526547
3.8859670895156673,0.9285691066868264,4.431836010636705,0.41898880771580693,4.493484506642574,5.128727001709787
3.8952527805825357,0.9735039517532521,4.436025898713863,0.4702760777329048,4.633766908943769,4.967671663586563
3.904987820100068,1.0198416208426897,4.440728659491192,0.5199527943687704,4.781647113018308,4.797971319768856
3.915186236308495,1.0676580919728729,4.44592818743488,0.567932507566459,4.937103041195555,4.619248681386632
3.9258628172282237,1.1170291223848283,4.451607512510545,0.6141249943803253,5.100120140208386,4.4311044138553894
3.937033108452072,1.1680303237869123,4.457748762454348,0.6584360385188792,5.270689614994488,4.233120787413423
3.9487134116899414,1.2207372199368571,4.464333122839537,0.7007672463930135,5.44880643251169,4.024866250130483
3.96092078388931,1.275225284261974,4.471340795303467,0.7410159088943183,5.634467039275684,3.805901114119248
3.9736730367319297,1.3315699546547308,4.47875095439241,0.7790749200355108,5.827666707263431,3.575784596194536
3.986988736278477,1.389846621727365,4.486541703592765,0.8148327659974561,6.028396385662935,3.3340835162454296
4.0008872024957505,1.4501305855839943,4.49469003125274,0.8481736011599105,6.23663888870295,3.080383032586135
4.015388508351591,1.512496974471024,4.503171767264339,0.8789774314857718,6.452364190045747,2.8142998865000903
4.030513478096301,1.5770206163714815,4.511961541579197,0.9071204303507727,6.675523519089391,2.5354987415587593
4.046283684260016,1.6437758515623755,4.521032745882705,0.9324754177663603,6.906041860664919,2.243712340993983
4.062721442775639,1.7128362701690247,4.530357500060369,0.9549125411763002,7.143808343314702,1.9387663726020836
4.07984980547733,1.7842743536021717,4.539906625472131,0.974300204902321,7.3886638587301245,1.62061012939009
4.097692549013352,1.8581609921894728,4.549649627521155,0.9905063061962219,7.64038508242038,1.2893542885773401
4.116274158935246,1.9345648430136766,4.559554690583117,1.0033998490819953,7.898663860783267,0.945317402566484
4.135619807365383,2.0135514816215094,4.569588689073937,1.0128530231076602,8.163080692441357,0.5890829996094376
4.155755322181598,2.095182288545923,4.579717219305014,1.0187438531037547,8.433070766748193,0.22156951767864339
4.176707145067057,2.179512996213405,4.589904657836051,1.0209595482805411,8.707880742890193,-0.15588438236774105
4.198502275029192,2.266591803642307,4.600114253318856,1.0194007044568638,8.986514186013029,-0.5414163054483201
4.221168193065615,2.3564569455024373,4.610308260363425,1.0139865414023805,9.267663371233601,-0.9325154511214618
4.244732762520639,2.4491335792147733,4.620448125777449,1.004661386891166,9.54962510447434,-1.3258739388252945
4.269224098312787,2.5446298302595167,4.63049473964636,0.9914026475029131,9.830198421239636,-1.7172118664448046
4.294670396615382,2.642931814471913,4.640408766121389,0.9742305288384651,10.106562707565269,-2.1010751829148724
4.321099714760101,2.743997441547566,4.650151071409774,0.9532197770093164,10.375136223203699,-2.4706079854962786
4.348539689175577,2.847748803779603,4.659683269179867,0.9285136971543536,10.631417574741429,-2.8173051298648093
4.377017177213372,2.9540629795270172,4.668968406151411,0.9003406458557055,10.869816854126006,-3.130757749348675
4.406557807008642,3.0627611480682773,4.677971812609968,0.8690330683622187,11.083489430042341,-3.3984141379845303
4.437185418489325,3.173596042368701,4.68666214329359,0.8350489269823734,11.264194156802553,-3.6053920041903447
4.468921378913012,3.2862379839367266,4.695012632563414,0.79899500694047,11.402209070366144,-3.734395301440697
4.50178375875238,3.400260074640388,4.703002582632819,0.761651053926063,11.486350656197377,-3.7658083675037926
4.5357863594987835,3.515123581202362,4.710619093172079,0.723992970251025,11.504155191809277,-3.678058400721342
4.570937595310808,3.6301651331204545,4.717859022874589,0.6872123862438116,11.442287983310264,-3.4483475517944893
4.6072392466420125,3.744588012953557,4.724731146737027,0.6527289107258667,11.287241443458894,-3.0538474849482253
4.644685126771548,3.857460427388146,4.7312584358442855,0.6221904358763845,11.02635690163761,-2.4734087451535043
4.683259731045429,3.967723996404522,4.737480340203049,0.5974563484248494,10.649149594878196,-1.6897524661206096
4.722936971009474,4.074215492353304,4.743454903687298,0.5805588237636433,10.148829477700431,-0.6919798917937717
4.763679125933008,4.175703787130308,4.749260491924934,0.5736390248457056,9.523803830109085,0.5219271328461635
4.805436163804311,4.270941825431398,4.7549968821733914,0.5788582961741673,8.77885167114684,1.9430889561032327
4.848145582058625,4.3587303421428665,4.760785465135133,0.5982891857351996,7.925621454544943,3.5507315455243718
4.891732885480054,4.437986556688316,4.766768356992485,0.6337965011904434,6.982168564833782,5.3126574984590125
4.936112751046937,4.507808242336655,4.77310632200439,0.6869230761750336,5.971434472329262,7.187360999099514
4.981190833470304,4.567522587059948,4.77997555276614,0.7587966861660287,4.918837004621026,9.127565800904083
5.026866059340904,4.616710957106158,4.7875635196278,0.8500723441750695,3.8493992509222195,11.08457486973259
5.073033168911965,4.6552049496153804,4.796064243069551,0.9609180928723954,2.784986303041328,13.012594908724573
5.119585218408119,4.683054812645794,4.805673423998274,1.0910440419596412,1.742181103404397,14.872235879377094
5.166415766534577,4.700476623679838,4.816583864417871,1.2397664007534122,0.7311317545649629,16.632663492484163
5.213420532771376,4.7077879412254875,4.828981528425405,1.4060930356782537,-0.24456831159388326,18.2722755932006
5.2604984121836305,4.705342258109549,4.843042458782188,1.5888157916102597,-1.1871422553292688,19.77812574997684
5.307551834764726,4.693470835556256,4.858930616698291,1.786597049110028,-2.1033406181412233,21.14452336066896
5.354486543120289,4.672437429374844,4.876796587189391,1.9980422827167177,-3.0029240723187653,22.371277735457973
5.401210917414037,4.642408188651656,4.896777010016558,2.221755060071297,-3.897175897805314,23.461968762934433
5.447634999300553,4.603436429673603,4.918994560617271,2.4563747477006417,-4.7976035242062816,24.422487525625055
5.49366936359729,4.55546039443154,4.9435583080942775,2.7005996229568923,-5.714895790991392,25.259953455734987
5.539223967541605,4.498311436521626,4.9705643043238465,2.9531991575142422,-6.658135384872803,25.982010795768726
5.584207081906821,4.431730082672898,5.000096295898989,3.2130192654719294,-7.6342273683113815,26.59644302342322
5.62852438273355,4.355387808989784,5.032226488553708,3.4789836957061615,-8.647488580475839,27.111012384364
5.672078260823448,4.268912923185026,5.06701632551077,3.7500938195498015,-9.69933982697119,27.533420901733397
5.714767390055298,4.171919524915314,5.104517263706268,4.025428028567135,-10.788044915415062,27.871288147305357
5.756486585304452,4.064039075761163,5.144771543991939,4.304140910040188,-11.908441735062793,28.132041487838183
5.797126976062064,3.944954658410535,5.187812953092341,4.58546132491857,-13.051606973765853,28.322611193885734
5.836576522646169,3.8144385886728767,5.233667566341527,4.868687436857427,-14.204385818440004,28.448812711099137
5.874720908532898,3.6723947304884765,5.282354440710101,5.153175563968419,-15.348700895292568,28.514280421717057
5.911444855837782,3.518907721535551,5.333886196349785,5.438318368185589,-16.4605328768529,28.518792754206746
5.946633933053138,3.3543023927670217,5.388269380031641,5.723506295727657,-17.508444993350388,28.45580393356739
5.9801769569808085,3.179217942833518,5.445504442988917,6.008064335063331,-18.451520030954605,28.308990098048948
6.011969136409144,2.994702742523972,5.505585086339551,6.291154236043821,-19.23662241134804,28.047665379109162
6.041916163834384,2.8023365184104914,5.568496628699989,6.571630889834912,-19.795048947369263,27.621103590340446
6.069939529018489,2.6043860289367986,5.634212937598337,6.847841925738317,-20.038990842134673,26.952248623580534
6.095983389307857,2.403996120515452,5.702691356855721,7.117364411974123,-19.858939847600723,25.932210217798747
6.120023350513012,2.2054067220394447,5.773865000975462,7.3766865141521105,-19.124365166864326,24.41851740422498
6.1420774177334065,2.0141630703708016,5.847631866116983,7.62087168819436,-17.691589700464647,22.242276590506272
6.162219048437114,1.837247173366155,5.923840582998927,7.843294454099423,-15.424083487787986,19.231242284004516
6.1805915201707755,1.6830063384882752,6.002273527539921,8.035606876939468,-12.229413272396727,15.254783479512586
6.197421583555658,1.560712205764308,6.0826295963093155,8.188154711734594,-8.110731632839853,10.288647704781686
6.213028705613302,1.4796048894359093,6.164511143426662,8.29104118878241,-3.217308985744602,4.479976344497547
6.227824754507661,1.4474317995784634,6.247421555314486,8.335840952227386,2.1360165656160395,-1.8262501903698654
6.242299072503445,1.4687919652346237,6.3307799648367595,8.317578450323687,7.5101324859933225,-8.137640578471299
6.256986992155792,1.543893290094557,6.413955749339997,8.236202044538974,12.443864430776243,-13.941393587167523
6.272425925056737,1.6683319344023195,6.496317769785387,8.0967881086673,16.573200499141798,-18.850438384600608
6.28910924440076,1.8340639393937375,6.57728565087206,7.908283724821294,19.70679122742177,-22.690974262650492
6.307449883794697,2.031131851667955,6.656368488120273,7.681373982194788,21.828365132064047,-25.496382154124703
6.327761202311376,2.2494155029885956,6.733182227942221,7.426410160653542,23.044885601204165,-27.435061386824145
6.350255357341262,2.4798643590006373,6.807446329548756,7.1520595467853,23.520784443922892,-28.725395719039067
6.375054000931269,2.715072203439866,6.878966925016609,6.864805589594909,23.427409751200155,-29.57413567906013
6.402204722965667,2.9493463009518677,6.947614980912558,6.569064232804308,22.915768926896,-30.146389699544365
6.431698185975185,3.1785039902208276,7.013305623240601,6.267600335808865,22.10754547333465,-30.559039384571506
6.463483225877393,3.399579444954174,7.07598162659869,5.96200994196315,21.096274770083507,-30.886350522602097
6.497479020326935,3.610542192655009,7.135601726018321,5.65314643673713,19.952478057130854,-31.16969995019481
6.533584442253485,3.8100669732263177,7.192133190385692,5.341449437235181,18.72932032148973,-31.427197362008865
6.571685111985748,3.997360176441215,7.245547684758044,5.027177463615093,17.46735263474382,-31.661591652673774
6.611658713750161,4.172033702788653,7.295819459394195,4.710561547088355,16.197979443491594,-31.866177790440698
6.653379050778047,4.334013497223569,7.342925074865079,4.391899769183948,14.945757285066662,-32.028938525668934
6.696719185750283,4.483471070074235,7.386844072556918,4.071610383927259,13.729774428714219,-32.13527640046924
6.741553896451025,4.620768814361377,7.427560176396191,3.750257619922566,12.564362334760151,-32.16965696815409
6.787761584594639,4.746412437708979,7.465062752595417,3.4285610502410253,11.4593419617845,-32.116409330717914
6.835225708971729,4.861005857326823,7.499348363097827,3.107396956933846,10.419951945206558,-31.959861388921297
6.883835767544997,4.965205376778889,7.5304223326671655,2.787798343044633,9.446558159131913,-31.683939578269193
6.933487821312785,5.059670958370209,7.558300316097612,2.4709589472619413,8.534212285540912,-31.271340396335138
6.984084530896487,5.145013081225618,7.583009905570232,2.15824554329859,7.672115851554526,-30.702386768301615
7.035534661708743,5.2217342397411635,7.604592361003218,1.851221675615574,6.843062296279142,-29.953722761103876
7.087752004106155,5.290164862703955,7.623104577759373,1.551684448004535,6.022981949314732,-28.997086312710383
7.140653652733194,5.350394682197103,7.638621422239419,1.2617135848774312,5.1808127941176085,-27.79854374347978
7.194157599555165,5.402202810138279,7.651238558088194,0.9837281474426334,4.279066317470439,-26.318774638533
7.2481796276565476,5.444993473312984,7.66107583956262,0.7205404010573033,3.275632378623753,-24.51523078551256
7.3026295623896775,5.4777497970992215,7.668281243573193,0.4753880932021777,2.1274986817149,-22.347154555995743
7.35740706036067,5.49902478391637,7.673035124505215,0.25191654764222027,0.7969951437234158,-19.784308994219717
7.412397308199833,5.506994735353604,7.675554289981637,0.054073457700023086,-0.7393264553549194,-16.819505850138025
7.467467255553369,5.499601470800055,7.676095024558637,-0.11412160080135716,-2.4802196931520535,-13.483315907410645
7.522463270261369,5.474799273868535,7.674953808550623,-0.24895475987546362,-4.390443526036119,-9.856843957803413
7.577211263000054,5.4308948386081735,7.672464260951869,-0.34752319945349774,-6.396942333889131,-6.07625512787337
7.631520211386135,5.366925415269282,7.668989028957334,-0.40828575073223144,-8.39471402058726,-2.3229617276489036
7.685189465538828,5.282978275063409,7.664906171450012,-0.4315153680087205,-10.263587111539445,1.2021924327383275
7.738019248289462,5.180342403948015,7.660591017769924,-0.41949344368133723,-11.891893530983808,4.314738191518671
7.789822672328943,5.061423468638177,7.656396083333111,-0.3763460617661505,-13.1987176885623,6.880070918338847
7.840436907015325,4.929436291752554,7.6526326227154495,-0.307545352582762,-14.146534539194313,8.832513969005063
7.889731269932851,4.787970946360611,7.649557169189622,-0.21922021289271137,-14.740921801175496,10.174992633141317
7.937610979396457,4.640561728348856,7.647364967060695,-0.11747028656129821,-15.020098607924293,10.963304671526219
7.984016596679945,4.490360742269613,7.6461902641950825,-0.007837239846036015,-15.040317007394211,11.283884702204785
8.028920204102642,4.3399575721956705,7.646111891796622,0.10500160717601184,-14.862569541508172,11.233240730588602
8.072319779824598,4.1913318767805885,7.647161907868382,0.21733401448189787,-14.543436470961085,10.903409731853003
8.114233098592404,4.045897512070978,7.649335248013201,0.3263681118004279,-14.130375894085043,10.374046183391116
8.154692073713115,3.9045937531301274,7.652598929131205,0.4301085736343391,-13.660393438910015,9.709677477829123
8.193738011244417,3.767989818741027,7.656900014867548,0.5272053484126303,-13.160726875708512,8.960146146494287
8.231417909431826,3.6363825499839417,7.6621720683516745,0.6168068098775732,-12.650441817305147,8.162594806253763
8.267781734931665,3.5098781318108903,7.668340136450451,0.6984327579401108,-12.142238132799388,7.343921611998269
8.302880516249774,3.3884557504828963,7.675324464029852,0.7718719740600936,-11.644105578165064,6.523129344193501
8.336765073754602,3.2720146947012454,7.683043183770453,0.8371032675020286,-11.160688534248054,5.713323224827622
8.369485220701614,3.1604078093587646,7.691414216445473,0.8942364997503048,-10.694340737899468,4.923299829168948
8.401089298795203,3.05346440197977,7.700356581442976,0.9434694980419943,-10.24590555876388,4.158758709508319
8.431623942815,2.951005346392131,7.709791276423395,0.9850570851370775,-9.815274782220898,3.4232010128942485
8.461133996278921,2.852852598569922,7.719641847274766,1.0192890952660199,-9.401778214062345,2.718583535075967
8.48966252226462,2.7588348164292986,7.729834738227426,1.0464749306167795,-9.004448649339514,2.045788678738456
8.517250870428914,2.6687903299359035,7.740299487533594,1.0669328174041641,-8.622197340035491,1.4049591745565246
8.543938773728273,2.5825683565355484,7.750968815707636,1.0809824091497293,-8.253926445172288,0.7957350754417966
8.569764457293628,2.5000290920838255,7.761778639799133,1.0889397599041473,-7.898597850767222,0.21742091474121938
8.594764748214466,2.4210431135761534,7.772668037398175,1.0911139690515594,-7.555272271866259,-0.3308966670822559
8.618975179350228,2.3454903908574907,7.78357917708869,1.0878050023807369,-7.223128476684683,-0.850266257636411
8.642430083258803,2.2732591060906437,7.794457227112497,1.0793023398043728,-6.901469514105227,-1.3418136208249796
8.66516267431971,2.2042444109495913,7.805250250510541,1.0658842035961231,-6.589720708826434,-1.8067009609811202
8.687205118429207,2.138347203861327,7.8159090925465025,1.047817193986312,-6.287422689493709,-2.2460983852525165
8.70858859046782,2.07547297696639,7.826387264486366,1.0253562101337867,-5.994221661493601,-2.6611639894861154
8.729343320237483,2.015530760351454,7.836640826587703,0.9987445702389256,-5.709858399517231,-3.053030077945128
8.749498627840998,1.9584321763562815,7.846628272290093,0.9682142694594743,-5.4341569225170065,-3.4227937863219844
8.769082949604561,1.9040906071311114,7.856310414984687,0.9339863315962544,-5.167013458869946,-3.771510906245272
8.788123855675872,1.852420472542412,7.86565027830065,0.8962712225338018,-4.908386065427201,-4.100192076231551
8.806648060401296,1.80333661188814,7.874612990525987,0.8552693017714863,-4.658285097614918,-4.40980075738186
8.824681426520177,1.7567537609119908,7.8831656835437025,0.8111712941976676,-4.416764615677526,-4.701252586345405
8.842248964129297,1.7125861147552155,7.8912773964856795,0.7641587683342136,-4.183914738292023,-4.97541581724156
8.859374825276848,1.6707469673722952,7.898918984169022,0.714404610161798,-3.9598549077673377,-5.233112645177499
8.87608229495057,1.6311484182946219,7.90606303027064,0.6620734837100231,-3.7447280029121193,-5.4751212584492155
8.892393779133517,1.5937011382655006,7.91268376510774,0.6073222711255309,-3.538695220810461,-5.702178502608742
8.908330790516173,1.5583141860573961,7.918756987818996,0.5503004860994435,-3.3419316432422526,-5.914983062958207
8.923913932376747,1.5248948696249736,7.92425999267999,0.4911506554698614,-3.1546224045206497,-6.114199086594095
8.939162881072997,1.493348645579767,7.9291714992346884,0.43000866460392045,-2.976959383083825,-6.300460173585468
8.954096367528795,1.4635790517489289,7.933471585880728,0.36700406286806575,-2.8091383478054,-6.474373671133595
8.968732158046285,1.4354876682708748,7.937141626509408,0.3022603261567298,-2.6513565005809214,-6.63652520599869
8.983087034728994,1.4089741032650656,7.940164229770976,0.23589507409674293,-2.5038103684584523,-6.787483390113919
8.997176775761645,1.383935999580481,7.942523180511944,0.16802024019560374,-2.366694010726374,-6.9278046329389324
9.01101613575745,1.3602690594732172,7.9442033829139,0.09874219386621441,-2.240197518378184,-7.058037992395311
9.024618826352182,1.3378670842894353,7.945190804852562,0.02816181394226129,-2.124505794746096,-7.178729994743564
9.037997497195075,1.3166220263419743,7.945472422991984,-0.04362548600517435,-2.0197976163953575,-7.2904293530054405
9.051163717458495,1.2964240501780209,7.945036168131932,-0.11652977953522876,-1.926244982216276,-7.393691513940254
9.064127957960276,1.2771616003558581,7.94387087033658,-0.19046669467463131,-1.8440127657151575,-7.4890829655099145
9.076899573963834,1.2587214726987066,7.941966203389834,-0.2653575243297305,-1.7732586905281944,-7.577185240483838
9.08948678869082,1.2409888857934246,7.939312628146537,-0.3411293767345689,-1.7141336519824018,-7.658598557499537
9.101896677548755,1.2238475492736005,7.935901334379191,-0.41771536230956424,-1.6667824080102356,-7.733945048535937
9.114135153041492,1.2071797251934981,7.931724180756095,-0.49505481279492364,-1.6313446608919704,-7.803871531258035
9.126206950293426,1.1908662785845785,7.926773632628146,-0.573093528107504,-1.607956547252484,-7.869051795786162
9.138115613079272,1.1747867131120537,7.921042697347072,-0.6517840460653657,-1.5967525476705782,-7.93018838771579
9.149863480210392,1.158819187635348,7.914524856886418,-0.7310859299425235,-1.5978678194430636,-7.988013882115428
9.161451672086745,1.1428405094409173,7.907213997586993,-0.8109660687636778,-1.6114409468153423,-8.043291656100877
9.172880077181155,1.126726099972764,7.899104336899356,-0.8913989853246866,-1.637617092709447,-8.096816179685769
9.184147338180882,1.1103499290456695,7.890190347046109,-0.9723671471215444,-1.676551525009097,-8.149412855161449
