th1 (rad),w1 (rad/s),th2 (rad),w2 (rad/s),a1 (rad/s^2),a2 (rad/s^2)
1.9527638009147892,-2.97064309596763,1.4354754970708685,2.6601734026315094,-13.691754474495688,6.554007472684826
1.9230573699551128,-3.1075606407125873,1.4620772310971837,2.7257134773583576,-14.04437638877392,7.131897936651019
1.891981763547987,-3.2480044046003265,1.4893343658707672,2.797032456724868,-14.286548843230506,7.5103980170355396
1.8595017195019836,-3.3908698930326313,1.5173046904380159,2.8721364368952234,-14.356333384669899,7.596206502142922
1.8255930205716573,-3.5344332268793304,1.5460260548069682,2.9480985019166526,-14.18223832113603,7.28171538219065
1.7902486883028639,-3.6762556100906907,1.5755070398261348,3.020915655738559,-13.691876881502399,6.457451805129451
1.753486132201957,-3.813174378905715,1.6057161963835205,3.0854901737898537,-12.827637924707991,5.034623206148813
1.7153543884128999,-3.941450758152795,1.636571098121419,3.1358364058513417,-11.568190571685767,2.976135109888126
1.675939880831372,-4.057132663869653,1.6679294621799323,3.165597756950223,-9.949748127375173,0.32747600365376617
1.6353685541926755,-4.156630145143405,1.6995854397494345,3.1688725169867604,-8.07621680329649,-2.768017213640569
1.5938022527412414,-4.23739231317637,1.7312741649193022,3.1411923448503547,-6.107727001584636,-6.084584506134222
1.5514283296094777,-4.298469583192216,1.7626860883678057,3.0803464997890124,-4.226321998137369,-9.362170708440953
1.5084436337775555,-4.34073280317359,1.7934895533656958,2.986724792704603,-2.5916024397529234,-12.36936055257394
1.4650363057458196,-4.366648827571119,1.823356801292742,2.8630311871788634,-1.306369443502155,-14.952755545520045
1.4213698174701084,-4.37971252200614,1.8519871131645305,2.713503631723663,-0.4055901235506107,-17.05367643033315
1.377572692250047,-4.383768423241646,1.8791221494817671,2.5429668674203314,0.13250252877761665,-18.693489270591456
1.3337350080176307,-4.38244339795387,1.9045518181559704,2.356031974714417,0.36436941687971486,-19.943100389595955
1.289910574038092,-4.378799703785073,1.9281121379031145,2.1566009708184573,0.3596693276976765,-20.89277811638231
1.2461225770002413,-4.375203010508096,1.9496781476112992,1.9476731896546342,0.18634541305913618,-21.630921738818635
1.2023705468951604,-4.373339556377505,1.9691548795078455,1.7313639722664478,-0.09699436118124254,-22.23292863953478
1.1586371513313853,-4.374309499989317,1.98646851923051,1.5090346858711,-0.44334553761547363,-22.757541741349858
1.1148940563314922,-4.378742955365472,2.001558866089221,1.2814592684576014,-0.8165728873009576,-23.247440130589478
1.0711066267778375,-4.386908684238482,2.014373458773797,1.0489848671517066,-1.1894264523985623,-23.73163673190143
1.0272375399354527,-4.398802948762468,2.0248633074453144,0.8116684998326923,-1.541324488062207,-24.228262296165212
0.983249510447828,-4.41421619364309,2.032979992443641,0.5693858768710401,-1.8563761873230753,-24.747072178514077
0.9391073485113971,-4.43277995551632,2.0386738512123515,0.32191515508589935,-2.1218009852323187,-25.29145697456097
0.8947795489562339,-4.453997965368644,2.0418930027632105,0.06900058534028963,-2.326748706377952,-25.859956110330604
0.8502395693025475,-4.477265452432423,2.0425830086166132,-0.18959897576301643,-2.46146665644431,-26.447359811484283
0.8054669147782233,-4.5018801189968665,2.040687018858983,-0.45407257387785926,-2.5167480011317136,-27.04550561978769
0.7604481135882546,-4.527047599008184,2.0361462931202046,-0.7245276300757362,-2.4836030475038413,-27.64386851749554
0.7151776375981728,-4.551883629483222,2.028901016819447,-1.0009663152506916,-2.353107645911638,-28.230027512056928
0.6696588013033405,-4.575414705942339,2.01889135366694,-1.2832665903712608,-2.11639482667128,-28.79007429172919
0.6239046542439172,-4.596578654209051,2.0060586877632276,-1.5711673332885527,-1.7647647654036884,-29.309014020597285
0.5779388677018267,-4.614226301863089,1.9903470144303421,-1.8642574734945256,-1.2898937620825723,-29.771194871152797
0.5317966046831958,-4.627125239483915,1.9717044396953969,-2.1619694222060537,-0.6841253610690875,-30.160791012782063
0.48552535228835664,-4.633966493094606,1.9500847454733363,-2.463577332333874,0.05917346610332203,-30.462352861431285
0.4391856873574106,-4.633374758433573,1.9254489721499977,-2.7682008609481867,0.94521041469593,-30.661427989959886
0.39285193977307487,-4.623922654286614,1.8977669635405159,-3.0748151408477855,1.9773432403558338,-30.74524601532454
0.3466127132302087,-4.6041492218830555,1.8670188121320381,-3.382267601001031,3.1566599115786937,-30.703451121130065
0.3005712210113781,-4.572582622767269,1.833196136122028,-3.6893021122123315,4.481595463336115,-30.52885700007562
0.25484539478370544,-4.527766668133907,1.7963031149999047,-3.994590682213088,5.947621283490466,-30.218191466808218
0.20956772810236637,-4.468290455299003,1.7563572081777739,-4.29677259688117,7.547044896857969,-29.77279249042026
0.16488482354937634,-4.392820006330423,1.7133894822089621,-4.594500521785372,9.268958429012056,-29.19921469602202
0.12095662348607211,-4.3001304220403025,1.6674444769911083,-4.886492668745593,11.09937112057019,-28.509706270330778
0.07795531926566909,-4.1891367108346005,1.6185795503036524,-5.1715897314489006,13.02155493518131,-27.722521399566485
0.03606395215732309,-4.058921161482788,1.5668636529891633,-5.448814945444566,15.016622117844394,-26.8620434135269
-0.004525259457504788,-3.908754940304344,1.5123755035347177,-5.717435379579835,17.064339570609768,-25.95870889331744
-0.043612808860548226,-3.738111544598246,1.4552011497389195,-5.97702246851301,19.14416772288436,-25.04874269820596
-0.08099392430653068,-3.5466698673694026,1.3954309250537893,-6.22750989549507,21.236492388362684,-24.173736844700255
-0.11646062298022472,-3.3343049434857757,1.3331558260988385,-6.469247263942072,23.323998560995356,-23.3801298622724
-0.14980367241508247,-3.1010649578758223,1.2684633534594179,-6.7030485625647955,25.39311673724829,-22.718663514405286
-0.18081432199384068,-2.847133790503339,1.2014328678337698,-6.930235197708848,27.43545546143936,-22.24390438316111
-0.20928565989887407,-2.5727792358889454,1.1321305158566812,-7.152674241540459,29.449115506929928,-22.01390932609061
-0.23501345225776352,-2.278288080819646,1.0606037734412765,-7.372813334801365,31.439752145036554,-22.090070802886295
-0.25779633306595995,-1.9638905593692804,0.9868756400932629,-7.5937140428302285,33.421190977002055,-22.537072702546347
-0.27743523865965275,-1.62967864959926,0.9109384996649607,-7.819084769855692,35.41526596894923,-23.422665319990703
-0.29373202515564534,-1.2755259899097675,0.8327476519664038,-8.053311423055598,37.450249063316534,-24.81651986348586
-0.306487285054743,-0.9010234992766022,0.7522145377358478,-8.301476621690457,39.55661065076497,-26.786526124547347
-0.31549752004750903,-0.5054573927689525,0.6691997715189433,-8.56934188293593,41.757568032590704,-29.38911229643812
-0.32055209397519857,-0.08788171244304549,0.583506352689584,-8.86323300590031,44.04936365038556,-32.64667498439995
-0.321430911099629,0.3526119240608101,0.49487402263058083,-9.18969975574431,46.36155997839702,-36.49869194572763
-0.31790479185902093,0.8162275238447803,0.4029770250731377,-9.554686675201587,48.4800514220725,-40.702273436852025
-0.3097425166205731,1.3010280380655053,0.30743015832112186,-9.961709409570108,49.90712165587389,-44.64533982288656
-0.29673223623991807,1.8000992546242442,0.20781306422542078,-10.408162807798973,49.63981715694906,-47.04277688445149
-0.27873124369367563,2.296497426193735,0.10373143614743105,-10.878590576643488,45.92956527639138,-45.594078037078695
-0.2557662694317383,2.755793078957649,-0.005054469619003826,-11.334531357014274,36.3701522943156,-37.06766563600464
-0.2282083386421618,3.119494601900805,-0.11839978318914657,-11.705208013374321,19.128663599453844,-18.92227267134828
-0.19701339262315376,3.310781237895344,-0.23545186332288978,-11.894430740087804,-4.299357318790126,7.003579898075825
-0.16390558024420032,3.2677876647074426,-0.35439617072376783,-11.824394941107046,-27.609536583765784,32.53281879944139
-0.13122770359712588,2.991692298869785,-0.4726401201348383,-11.499066753112633,-43.82275245307836,48.751458002263995
-0.10131078060842802,2.5534647743390013,-0.5876307876659647,-11.011552173089992,-51.03754351662332,53.60059318122148
-0.07577613286503801,2.0430893391727682,-0.6977463093968646,-10.475546241277778,-51.92146157639733,50.926718958367594
-0.055345239473310326,1.5238747234087948,-0.8025017718096423,-9.966279051694102,-49.76171854766943,45.131606126668906
-0.04010649223922238,1.0262575379321004,-0.9021645623265834,-9.514962990427412,-46.60862826774782,38.82580340311319
-0.029843916859901374,0.5601712552546222,-0.9973141922308575,-9.12670495639628,-43.397057152758194,33.11337307900887
-0.02424220430735515,0.12620068372704024,-1.0885812417948202,-8.79557122560619,-40.45689162406181,28.321354407400364
-0.02298019747008475,-0.2783682325135779,-1.176536954050882,-8.512357681532187,-37.852505194473444,24.458286093610283
-0.025763879795220528,-0.6568932844583124,-1.2616605308662039,-8.267774820596085,-35.54797533932496,21.426694890142603
-0.03233281263980365,-1.012373037851562,-1.3443382790721647,-8.05350787169466,-33.477760291586456,19.107910337849905
-0.04245654301831927,-1.3471506407674267,-1.4248733577891113,-7.86242876831616,-31.574558449290492,17.391438732251444
-0.05592804942599354,-1.6628962252603317,-1.5034976454722728,-7.688514380993646,-29.779225142403163,16.182387985159853
-0.07255701167859685,-1.9606884766843633,-1.5803827892822093,-7.526690501142047,-28.043542728647346,15.400980087972256
-0.09216389644544049,-2.241123903970837,-1.6556496942936298,-7.3726807002623245,-26.330310427610712,14.979729624075276
-0.11457513548514886,-2.504427008246944,-1.7293765012962532,-7.222883404021572,-24.612528511583562,14.860391448478591
-0.13961940556761832,-2.7505522933627797,-1.801605335336469,-7.074279489536786,-22.87233667651226,14.991394153865343
-0.1671249285012461,-2.9792756601279025,-1.8723481302318368,-6.924365547998133,-21.099918324804953,15.325937052787058
-0.19691768510252514,-3.190274843375952,-1.9415917857118181,-6.771106177470262,-19.292414607500106,15.82072648542492
-0.22882043353628465,-3.383198989450953,-2.009302847486521,-6.6128989126160125,-17.45284123060173,16.435256385402496
-0.2626524234307942,-3.55772740175697,-2.075431836612681,-6.448546348761988,-15.588997417685688,17.131517020174105
-0.2982296974483639,-3.713617375933827,-2.1399173001003007,-6.277231178560246,-13.71236929972882,17.874014061591467
-0.33536587120770217,-3.8507410689311152,-2.202689611885903,-6.098491037944331,-11.837045367436128,18.62998702275339
-0.3738732818970133,-3.9691115226054765,-2.2636745222653465,-5.912191167716798,-9.978673098580897,19.369728279146553
-0.4135643971230681,-4.068898253591286,-2.3227964339425147,-5.718493884925333,-8.153491013405842,20.06692006985996
-0.45425337965898094,-4.150433163725344,-2.379981372791768,-5.517824684226733,-6.377469065261873,20.698925809666115
-0.49575771129623436,-4.214207854377963,-2.4351596196340353,-5.310835426130072,-4.665583694814116,21.24699209022522
-0.537899789840014,-4.260863691326104,-2.488267973895336,-5.09836550522782,-3.031244045940124,21.696337045297707
-0.580508426753275,-4.291176131785505,-2.539251628947614,-4.881402134774842,-1.4858748939771378,22.036117615053662
-0.62342018807113,-4.306034880725277,-2.5880656502953627,-4.661040958624306,-0.03865160815267154,22.259281504599
-0.6664805368783827,-4.306421396806804,-2.6346760598816057,-4.438448143578316,1.3036257774426354,22.362318814990527
-0.7095447508464507,-4.293385139032377,-2.679060541317389,-4.21482495542841,2.5365379693732977,22.34493360712193
-0.7524786022367745,-4.268019759338644,-2.721208790871673,-3.991375619357191,3.6579529238413664,22.209657686618844
-0.795158799830161,-4.2314402301002305,-2.761122547065245,-3.7692790424910028,4.667855882303364,21.961428545124964
-0.8374732021311633,-4.1847616712771964,-2.798815337490155,-3.549664757039753,5.568124477154375,21.607151535960174
-0.8793208188439352,-4.129080426505653,-2.8343119850605527,-3.3335932416801515,6.362268489659989,21.155263723433325
-0.9206116231089917,-4.065457741609054,-2.8676479174773544,-3.122040604445818,7.05515130484624,20.61531392836977
-0.9612662005250823,-3.994906228560591,-2.8988683235218127,-2.9158874651621205,7.652707361032525,19.997570587631603
-1.0012152628106883,-3.918379154950266,-2.928027198173434,-2.7159117592858046,8.161667164401853,19.312666281886134
-1.0403990543601909,-3.8367624833062473,-2.9551863157662916,-2.522785096466943,8.589298854157951,18.57128520012185
-1.0787666791932533,-3.7508694947646677,-2.980414166730961,-2.3370722444657246,8.94317291753679,17.783897404476523
-1.1162753741409,-3.6614377655893,-3.0037848891756185,-2.1592332704209594,9.23095449053886,16.96054154276331
-1.1528897517967929,-3.5691282206839112,-3.025377221879828,-1.9896278549933262,9.460225754913182,16.110655656655997
-1.188581034003632,-3.4745259631347793,-3.0452735004297615,-1.8285212984267663,9.638339270581112,15.242953996006985
-1.2233262936349798,-3.378142570428968,-3.063558713414029,-1.6760917584666963,9.772301682293492,14.365346323803736
-1.2571077193392695,-3.280419553606033,-3.080319630998696,-1.532438295228659,9.868686123154177,13.484895121025698
-1.2899119148753297,-3.1817326923744913,-3.0956440139509827,-1.3975893440184022,9.933570809766625,12.607805393764158
-1.3217292417990747,-3.082396984276825,-3.1096199073911666,-1.2715112900807606,9.97250077526263,11.739441437431955
-1.352553211641843,-2.9826719765241987,-3.122335020291974,-1.154116875706441,9.990469394708647,10.884364890354716
-1.382379931407085,-2.8827672825771122,-3.1338761890490385,-1.045273226802894,9.991916287951478,10.046388657592395
-1.411207604232856,-2.7828481196975976,-3.1443289213170673,-0.9448093402269699,9.98073829553143,9.22864174024193
-1.439036085429832,-2.6830407367422833,-3.153777014719337,-0.8525229228245507,9.960310468159683,8.433640597575895
-1.465866492797255,-2.5834376320606864,-3.1623022439475825,-0.7681865168487917,9.933514344661766,7.663363335276303
-1.4917008691178617,-2.484102488614069,-3.1699841091160703,-0.6915528834960286,9.902771176796012,6.9193236980751855
-1.5165418940040023,-2.3850747768461087,-3.176899637951031,-0.6223596465152768,9.870078158059783,6.202642506614022
-1.5403926417724634,-2.2863739952655107,-3.1831232344161835,-0.5603332214491366,9.837046101141143,5.514114786196111
-1.5632563817251184,-2.1880035342540993,-3.1887265666306748,-0.5051920735871754,9.804937366279768,4.8542713709961935
-1.5851364170676594,-2.0899541605913017,-3.1937784873665467,-0.4566493598772135,9.774703158594317,4.223434222810515
-1.6060359586735724,-1.9922071290053585,-3.198344980965319,-0.4144150176491084,9.747019580363284,3.621765077858197
-1.625958029963626,-1.8947369332017256,-3.2024891311418098,-0.3781973668705264,9.72232204283941,3.0493073331427434
-1.6449053992956433,-1.7975137127733316,-3.206271104810515,-0.347704293539099,9.700837813313049,2.5060213134240468
-1.6628805364233765,-1.700505334640201,-3.209748147745906,-0.32264408040485854,9.682616600949972,1.991813230516584
-1.6798855897697784,-1.6036791686307013,-3.2129745885499545,-0.30272594809969267,9.667559174891336,1.50655826832482
-1.6959223814560855,-1.507003576881788,-3.2160018480309516,-0.28766036541644446,9.655444066326055,1.0501183091073854
-1.7109924172249034,-1.4104491362185274,-3.218878451685116,-0.2771591823253706,9.645952438938203,0.622354867210951
-1.7250969085870886,-1.3139896118291454,-3.2216500435083697,-0.2709356336532611,9.638691225232435,0.2231378229086526
-1.73823680470538,-1.217602699576821,-3.2243593998449023,-0.2687042554241746,9.633214625165142,-0.1476494433398048
-1.7504128317011483,-1.1212705533251697,-3.227046442399144,-0.2701807498575726,9.629044052999554,-0.4901079224917295
-1.7616255372343999,-1.024980112795174,-3.2297482498977197,-0.2750818290824899,9.62568660234359,-0.804323278154723
-1.7718753383623516,-0.9287232467717382,-3.2324990681885444,-0.28312506186403713,9.622652081121606,-1.0903680269650045
-1.781162570830069,-0.8324967259605222,-3.235330318807185,-0.2940287421336872,9.619468650212715,-1.3483050796169835
-1.7894875380896742,-0.736302039458395,-3.2382706062285216,-0.30751179292985703,9.61569708338783,-1.5781921606609233
-1.7968505584842582,-0.6401450686245167,-3.2413457241578203,-0.32329371453646627,9.610943653097815,-1.7800866650729927
-1.8032520091705033,-0.5440356320935386,-3.244578661303185,-0.3410945811871962,9.604871637192563,-1.9540505516308986
-1.8086923654914386,-0.4479869157216129,-3.247989607115057,-0.3606350867035052,9.59721143597215,-2.1001549163469195
-1.8131722346486547,-0.3520148013618914,-3.251595957982092,-0.3816366358669744,9.587769286996833,-2.2184839328611567
-1.8166923826622736,-0.25613710849192306,-3.2554123243407616,-0.403821475195586,9.576434566556776,-2.3091378902438353
-1.819253753747193,-0.16037276282635532,-3.2594505390927173,-0.4269128540980243,9.563185671292382,-2.372235101800703
-1.8208574813754566,-0.06474090611343149,-3.2637196676336977,-0.45063520511603133,9.548094480810226,-2.4079125011671665
-1.821504890436591,0.030740038694670777,-3.268226019684858,-0.474714330127703,9.531329411909176,-2.416324784374533
-1.8211974900496442,0.12605333281376255,-3.272973162986135,-0.4988775779714483,9.513157086857829,-2.397641998984866
-1.8199369567215065,0.22118490368234084,-3.27796193876585,-0.522853997961297,9.493942651637449,-2.3520455241882074
-1.817725107684683,0.31612433019871533,-3.2831904787454627,-0.546374453203179,9.474148794665048,-2.2797224292630993
-1.8145638643826958,0.4108658181453658,-3.2886542232774945,-0.56917167749581,9.454333531550033,-2.180858242205627
-1.8104552062012422,0.5054091534608661,-3.2943459400524526,-0.5909802599178663,9.43514683601175,-2.055628205614263
-1.8054011146666336,0.5997606218209837,-3.3002557426516312,-0.611536541974009,9.417326210056975,-1.9041871428275412
-1.7994035084484237,0.6939338839215534,-3.3063711080713714,-0.6305784134022844,9.401691296530391,-1.726658103400235
-1.792464169609208,0.7879507968868573,-3.312676892205394,-0.6478449944362867,9.389137642689006,-1.523120002711247
-1.7845846616403396,0.8818421733137474,-3.3191553421497573,-0.6630761944633992,9.380629722914355,-1.293594515287362
-1.775766239907202,0.9756484705428909,-3.3257861040943912,-0.6760121396162728,9.377193320494776,-1.0380325249552
-1.766009755201773,1.0694204037478388,-3.332546225490554,-0.6863924648658248,9.379907351157287,-0.7563004772127853
-1.7553155511642946,1.1632194772594115,-3.339410150139212,-0.6939554696379527,9.389895183527678,-0.4481670207630777
-1.7436833563917005,1.2571184290946884,-3.3463497048355917,-0.6984371398455835,9.408315473112605,-0.11329036710260725
-1.7311121721007536,1.3512015838258145,-3.3533340762340473,-0.6995700435166096,9.436352476295935,0.24879315882835842
-1.7176001562624954,1.4455651085887737,-3.3603297766692135,-0.697082111928326,9.47520574923763,0.638678855314425
-1.7031445051766076,1.54031716608115,-3.3673005977884967,-0.6906953233751818,9.526079063945218,1.057101090366909
-1.6877413335157962,1.6355779567206024,-3.3742075510222485,-0.6801243124715127,9.590168291151326,1.504937814552858
-1.6713855539485902,1.7314796396321157,-3.3810087941469638,-0.6650749343259842,9.668647908541518,1.9832114177972038
-1.654070757552269,1.8281661187175309,-3.3876595434902237,-0.6452428201480122,9.762655695589483,2.4930851141830415
-1.6357890963650938,1.9257926756734256,-3.3941119716917036,-0.6203119690061817,9.873275075919597,3.0358539297944254
-1.6165311696083595,2.024525426432622,-3.4003150913817652,-0.5899534297082374,10.001514469089566,3.6129292458574747
-1.5962859153440334,2.1245405711235175,-3.4062146256788477,-0.5538241372496626,10.148282921984174,4.225815717478821
-1.5750405096327982,2.226023400343359,-3.4117528670513444,-0.5115659800748744,10.314361213888432,4.876079256014483
-1.5527802756293645,2.3291670124822432,-3.416868526852093,-0.4628051875147296,10.500367579947678,5.565304644915077
