th1 (rad),w1 (rad/s),th2 (rad),w2 (rad/s)
4.497241332524625,-2.9585202779271027,2.836415963189147,-1.7462491055087745
4.467656129745355,-2.875032308847771,2.818953472134059,-1.6810142173437124
4.438905806656877,-2.7917889668292926,2.802143329960622,-1.6232011253342604
4.410987916988584,-2.708908437677116,2.7859113187072793,-1.5725972966311927
4.383898832611813,-2.626489989960414,2.7701853457409675,-1.5289784811896634
4.357633932712209,-2.5446172456832197,2.754895560929071,-1.4921116985311997
4.332187760255376,-2.4633611562467257,2.739974443943759,-1.4617577974260918
4.307554148692909,-2.3827826818718507,2.7253568659694984,-1.4376736290903234
4.283726321874191,-2.3029351790884878,2.710980129678595,-1.4196138779202925
4.260696970083306,-2.2238665056694678,2.6967839908993922,-1.4073325949455762
4.238458305026612,-2.1456208557994056,2.6827106649499366,-1.400584478558673
4.217002096468618,-2.0682403406011,2.6687048201643497,-1.3991259451161944
4.196319693062607,-1.9917663306406943,2.654713560713188,-1.4027160290721175
4.176402029756201,-1.9162405779053777,2.640686400422467,-1.4111171487142173
4.157239623977147,-1.8417061351643877,2.626575228935325,-1.4240957695877694
4.138822562625503,-1.7682080907203446,2.612334271239447,-1.4414229935141607
4.1211404817182995,-1.695794136436728,2.5979200413043055,-1.4628750969106756
4.104182540353932,-1.6245149866644866,2.583291290335199,-1.4882340380185057
4.087937390487287,-1.5544246653396365,2.568408949955014,-1.5172879487445359
4.0723931438338905,-1.485580678119418,2.5532360704675687,-1.549831623188032
4.057537337052696,-1.4180440859881704,2.5377377542356885,-1.5856670116038523
4.043356896192814,-1.3518794963059535,2.52188108411965,-1.6246037255797376
4.029838101229755,-1.287154986795614,2.5056350468638526,-1.666459557593379
4.016966551361799,-1.2239419774643507,2.4889704512879187,-1.7110610158713981
4.004727131587155,-1.1623150649267218,2.4718598411292048,-1.7582438735950923
3.9931039809378883,-1.1023518330275872,2.4542774023932536,-1.8078537299785935
3.9820804626076125,-1.044132653043952,2.4361988650934676,-1.8597465795710957
3.971639136077173,-0.9877404860613257,2.4176013992977565,-1.9137893852891328
3.9617617312165594,-0.9332606993598528,2.398463505444865,-1.9698606501469844
3.9524291242229608,-0.8807809077951118,2.378764898943395,-2.027850982398454
3.9436213151450095,-0.8303908502056985,2.3584863891194106,-2.087663648801943
3.9353174066429526,-0.7821823098130315,2.337609752631391,-2.149215110937329
3.927495583544822,-0.7362490863875557,2.3161176015220177,-2.212435539894751
3.920133092680947,-0.6926870266294733,2.2939932461230703,-2.2772693051703516
3.913206222414652,-0.6515941177404863,2.271220553071367,-2.343675434180919
3.9066902812372475,-0.6130706475327846,2.2477837987295577,-2.411628039375531
3.9005595747619197,-0.5772194326150616,2.2236675183358026,-2.4811167103933
3.894787380435769,-0.5441461141873076,2.1988563512318695,-2.552146868994451
3.889345919293896,-0.5139595187294823,2.173334882541925,-2.624740084465635
3.8842063241066014,-0.486772078330403,2.1470874816972687,-2.69893434674202
3.8793386033232973,-0.46270030249701133,2.1200981382298485,-2.7747842934529885
3.874711600298327,-0.4418652899073103,2.0923502952953186,-2.8523613853182948
3.870292947399254,-0.42439326458477367,2.0638266814421358,-2.9317540216046765
3.866049014753406,-0.4104161161980589,2.034509141226089,-3.013067583474439
3.8619448535914254,-0.40007191839799394,2.0043784653913446,-3.096424387753197
3.8579441344074454,-0.3935053920073479,1.9734142215138126,-3.1819635266011397
3.854009080487372,-0.3908682711264834,1.9415945862478012,-3.2698405594203326
3.850100397776107,-0.39231951938770204,1.908896180653598,-3.3602270116320105
3.84617720258223,-0.3980253301875701,1.875293910537278,-3.4533096202009914
3.8421969492803543,-0.40815882818400023,1.840760814335268,-3.549289247382441
3.8381153609985144,-0.422899369040722,1.8052679218614436,-3.6483793614664073
3.833886367308107,-0.442431309687457,1.7687841282467796,-3.7508039556063864
3.8294620542112328,-0.46694209162427436,1.7312760886907157,-3.8567947424669584
3.82479263329499,-0.49661944455384477,1.692708141266046,-3.966587422862329
3.819826438849452,-0.531647476700653,1.6530422670374227,-4.080416780530773
3.814509964082445,-0.5722013719654376,1.612238099232115,-4.198510303025856
3.808787950362791,-0.6184403639282152,1.5702529962018565,-4.321079971737302
3.8026035467235086,-0.6704986055671955,1.5270421964844836,-4.448311805255173
3.795898560667837,-0.7284735066856295,1.4825590784319318,-4.580352685169881
3.7886138256009807,-0.7924110771830588,1.436755551580233,-4.717293951220577
3.7806897148291503,-0.8622878070770752,1.3895826120680272,-4.859151238042507
3.7720668367583796,-0.9379886536517461,1.3409910996876022,-5.005840060351655
3.762686950221862,-1.0192808204317922,1.2909326990840857,-5.1571467680151235
3.752494142017544,-1.1057832391776083,1.2393612314039344,-5.312694728287943
3.741436309625768,-1.1969320508658836,1.186234284121055,-5.471906001013302
3.729466989117109,-1.2919429760903625,1.1315152241109219,-5.633959412031054
3.7165475593562056,-1.3897723173961538,1.0751756299906112,-5.797746856048893
3.702649836182244,-1.489079473026432,1.0171981614301222,-5.9618309071871725
3.68775904145198,-1.58819524203274,0.9575798523582505,-6.124408365483734
3.6718770890316526,-1.6851017552090746,0.8963357687034131,-6.283286106668779
3.6550260714795617,-1.7774313314944914,0.8335029076367253,-6.435877268009928
3.637251758164617,-1.8624925210880736,0.769144134956626,-6.579226941080937
3.618626832953736,-1.937331470167944,0.7033518655458166,-6.710076505809436
3.599253518252057,-1.9988348529020503,0.6362511004877223,-6.824973774585375
3.5792651697230364,-2.0438763955010613,0.5680013627418685,-6.92043157558541
3.5588264057680257,-2.0695023178814727,0.4987970469860144,-6.993130107387639
3.538131382589211,-2.07314247698638,0.428865745912138,-7.040149022709572
3.517399957819347,-2.0528252546083867,0.35846425568504225,-7.059205542829403
3.4968717052732634,-2.0073677906282006,0.2878722002567482,-7.048867709336872
3.476798027366981,-1.9365116931243975,0.21738352316337947,-7.0087100820944865
3.4574329104357373,-1.8409796082543668,0.14729642234243462,-6.939384708936318
3.4390231143531937,-1.7224397809787493,0.07790257525307144,-6.842592780984804
3.4217987165434063,-1.583381426981202,0.009476647443223407,-6.720959272775702
3.405964902273594,-1.4269191964724177,-0.05773294528453361,-6.577829545284998
3.39169571030887,-1.2565560267310085,-0.12351124073738359,-6.417018839579448
3.3791301500415596,-1.0759376301123789,-0.1876814291331781,-6.242550017600339
3.368370773740436,-0.8886285778373066,-0.2501069293091815,-6.058411643206866
3.359484487962063,-0.6979314224104134,-0.31069104574125017,-5.8683596653180805
3.352505173737959,-0.5067596294403512,-0.36937464239443096,-5.675774803342841
3.3474375774435554,-0.3175651537804707,-0.4261323904278594,-5.483577275053433
3.3442619259057507,-0.13231416561394085,-0.4809681631783937,-5.294192712619809
3.342938784249611,0.047499653789882135,-0.5339100903045918,-5.109558666772765
3.34341378078751,0.22081600066719473,-0.5850056769723194,-4.931159682030495
3.345621940794182,0.386953877395084,-0.6343172737926244,-4.76007968746914
3.3494914795681328,0.5455513804597691,-0.6819180706673158,-4.59706243291173
3.3549469933727303,0.6965057627561256,-0.727888694996433,-4.442573115301007
3.3619120510002913,0.8399179227716261,-0.7723144261494431,-4.296856651782151
3.3703112302280074,0.9760436150600151,-0.8152829926672647,-4.159989983210738
3.3800716663786075,1.1052523018765499,-0.8568828924993721,-4.0319272410921005
3.391124189397373,1.227993643551394,-0.8972021649102931,-3.9125376046072358
3.403404125832887,1.3447710719156856,-0.9363275409563655,-3.8016362905717647
3.416851836552044,1.4561216108510935,-0.9743439038620831,-3.699009451919099
3.431413052660555,1.562601013333996,-1.0113339983812741,-3.6044338970116767
3.447039062793895,1.6647733050764821,-1.047378337351391,-3.5176925538615436
3.46368679584466,1.7632039096214487,-1.0825552628900064,-3.438586542934937
3.4813188349408746,1.8584556434860897,-1.1169411283193558,-3.366944625884235
3.4999033913757356,1.951086990346283,-1.150610574578198,-3.3026306883455314
3.5194142612791985,2.0416521770473284,-1.1836368814616534,-3.2455498060588073
3.539830783049672,2.1307026740563835,-1.2160923795222414,-3.195653341146066
3.5611378097902358,2.218789824886114,-1.248048912933702,-3.152943420500635
3.583325708039097,2.306468370511407,-1.2795783471387083,-3.1174770581086233
3.606390391744211,2.3943006732019136,-1.3107531177197946,-3.0893700914695437
3.63033339847623,2.4828614551642274,-1.34164681863449,-3.0688009989227485
3.6551620130278724,2.5727428432415995,-1.3723348286237176,-3.056014534168188
3.6808894414602884,2.664559438440278,-1.4028949739653995,-3.051324933362491
3.7075350358446912,2.7589529864224,-1.4334082232990244,-3.0551181838056203
3.735124565708915,2.85659597749193,-1.4639594051370806,-3.0678524383855734
3.7636905254838346,2.958193097980833,-1.4946379295209362,-3.090055036968904
3.793272456463643,3.0644788081528107,-1.5255384798906253,-3.1223136373498175
3.823917244545171,3.17620831806528,-1.5567616162641236,-3.165257497183149
3.8556793277258237,3.2941377162492755,-1.588414191235955,-3.2195227629995555
3.8886207048883166,3.4189867965849245,-1.6206094188659506,-3.2856924592610235
3.922810572854166,3.5513750919947107,-1.6534663434585608,-3.364197543341036
3.958324323774113,3.6917178716282404,-1.687108318891971,-3.455160068877729
3.9952415024903956,3.8400652290565525,-1.7216599195807485,-3.558154382734643
4.033642154780961,3.995866429337949,-1.7572414634080948,-3.6718610018125037
4.073600819074341,4.157649297740271,-1.7939600734262198,-3.793598774634514
4.115177312051744,4.322631676332089,-1.831896061172565,-3.9187598314133214
4.158403628815065,4.486344064462143,-1.8710836594866982,-4.0402602743334315
4.203267069459686,4.642447256779432,-1.9114862622300326,-4.148268617388661
4.249691542027481,4.783043281814997,-1.9529689484039192,-4.230637254900807
4.297521974845631,4.899783116520945,-1.9952753209529273,-4.274471029837467
4.34651980601084,4.9857860858785985,-2.038020031251302,-4.268859591443655
4.396377666869626,5.037772726061278,-2.0807086271657385,-4.20793120379342
4.446755394130239,5.0573068556777105,-2.122787939203673,-4.09266346360512
4.497328462687016,5.0503288263571235,-2.163714573839724,-3.930281289017449
4.5478317509505874,5.025239339956546,-2.2030173867298983,-3.7315902905969898
4.598084144350153,4.990659205222047,-2.2403332896358683,-3.507823755812061
4.647990736402374,4.953869983579688,-2.275411527193989,-3.268425175641367
4.69752943623817,4.920214580539502,-2.3080957789504026,-3.0201729092733327
4.746731582043565,4.8931874220083635,-2.338297508043136,-2.767278367654019
4.795663456263648,4.874827582249248,-2.365970291719676,-2.511919873580501
4.844411732086141,4.866151315017218,-2.3910894904554807,-2.2548428656590724
4.893073245236313,4.867507733319155,-2.4136379191120714,-1.9958620248876604
4.941748322569505,4.87883242046945,-2.433596539360948,-1.7342284304495699
4.990536646774199,4.899812317818179,-2.4509388236654437,-1.4688793801346622
5.039534769952381,4.9299847169525455,-2.46562761746679,-1.1986023301350144
5.088834617121906,4.968790965671684,-2.47761364076814,-0.922141684818442
5.1385225267786225,5.015600296421468,-2.4868350576163247,-0.6382700740506795
5.1886785297428375,5.069714352709966,-2.4932177583568316,-0.3458389921941714
5.2393756732699375,5.1303593966341,-2.496676148278773,-0.04381847455675886
5.290679267236278,5.196670790347698,-2.497114333024341,0.26866819255506885
5.342645975139756,5.2676728788646106,-2.49442765109879,0.5923112752014681
5.395322703928402,5.342256583133592,-2.4885045383467754,0.9275812402926428
5.448745269759738,5.419156621957688,-2.479228725943849,1.274694888896109
5.502936835979314,5.496930157645522,-2.466481777054888,1.6335816259345606
5.5579061375557695,5.5739386830540765,-2.4501459607955423,2.0038513309698156
5.61364552438631,5.648335043011579,-2.430107447485844,2.3847659445339384
5.6701288748164265,5.718057534425853,-2.4062597880405048,2.7752173638129496
5.727309450160685,5.780832994552323,-2.378507614402375,3.1737145196471626
5.785117780106208,5.83419061983742,-2.3467704692059037,3.578382547894745
5.843459686304582,5.875487931970783,-2.3109866437269564,3.986976748722002
5.90221456562429,5.901949818555149,-2.2711168762397365,4.396913549778082
5.961234063809842,5.9107209380355545,-2.2271477407419558,4.805319987302175
6.020341273190198,5.898931018733337,-2.179094540868934,5.209102352289307
6.079330583377531,5.863771725779823,-2.1270035173460413,5.605033684553549
6.137968300635329,5.802582830904749,-2.070953180500506,5.989858789023327
6.195994128944377,5.712944396532537,-2.0110545926102725,6.360414416641682
6.253123572909702,5.59277057295041,-1.9474504484438557,6.713761184945011
6.309051278639206,5.440399428535884,-1.8803128365944057,7.047322692214619
6.363455272924565,5.254672079005419,-1.8098396096722595,7.359026128733928
6.416001993714619,5.034993442379241,-1.7362493483849202,7.647437633761585
6.466351928138411,4.781366509074599,-1.6597749720473043,7.9118849459003355
6.514165593229157,4.494392410307316,-1.580656122588301,8.152559920411486
6.55910951733223,4.1752300537165326,-1.499130523384186,8.370594637545754
6.600861817869395,3.825511729151502,-1.4154245770087286,8.568107380004662
6.63911693516091,3.447214614389024,-1.329743503208682,8.748218725190629
6.6735890813048,3.042491949202986,-1.2422613159567757,8.915043030861694
6.70401400079683,2.6134710125847973,-1.1531108856481587,9.07366600545355
6.730148710922678,2.1620272008526813,-1.0623742255936233,9.23012394320155
6.751768982931205,1.6895441358380958,-0.9700729861616078,9.391403568741302
6.768664424289586,1.1966693315560548,-0.8761589504741947,9.565482096163372
6.780631117605147,0.6830754526524592,-0.780504129512561,9.76142306826075
6.787461872131671,0.14724322405152745,-0.6828898988299534,9.989530134522045
6.788934304372186,-0.4136961041649063,-0.582994597484733,10.261526244920601
6.7847973433305375,-1.0039598206602864,-0.480379335035527,10.590639891593424
6.774757745123934,-1.6287017226139309,-0.37447293611959276,10.991270681571798
6.758470727897795,-2.2925711944605855,-0.2645602293038748,11.477408579847953
6.735545015953189,-2.9958182688182813,-0.14978614350539526,12.057866921518162
6.705586833265007,-3.7250113506180242,-0.029207474290213642,12.724270336019693
6.668336719758826,-4.433978509815059,0.0980352290699833,13.425578192039572
6.623996934660675,-5.015603520555103,0.23229101099037902,14.02947719395948
6.573840899455124,-5.295667953486215,0.3725857829299738,14.312579975382544
6.520884219920262,-5.126893151766609,0.5157115826837992,14.085745973224483
6.469615288402596,-4.555703431361699,0.6565690424160441,13.416021269877449
6.424058254088979,-3.7955166997908094,0.7907292551148186,12.584471577891394
6.386103087091071,-3.022819786114664,0.9165739708937326,11.812441639200824
6.355874889229924,-2.307601955937978,1.034698387285741,11.177021044005201
6.332798869670545,-1.659800420310229,1.146468597725793,10.6786258365809
6.316200865467443,-1.0699329480573678,1.253254856091602,10.295590551256678
6.30550153598687,-0.5254663712838665,1.3562107616041688,10.004757366184197
6.300246872274031,-0.015561751630288612,1.4562583352660108,9.78665041475484
6.300091254757728,0.46806963229085774,1.5541248394135592,9.625828012808292
6.304771951080636,0.931377204550452,1.650383119541642,9.510098217786267
6.314085723126141,1.3783799058698467,1.7454841017195046,9.429660064179233
6.327869522184839,1.8115419188698842,1.8397807023612969,9.376417122460749
6.345984941373538,2.232076040544189,1.9335448735859044,9.343483222618056
6.36830570177898,2.640186913441366,2.026979705812085,9.324848481671905
6.394707570913393,3.0352753926443774,2.1202281906288043,9.31516963286894
6.425060324839837,3.4161222630970425,2.213379886957494,9.309654522616926
6.459221547470808,3.7810634550016755,2.306476432183663,9.30401634577595
6.497032182020824,4.1281625239133035,2.3995165956414226,9.294476770701065
6.538313807259957,4.455380372659968,2.492461363348433,9.277799002938337
6.582867610986557,4.760737528567274,2.5852393533778164,9.251333096648011
6.63047498627223,5.042461236148493,2.6777526843442967,9.213057469511584
6.680899598633714,5.299108555596263,2.7698832590394127,9.161603310837696
6.733890684189677,5.5296576676940035,2.8614992921477898,9.096252600183401
6.789187260866617,5.733562378037381,2.9524618181496236,9.016905447349489
6.846522884646991,5.9107687084602425,3.0426308726231186,8.924017681355245
6.905630571731594,6.06169656019536,3.131871049436671,8.818514151983592
6.9662475373335475,6.18719285557068,3.220056190956507,8.701686298136705
7.0281194658892545,6.288464696425242,3.307073053937874,8.575083790284054
7.091004112853507,6.367001692188918,3.3928238918407145,8.44040953220127
7.154674129775396,6.424495865040498,3.477227987162727,8.299425447949767
7.2189190884258005,6.462765850393337,3.560222241642225,8.153873913414255
7.2835467469297335,6.48368998689636,3.6417609807763673,8.00541703868629
7.348383646798697,6.489150784754204,3.7218151511632303,7.855593734771677
7.413275154646239,6.480991486422055,3.800371088510947,7.705792857679453
7.47808506951046,6.460984139600459,3.8774290170877417,7.5572397681885874
7.542694910906464,6.430807804022345,3.9530014147696275,7.410993290140538
7.607002988946688,6.392035139214053,4.027111347671033,7.2679501376337345
7.670923340338828,6.346125559910185,4.099790849047371,7.128854243018154
7.7343845959379305,6.294423285830498,4.171079391477552,6.994308907469516
7.7973288287962355,6.238158857495812,4.241022480552248,6.8647902074895555
7.859710417371193,6.178452969693779,4.309670382627143,6.740660557311436
7.9214949470681315,6.1163217443172,4.377076988200257,6.622181715509002
7.982658164511304,6.052682800354966,4.443298805355347,6.509526824448671
8.043184992514854,5.988361671270203,4.508394073599834,6.402791288557803
8.103068609227556,5.924098268578046,4.572421986485412,6.302002444165938
8.162309591913337,5.860553199910553,4.635442010927071,6.2071280648971054
8.220915123912443,5.798313827119229,4.697513291576042,6.118083796792463
8.278898262183635,5.737900002206155,4.758694129543967,6.0347396390803825
8.336277262205696,5.679769452596423,4.819041525934771,5.956925589802025
8.39307495673166,5.624322807858311,4.878610781832791,5.8844365678366
8.449318184810243,5.571908271636826,4.937455147511157,5.81703670953255
8.505037267526612,5.5228259483850906,4.995625514606482,5.754463122631333
8.560265527010463,5.477331836631928,5.053170145832795,5.6964291646056315
8.615038845376782,5.435641500469146,5.110134437478852,5.642627298087441
8.669395260381474,5.3979334296034995,5.166560710459726,5.592731563241413
8.723374594677509,5.364352096248443,5.22248802609214,5.54639969584258
8.777018115639994,5.335010714638205,5.277952023050566,5.503274910315134
8.830368222786376,5.309993706193123,5.332984772153718,5.462987358852585
8.883468159848308,5.289358870438324,5.387614645742244,5.425155270733259
8.936361748552692,5.273139258742749,5.441866198449576,5.389385769882881
8.989093141140119,5.261344744881081,5.495760056148405,5.3552753635196275
9.04170658858893,5.25396328344495,5.549312809783601,5.322410090358597
9.09424622142338,5.250961844415819,5.602536910687187,5.290365313488331
9.146755839867538,5.252287010003415,5.65544056382207,5.258705140930807
9.199278709967572,5.2578652184729195,5.708027615231378,5.22698145646583
9.251857362152302,5.267602639542383,5.7602974297960365,5.194732545092269
9.304533388547727,5.281384667537227,5.812244755246959,5.161481302211076
9.357347235223099,5.299075022455655,5.86385956826907,5.126733024097137
9.410337985447654,5.320514456155346,5.915126898510041,5.08997279047528
9.463543130009208,5.3455190718645875,5.966026626414794,5.050662469162141
9.516998320727854,5.373878281111741,6.016533251106416,5.00823739901878
9.570737103538972,5.405352444015179,6.0666156250966035,4.962102842164562
