th1 (rad),w1 (rad/s),th2 (rad),w2 (rad/s)
3.589969540060743,1.0424836111551155,2.6445820406024803,-0.2945236882023724
3.6003943761722943,1.1067218716189062,2.6416368037204565,-0.37004629016695856
3.611461594888483,1.170746110481915,2.637936340818787,-0.44378551531474464
3.6231690559933023,1.2344979536406255,2.633498485665639,-0.5156031239776362
3.6355140355297086,1.2979261621469291,2.6283424544258627,-0.5853631286208432
3.648493297151178,1.3609875930663893,2.6224888231396544,-0.6529326054763549
3.662103173081842,1.4236481632277391,2.6159594970848907,-0.7181824308776648
3.6763396547141194,1.4858837876241184,2.6087776727761143,-0.7809878956086893
3.6911984925903605,1.5476812660775576,2.6009677938200273,-0.8412291524782749
3.706675305251136,1.609039095571966,2.5925555022952445,-0.8987914568651694
3.7227656962068556,1.66996819107052,2.5835675877265927,-0.9535651666854654
3.739465378117561,1.7304925042053192,2.574031936059738,-1.0054454764793104
3.7567703031596142,1.7906495364259707,2.5639774812949447,-1.0543318693594887
3.774676798523874,1.8504907504629167,2.55343416260135,-1.1001272796571573
3.7931817060285034,1.9100818907773607,2.5424328898047786,-1.1427369675486199
3.812282524936277,1.9695032295873112,2.5310055201292925,-1.1820671141920782
3.83197755723215,2.0288497597416097,2.5191848489873716,-1.2180231515649036
3.852266054829566,2.088231358944352,2.5070046174717224,-1.2505078450949538
3.8731483684190096,2.147772951509201,2.4944995390207727,-1.2794191493560265
3.8946260979341014,2.2076146939392167,2.4817053475272126,-1.3046478577724145
3.9167022448734934,2.2679122092377897,2.4686588689494884,-1.3260750668418757
3.9393813669658715,2.3288368920390963,2.4553981182810696,-1.3435694743682416
3.9626697358862626,2.3905763024652416,2.441962423537387,-1.356984530233548
3.986575498910915,2.453334661080174,2.4283925782350515,-1.3661554580684736
4.011108845521717,2.5173334503354763,2.4147310236543666,-1.3708961676232403
4.036282180025071,2.582812119287106,2.4010220619781344,-1.370996081624481
4.062110301217943,2.6500288777547536,2.3873121011618896,-1.3662169084783622
4.08861058999549,2.719261552978708,2.373649932077106,-1.3562894045590461
4.115803205525277,2.790808465503506,2.3600870380315158,-1.3409101884189876
4.143711290180312,2.8649892605984055,2.346677936147326,-1.319738695727188
4.172361182786297,2.942145605954922,2.333480549190054,-1.2923943999961094
4.201782638845846,3.0226416344931546,2.320556605190093,-1.2584544723509052
4.232009055190778,3.1068639716298847,2.307972060466584,-1.2174521160327016
4.263077694907077,3.195221138197918,2.2957975393062573,-1.168875890269051
4.295029906289056,3.2881420626309783,2.284108780403567,-1.1121704354208508
4.327911326915365,3.3860733691285687,2.2729870760493585,-1.0467391276946914
4.361772060606651,3.4894750338265568,2.2625196847724114,-0.971949325908595
4.396666810944916,3.598813922396739,2.2528001915133253,-0.8871410200378326
4.4326549501688834,3.7145546473607562,2.243928781312947,-0.7916398413100026
4.469800496642491,3.837147123998312,2.236012382899847,-0.6847755283215178
4.508171967882474,3.9670101786337995,2.229164627616632,-0.5659070342472493
4.547842069668811,4.104510598224496,2.2235055572741595,-0.4344554649282423
4.588887175651056,4.249937138743572,2.219161002624877,-0.2899459006641766
4.631386547038492,4.403469270012855,2.216261543618235,-0.13205880831896033
4.67542123973862,4.565140863575402,2.2149409555350457,0.039308876759645645
4.721072648374374,4.734799653191115,2.215334044302642,0.22397388729650794
4.768420644906286,4.912064111617703,2.217573783175607,0.4213901983008418
4.817541286022463,5.096280341173682,2.221787685158615,0.6305699033558038
4.868504089434199,5.286482550990456,2.228093384192173,0.8500070620802531
4.921368914944104,5.481361498759141,2.236593454812976,1.0776118690004304
4.9761825299316955,5.679245660438935,2.24736957350298,1.3106636528074886
5.032974986536085,5.878099604908065,2.260476210031055,1.5457914029518451
5.091755982585166,6.075542922363688,2.2759341240605733,1.7789893673241435
5.152511411808803,6.2688911016210875,2.2937240177338145,2.005672643546154
5.215200322825013,6.455217248919506,2.313780744169276,2.220773858007472
5.2797524953142085,6.631431021214916,2.3359884827493507,2.4188776799898117
5.346066805526358,6.794369278969437,2.360177259549249,2.594386040343749
5.414010498316053,6.940892337291426,2.3861211199526866,2.7417045032763903
5.483419421688967,7.067980582537653,2.4135381649854506,2.8554398906058585
5.554099227514343,7.17282841999555,2.442092563891509,2.930600926018061
5.625827511714299,7.252935344513046,2.47139857315169,2.9627965518578714
5.698356865159429,7.306196383295571,2.501026538670269,2.9484293176012355
5.771418828992385,7.330995207098023,2.5305108318462812,2.8848823382996196
5.844728781063365,7.326302047080929,2.559359655229277,2.7706965982869867
5.917991801534174,7.291774896286375,2.587066621212147,2.6057304525005462
5.9909095504970376,7.227856731630653,2.6131239257371526,2.391285832237563
6.063188117813344,7.1358549210454765,2.637036784059528,2.1301779948245247
6.134546667023799,7.017983652956277,2.6583385640077735,1.826720912266171
6.204726503553362,6.877348676888702,2.676605773130435,1.4866022181972
6.273499990322248,6.717858060473301,2.691471795312407,1.1166326682491667
6.340678570926982,6.5440537226680755,2.7026381219948985,0.7243752086225905
6.406119108153662,6.360874359328787,2.7098818740811246,0.3176839340669523
6.46972785174695,6.173376643835223,2.7130587134217943,-0.09579406857566714
6.531461618185302,5.986452724443916,2.712100772736038,-0.5090890553752376
6.591326145429742,5.804583824856885,2.707009882182285,-0.9162902399110664
6.649371983678311,5.631661426310442,2.6978469797831743,-1.312797042637671
6.705688597941415,5.470892210852051,2.6847190093567974,-1.6954262329587686
6.760397520049936,5.324786096451381,2.66776474702721,-2.0623886032177063
6.8136453810144495,5.1952133850228455,2.647140860995033,-2.4131681199836112
6.865597514864678,5.083510048535701,2.6230091797951967,-2.7483445111887184
6.916432615350035,4.990609511871017,2.5955257346833096,-3.069398179161604
6.9663387104687455,4.917183086432611,2.5648317528916937,-3.378527984853854
7.015510541333072,4.863777030254695,2.531046473043155,-3.6785019920276447
7.064148311635619,4.8309400400229086,2.4942614531228786,-3.9725517234300978
7.112457712035848,4.819339588044803,2.4545359358885777,-4.2643132893638525
7.160651107916296,4.829868331155123,2.411892802994939,-4.55781392135188
7.208949791227847,4.8637425220905905,2.36631466378142,-4.857498950927186
7.257587216448753,4.922592336358053,2.3177396742721483,-5.168290135106311
7.306813139812333,5.008537619183878,2.266056772921085,-5.495658003775042
7.356898516004172,5.124227720918322,2.2111001928833347,-5.845672119532128
7.408140793213355,5.272791905696362,2.1526434716880134,-6.22495083588635
7.460868712270319,5.45757874852337,2.09039396332915,-6.640340163782918
7.515444499755552,5.681423482668098,2.023990561691321,-7.097959889998387
7.572258734582233,5.944915489984281,1.953010962791337,-7.600885275462548
7.631707889482076,6.242708701887053,1.8770021100367116,-8.14413281880238
7.694134976500947,6.55655945315601,1.7955607818486878,-8.70510984034826
7.759700571032507,6.844859083950196,1.7085096834452052,-9.229174724676671
7.828149161872009,7.034834125689225,1.6162179361984383,-9.618854332164275
7.898497503128901,7.037550063899554,1.5200293928767956,-9.754695326387752
7.9688730037678965,6.803855219185804,1.422482439612918,-9.572814809637485
8.036911555959755,6.376916757704487,1.3267542915165433,-9.137061617065848
8.100680723536799,5.860326015636832,1.235383675345885,-8.593543814380729
8.159283983693168,5.340847321251399,1.1494482372020776,-8.063343961974756
8.212692456905682,4.859579396439758,1.0688147975823301,-7.603561997054977
8.261288250870079,4.426146233963146,0.9927791776117804,-7.227836239160915
8.305549713209711,4.036539015324797,0.9205008152201712,-6.931342089222974
8.345915103362959,3.682724828874434,0.8511873943279415,-6.704092274189977
8.382742351651704,3.356439276825106,0.7841464715860418,-6.5361141060611585
8.416306744419956,3.0503541071114615,0.7187853305254301,-6.418998025212948
8.44681028549107,2.758263904713217,0.6545953502733006,-6.34610387126415
8.474392924538202,2.4749632467026483,0.5911343115606591,-6.312347485295348
8.499142557005229,2.1960605950911187,0.5280108367077057,-6.313899279809334
8.52110316295614,1.9178108998357848,0.46487184390961234,-6.34789945770452
8.540281271954496,1.6369896576307768,0.40139284933256714,-6.412212953204304
8.556651168530804,1.3508116718805763,0.3372707198005241,-6.505220018850731
8.57015928524961,1.0568926455308238,0.27221851961201676,-6.6256308681853735
8.580728211704917,0.7532514064141498,0.20596221093016304,-6.772312085826833
8.588260725769059,0.43835132027969526,0.13823909007189472,-6.944114193084419
8.592644238971856,0.11117972249172459,0.06879794814105053,-7.139692565072224
8.593756036196773,-0.22863687628702117,-0.00259897750967171,-7.357317843224781
8.591469667433902,-0.5806871576669634,-0.07617215594191952,-7.594677554785523
8.585662795857232,-0.943609957513251,-0.15211893148977473,-7.848678355753188
8.576226696282099,-1.3149292780750232,-0.23060571504730662,-8.115268274881803
8.563077403501348,-1.6909193586135653,-0.31175839779612463,-8.389309694903657
8.546168209915212,-2.0665403713850576,-0.3956514947451612,-8.664544059089456
8.525502806201361,-2.4354917940920444,-0.4822969353360558,-8.93369386861538
8.50114788826044,-2.7904271186193603,-0.5716338740222096,-9.188740314842565
8.473243617074248,-3.123354527117934,-0.6635212771706352,-9.421390415524538
8.442010071803068,-3.4262113609197993,-0.7577351813258806,-9.623705100893265
8.40774795819387,-3.6915513460476608,-0.8539722323348132,-9.788807739062444
8.370832444733393,-3.913237941595461,-0.9518603097254377,-9.911549514379038
8.331700065317438,-4.087015396662376,-1.0509758048692281,-9.988996016499938
8.290829911350814,-4.210846210876154,-1.1508657650342276,-10.020631551477253
8.248721449242053,-4.284958240737463,-1.251072080549,-10.008247060368356
8.205871866834679,-4.311616521570636,-1.3511545511526837,-9.955557395141707
8.162755701618973,-4.294695557135159,-1.4507101251041008,-9.867652016857356
8.119808746047621,-4.239156736357352,-1.5493866452726743,-9.750400927695184
8.077417178684048,-4.150529503448314,-1.6468906545496262,-9.609917182832698
8.035911883649565,-4.03446573433076,-1.7429898263779533,-9.452136285898716
7.995567226306257,-3.8964011530424525,-1.8375111892369405,-9.282531036620203
7.956603214775832,-3.741328108398734,-1.9303364996031425,-9.105950468666412
7.919189933691845,-3.5736657530714933,-2.0213960042898065,-8.926556489684506
7.88345327616113,-3.3972059145781848,-2.1106615691866515,-8.747828648482866
7.849481217015348,-3.215112384281413,-2.19813985567148,-8.57261109511785
7.817330093172534,-3.029954500453286,-2.283865966622659,-8.403182020300337
7.787030548168001,-2.8437602693028974,-2.367897786825662,-8.241332066165562
7.758592945474972,-2.6580784679938567,-2.450311107487318,-8.088443247248984
7.732012160795033,-2.474042634069159,-2.531195539959808,-7.945563569802932
7.707271734454342,-2.2924324577089177,-2.610651175657837,-7.813474974066841
7.684347409877253,-2.113729955275579,-2.6887859253985056,-7.692753755724628
7.663210110324497,-1.93816907398925,-2.765713462955752,-7.583823537499771
7.6438284195846045,-1.7657782116217589,-2.8415516983307496,-7.487001380553435
7.626170637468387,-1.5964156565804328,-2.916421712136284,-7.402537900833381
7.6102064809025824,-1.4297982568695675,-2.9904470911446177,-7.330652387188209
7.595908498333887,-1.2655237799608747,-3.0637536150164997,-7.271563968315279
7.583253260534278,-1.1030874794667702,-3.1364692546996524,-7.225519882618361
7.57222238573961,-0.9418933755550875,-3.208724453525836,-7.192821891081296
7.562803451984059,-0.7812607131697826,-3.280652672436649,-7.173851849090735
7.554990844852361,-0.6204260111353159,-3.3523911909275563,-7.169097419030845
7.548786584741007,-0.45854108457025305,-3.4240821651178646,-7.179178848600938
7.5442011738953045,-0.2946674520580359,-3.495873953603874,-7.2048776267896555
7.541254499374724,-0.12776769149473424,-3.567922729871771,-7.247167590781348
7.539976822459777,0.04330530354444498,-3.6403944057795843,-7.3072485570449
7.540409875495222,0.2198193884041482,-3.7134668913500333,-7.386581529437864
7.542608069379263,0.4031711356102774,-3.787332706644412,-7.486922507035215
7.546639780735365,0.5948841518866229,-3.8622019317147642,-7.610347956943441
7.552588622254231,0.7965852977233399,-3.9383054112841984,-7.759257429222017
7.560554475231465,1.0099354659864674,-4.0158979855764185,-7.936324470891352
7.570653829891329,1.2364717880204663,-4.095261230285332,-8.144340515110246
7.583018547771534,1.4772833243935894,-4.176704635436434,-8.385849046954213
7.59779138101547,1.7323847829667076,-4.260563125905977,-8.662387730470602
7.615115228845137,1.9995702358316627,-4.347187003210682,-8.973039311420955
7.635110931203454,2.272451669018619,-4.436917396324892,-9.311876477685715
7.65783544789364,2.5374587010127976,-4.53003616110175,-9.663963145147441
7.683210034903768,2.7702063179805814,-4.6266757925532245,-10.000404766425872
7.710912098083574,2.9335264223380153,-4.726679840217483,-10.275490182349296
7.740247362306953,2.982456935518319,-4.829434742040976,-10.433057061278209
7.7700719316621365,2.8811542414692792,-4.933765312653758,-10.428789844751284
7.798883474076829,2.625053708431907,-5.038053211101271,-10.259338435819679
7.825134011161149,2.2467776204444183,-5.140646595459468,-9.969255284309279
7.847601787365593,1.796510314831962,-5.240339148302561,-9.623947501917058
7.865566890513913,1.3174283161923603,-5.336578623321731,-9.277141228042927
7.878741173675836,0.8358720441635006,-5.429350035602161,-8.958890076899609
7.887099894117471,0.3640392089128734,-5.518938936371157,-8.680157285235975
7.8907402862066,-0.0941852323920897,-5.605740509223517,-8.441025099457882
7.889798433882679,-0.5388195742694996,-5.690150760218096,-8.236602540558025
7.884410238139984,-0.9712948265929605,-5.772516785623676,-8.060204158852413
7.874697289874055,-1.3932373297032998,-5.8531188272122,-7.90480166336345
7.860764916577022,-1.8059338146081185,-5.932166843845835,-7.763594652668572
7.842705578430941,-2.210129865713289,-6.00980279037252,-7.630184945304034
7.820604279773808,-2.605984920467154,-6.08610463982556,-7.498595035474335
7.794544430569136,-2.99310098219626,-6.1610905901803035,-7.3632416460826695
7.764613420747174,-3.370588489875791,-6.23472300664113,-7.218912462645281
7.730907535848416,-3.7371541387397302,-6.306912131267583,-7.060764546182596
7.693535994461018,-4.091204509195918,-6.377519776729409,-6.88434888065186
7.652623949369059,-4.430962482311436,-6.446363265535928,-6.685658474847164
7.608314324545945,-4.754593724700981,-6.5132198502844,-6.461193552254865
7.560768387298935,-5.060339608105159,-6.577831785806948,-6.208035007027451
7.510164991217883,-5.346651668532418,-6.639912135877223,-5.923915896958806
7.456698474532559,-5.612321637670571,-6.6991512948468115,-5.607280150430812
7.400575258155854,-5.856600530214726,-6.755224096351119,-5.257317908274295
7.342009252853707,-6.079300442280766,-6.807797275433862,-4.87396804414712
7.2812162484308995,-6.280873692969072,-6.856536955875334,-4.45788039672581
7.2184075115012085,-6.462465709576051,-6.901115759842591,-4.010333006412875
7.153782854405448,-6.625940512453965,-6.9412190899067205,-3.533102976460554
7.0875234492809085,-6.773880603460494,-6.976550119671326,-3.028293157873626
7.019784643246304,-6.909566211911798,-7.006833051250062,-2.4981202758420435
6.950688981127186,-7.036941811135011,-7.0318142540084825,-1.9446729328340255
6.880319563015836,-7.16058008148785,-7.051260983336823,-1.369649836810193
6.8087137622009575,-7.28565439607779,-7.0649574817049245,-0.7740897427661488
6.73585721824018,-7.417929434592438,-7.072698379132586,-0.1581060301667413
6.661677923894255,-7.563773804558643,-7.074279439434253,0.4793565116520603
6.586040185848669,-7.73018448237038,-7.069485874317732,1.140710618867741
6.508738341024965,-7.924781158084935,-7.058078768129055,1.8297903763497616
6.429490529444116,-8.155658077040009,-7.039780864365557,2.551625044696365
6.347933948673716,-8.430825927286474,-7.014264613918594,3.3115434048646684
6.263625689400851,-8.75664669705839,-6.981149179869948,4.11276788825851
6.1760592224302675,-9.13402728571496,-6.9400215009873625,4.950766892044795
6.0847189495731175,-9.5502104375813,-6.890513832066914,5.801350615368967
5.989216845197305,-9.964000216378313,-6.832500325913225,6.599565181618976
5.889576843033522,-10.288648437719145,-6.766504674097035,7.2156185053975115
5.7866903586563305,-10.399052613380162,-6.69434848904306,7.4659586587011315
5.682699832522529,-10.206773665689653,-6.619688902456049,7.22138148093447
5.580632095865632,-9.759250321427906,-6.547475087646704,6.549890790103772
5.4830395926513535,-9.207165992854161,-6.481976179745666,5.671403547343869
5.390967932722812,-8.675300425596443,-6.425262144272227,4.772591016775913
5.304214928466847,-8.21578805772571,-6.377536234104468,3.9372072643113043
5.2220570478895905,-7.835686413211222,-6.338164161461355,3.1833901242497693
5.1437001837574785,-7.525605247544137,-6.306330260218858,2.5041690662042764
5.068444131282037,-7.272866308506079,-6.281288569556815,1.8866282848830314
4.995715468196976,-7.06580964419015,-6.262422286707984,1.3185161508906766
4.9250573717550745,-6.8947230251777425,-6.249237125199078,0.7899287609601349
4.856110141503297,-6.751724909945039,-6.241337837589477,0.2933813250407539
4.788592892403847,-6.630411721616471,-6.238404024339069,-0.17655022106077123
4.722288775187683,-6.525517152648923,-6.240169526549677,-0.623639416615382
4.657033603661193,-6.432642882382918,-6.24640592071583,-1.0503688709883934
4.592707174837364,-6.3480622857459466,-6.256909609425714,-1.4582245434243226
4.529226551979905,-6.2685839077761445,-6.271491854859957,-1.8479340577550492
4.466540712902144,-6.19145994248653,-6.2899711954375075,-2.2196619168650153
4.404626113477279,-6.114326937390805,-6.312167814606157,-2.5731721282440896
4.34348284410337,-6.035168452505143,-6.337899535888599,-2.9079654044735364
4.283131159578319,-5.952291660924137,-6.366979189933334,-3.2233952719156744
4.223608242969077,-5.864311787859752,-6.39921314265249,-3.5187654671587207
4.16496512509048,-5.770139903942244,-6.434400797324077,-3.7934098884446725
4.107263726051057,-5.668970971998193,-6.472334896208523,-4.046755926383887
4.050574016331075,-5.560270215027682,-6.512802455472363,-4.278372011937981
3.9949713141807983,-5.443756822640008,-6.555586175591743,-4.4880004815888785
3.940533745954398,-5.3193847351658,-6.600466180407632,-4.675577194161675
3.88733989860274,-5.18732074211251,-6.647221952349248,-4.841239615499917
3.835466691181615,-5.0479204265935795,-6.695634348504248,-4.985325247009419
3.784987486915679,-4.901702619122219,-6.745487600974342,-5.108362294111014
3.735970460724457,-4.749323041519434,-6.7965712239154525,-5.211054370671035
3.6884772303092626,-4.5915477731568455,-6.848681767622163,-5.294260855704689
3.642561752577694,-4.429227097206732,-6.90162437617921,-5.35897430339341
3.5982694816056267,-4.2632702104203135,-6.955214119213145,-5.4062960933020285
3.5556367795014236,-4.094621218414758,-7.009277080146165,-5.43741131739008
3.514690567317276,-3.9242367900854696,-7.063651193320066,-5.453563742242943
3.4754481994164212,-3.7530658029153665,-7.118186830742495,-5.456031555766091
3.4379175413872676,-3.5820312665202434,-7.172747146300156,-5.446104497783085
3.402097228722065,-3.4120147571160078,-7.227208191277987,-5.425062872442554
3.3679770811509053,-3.2438435269576433,-7.281458820002413,-5.394158838238958
3.335538645881329,-3.0782803710235114,-7.335400408384803,-5.3546002642904735
3.304755842171094,-2.916016243101967,-7.388946411027708,-5.307537329492991
3.275595679740074,-2.757665522230469,-7.4420217843226375,-5.25405192824803
3.2480190245177694,-2.6037637460473406,-7.494562303605118,-5.195149838759925
