th1 (rad),w1 (rad/s),th2 (rad),w2 (rad/s),a1 (rad/s^2),a2 (rad/s^2)
4.08995518040657,-2.8666526071749563,6.06681397051931,-1.4174783432835536,8.470355341145922,-2.099779782766429
4.061288654334821,-2.781949053763497,6.052639187086474,-1.438476141111218,8.459528477305625,-1.3717329913573535
4.033469163797187,-2.6973537689904408,6.038254425675362,-1.4521934710247915,8.44158820304606,-0.6752007516559101
4.006495626107283,-2.61293788695998,6.023732490965114,-1.4589454785413505,8.415804797481856,-0.010488903840674397
3.980366247237683,-2.5287798389851615,6.0091430361797,-1.4590503675797573,8.381766313425297,0.6222864958608271
3.955078448847831,-2.4449621758509084,5.994552532503903,-1.452827502621149,8.339340345211491,1.2232008016820624
3.930628827089322,-2.3615687723987935,5.980024257477691,-1.4405954946043285,8.288637146457397,1.7925152193020766
3.907013139365334,-2.2786824009342195,5.965618302531648,-1.4226703424113076,8.229974452038396,2.330665808364832
3.884226315355992,-2.1963826564138356,5.951391599107534,-1.3993636843276593,8.163844318699772,2.838248574821542
3.8622624887918535,-2.114744213226838,5.937397962264257,-1.370981198579444,8.090882238151503,3.316001960567975
3.841115046659585,-2.033835390845323,5.923688150278463,-1.3378211789737642,8.011838706122878,3.764787823022075
3.8207766927511315,-1.9537170037840943,5.910309938488725,-1.3001733007435434,7.92755335871232,4.185571794894505
3.8012395227132907,-1.8744414701969712,5.8973082054812895,-1.2583175827945983,7.838931719011712,4.5794037290690515
3.782495108011321,-1.796052153006854,5.884725029653343,-1.2125235455039078,7.746924535918751,4.947398768082149
3.7645345864812527,-1.7185829076476666,5.872599794198305,-1.1630495578230864,7.652509645177859,5.290719433468112
3.747348757404776,-1.6420578111958881,5.860969298620073,-1.1101423634884053,7.5566762407136485,5.610559007264383
3.730928179292817,-1.5664910487887516,5.84986787498519,-1.0540367734157614,7.46041141210598,5.908126375364021
3.7152632688049296,-1.4918869346676917,5.839327507251032,-0.9949555096621212,7.364688780918207,6.184632418646892
3.7003443994582526,-1.4182400468585097,5.829377952154411,-0.9331091854756522,7.270459053528303,6.441277971029255
3.6861619989896677,-1.3455354563232267,5.820046860299655,-0.8686964057653597,7.178642299973951,6.679243311689264
3.6727066444264356,-1.273749033323487,5.811359896242002,-0.801903972648467,7.090121765925838,6.899679119681937
3.6599691540932007,-1.2028478156642288,5.803340856515518,-0.7329071814516477,7.005739027116009,7.1036987909689175
3.6479406759365585,-1.1327904253930687,5.796011784701001,-0.6618701935419585,6.926290301333844,7.292371998728542
3.636612771682628,-1.0635275223797303,5.7893930827655815,-0.5889464735546731,6.852523741548476,7.466719366043335
3.6259774964588307,-0.9950022849642455,5.783503618030035,-0.5142792798942397,6.785137544041136,7.627708114254374
3.616027473609188,-0.9271509095238342,5.7783608252310925,-0.438002198751696,6.724778716984634,7.776248549198139
3.6067559645139498,-0.8599031223539878,5.7739808032435755,-0.3602397132597146,6.672042367164751,7.913191250169868
3.5981569332904098,-0.7931826986823403,5.770378406110979,-0.2811078007580159,6.627471375089879,8.039324831934767
3.590225106303586,-0.7269079849314415,5.767567328103398,-0.2007145524386682,6.59155634127447,8.15537415774282
3.582956026454272,-0.6609924215186967,5.765560182579011,-0.11916081086124,6.564735698793925,8.26199889054366
3.576346102239085,-0.5953450645307575,5.7643685744703985,-0.036540821955803396,6.5473958991589605,8.359792280017885
3.570392651593777,-0.5298711055391679,5.76400316625084,0.04705710084437545,6.5398715900811135,8.44928009431876
3.5650939405383855,-0.4644723896383568,5.7644737372592845,0.13154990178756304,6.542445714791146,8.530919617320656
3.560449216642002,-0.39904793249044535,5.76578923627716,0.2168590979607696,6.555349473271682,8.605098644538602
3.5564587373170973,-0.3334944377577285,5.767957827256768,0.30291008440615563,6.578762096156158,8.672134423616665
3.55312379293952,-0.2677068167961669,5.77098692810083,0.38963142864232225,6.61281039224068,8.732272498325441
3.5504467247715583,-0.2015787128737601,5.7748832423872525,0.4769541536255767,6.657568040685774,8.785685428335105
3.548430937642821,-0.13500303246690237,5.779652783923508,0.5648110079089277,6.713054609194187,8.832471370630708
3.547080907318152,-0.0678724863749605,5.785300894002598,0.6531357216152348,6.779234289879901,8.87265252230212
3.5464021824544023,-8.014347616148998e-05,5.79183225121875,0.741862246838256,6.856014355320729,8.906173438548874
3.5464013810196406,0.0684800000770458,5.799250873687133,0.8309239812237447,6.943243348512616,8.932899254035682
3.5470861810204113,0.13791243356217198,5.80756011349937,0.9202529737641015,7.040709032176581,8.95261385011358
3.548465305356033,0.2083195238839378,5.816762643237011,1.0097791122652373,7.1481361351083486,8.965018024714048
3.5505485005948727,0.2798008852350213,5.826860434359664,1.0994292925123779,7.265183945928052,8.969727735672556
3.553346509447223,0.3524527246943018,5.837854727284787,1.1891265698691034,7.391443817510373,8.966272501485596
3.556871036694166,0.4263671628694055,5.849745992983478,1.2787892948839594,7.526436658268202,8.954094055576345
3.56113470832286,0.5016315294520876,5.862533885932318,1.3683302354397229,7.669610498911516,8.9325453604381
3.566151023617381,0.5783276344412027,5.876217188286715,1.457655689044104,7.820338234755177,8.900890095812677
3.571934299961793,0.6565310167887545,5.890793745177156,1.5466645900022307,7.977915653408968,8.858302739496732
3.5784996101296804,0.7363101733228441,5.906260391077178,1.635247617397198,8.141559864920398,8.80386935951131
3.5858627118629087,0.8177257719720481,5.92261286725115,1.723286310992311,8.310408255210808,8.736589231226741
3.5940399695826293,0.9008298545241562,5.939845730361073,1.8106522033045784,8.48351808293168,8.65537738162896
3.603048268127871,0.985665035353473,5.957952252394119,1.897205977120868,8.65986683364318,8.559068144373713
3.6129049184814055,1.0722637036899048,5.976924312165328,1.982796658564605,8.838353432532816,8.446419782957278
3.6236275555183046,1.1606472380152328,5.996752278750974,2.067260856394178,9.017800396993971,8.316120204964058
3.635234027898457,1.2508252419851726,6.017424887314916,2.1504220584438185,9.196956982852873,8.166793748202158
3.6477422803183086,1.3427948118137014,6.038929107899354,2.2320899959258402,9.37450334294544,7.997008970601292
3.6611702284364456,1.4365398452431557,6.061250007858613,2.312060085631853,9.549055674850914,7.805287321923795
3.6755356268888772,1.5320304019916648,6.084370608714932,2.3901129588510908,9.719172287476782,7.590112519599343
3.690855930908794,1.6292221248664327,6.108271738303443,2.4660140840470843,9.883360466440035,7.349940397494961
3.7071481521574583,1.728055729530833,6.132931879143913,2.539513488022034,10.040083969478097,7.083208950561866
3.724428709452767,1.8284565692256138,6.158327014024134,2.6103455775276525,10.18777094024779,6.788348266613761
3.742713275145023,1.9303342786280917,6.18443046979941,2.67822906019379,10.3248219976845,6.4637900265065875
3.762016617931304,2.033582498604937,6.211212760401348,2.742866960458856,10.44961824530412,6.107976273825574
3.7823524429173534,2.138078681057978,6.238641430005936,2.8039467231971114,10.560528957655999,5.719367213011747
3.8037332297279334,2.243683970634538,6.266680897237907,2.861140395327229,10.65591874680905,5.296447898164088
3.8261700694342786,2.3502431581026286,6.295292301191179,2.9141048743088698,10.734154096867005,4.837733829427237
3.849672501015305,2.457584699071299,6.324433349934268,2.9624822126031423,10.793609284229358,4.341775683149243
3.874248348006018,2.5655207919135923,6.3540581720602995,3.0058999694346347,10.83267187848342,3.807163665257161
3.899903555925154,2.6738475106984265,6.384117171754646,3.043971606087206,10.849748242984525,3.2325322888430628
3.9266420310321384,2.7823449931282718,6.414556887815518,3.076296928975637,10.843269720625333,2.616566724706292
3.954465480963421,2.890777690334525,6.445319857105274,3.1024625962226997,10.811700489017332,1.9580122378875726
3.9833732578667664,2.998894695224698,6.476344483067502,3.1220427186015756,10.753548384123969,1.2556885756576817
4.013362204819013,3.106430179065938,6.507564910253517,3.1345996043581525,10.667380299098507,0.5085114749245562
4.044426506609673,3.213103982056923,6.538910906297099,3.139684719107398,10.551844034835202,-0.28447633871640765
4.076557546430243,3.318622422405275,6.570307753488173,3.1368399557202338,10.4056986716808,-1.124062240606566
4.109743770654295,3.4226794091220833,6.601676153045375,3.125599333314168,10.227855601193939,-2.0108066427869424
4.143970564745516,3.5249579651340226,6.632932146378517,3.1054912668862986,10.017432249352302,-2.944970009527055
4.179220144396856,3.6251322876275456,6.66398705904738,3.076041566791028,9.77382018051781,-3.9264230373675963
4.215471467273131,3.7228704894327236,6.694747474715291,3.036777336417352,9.496768637522607,-4.954540379420315
4.252700172167459,3.8178381758079496,6.725115248079464,2.987231932623149,9.186483598226085,-6.028080081394615
4.2908785539255385,3.9097030117902105,6.754987567405696,2.926951131809203,8.843741082996013,-7.145053187892237
4.32997558404344,3.9981404226201707,6.784257078723788,2.8555005999302807,8.470011735684615,-8.302590721226904
4.369956988269642,4.082840539977017,6.812812084723091,2.7724746927180117,8.067591681099541,-9.496818293313085
4.410785393669412,4.163516456788012,6.840536831650271,2.6775065097848807,7.639732466203992,-10.722751734006808
4.452420558237293,4.239913781450052,6.867311896748119,2.5702789924448126,7.1907607415721895,-11.974229929123624
4.494819696051794,4.3118213888657735,6.893014686672568,2.4505366931535764,6.726176551597535,-13.24390305716133
4.537937909940451,4.379083154381749,6.917520053604103,2.318097662581963,6.252718078760817,-14.523295006794351
4.581728741484269,4.441610335169357,6.940701030229922,2.1728647125140195,5.778380876885836,-15.802957349177616
4.626144844835962,4.499394143938216,6.962429677355063,2.014835139022243,5.312381453786929,-17.07272834597181
4.671138786275344,4.552517958476085,6.982578028745285,1.844107855562525,4.865058823019212,-18.32210388575815
4.716663965860105,4.601168546706277,7.001019107300911,1.6608868167049435,4.447713395441612,-19.540718189310102
4.762675651327168,4.645645680660693,7.01762797546796,1.4654796348118424,4.072390039964628,-20.718921407704148
4.809132108133775,4.686369581060339,7.032282771816078,1.258290420734801,3.751620633061602,-21.848430254124608
4.855995803944378,4.723885787390955,7.044865676023426,1.0398061181935547,3.498149909810303,-22.923018436962927
4.903234661818288,4.758867286489059,7.055263737205362,0.8105759338239255,3.324675696182701,-23.939207967494397
4.950823334683178,4.792114043450885,7.063369496543601,0.5711838541489815,3.243639467101936,-24.896922243470154
4.998744475117687,4.824550438121904,7.06908133508509,0.32221463171428,3.267104820186264,-25.800068323646332
5.046989979498906,4.857221486323767,7.0723034814022325,0.0642139484778167,3.40675969461796,-26.657029135220327
5.095562194362143,4.891289083269947,7.072945620887011,-0.20235634287438659,3.6740735868140693,-27.48106546066627
5.144475085194843,4.928029819138088,7.070922057458267,-0.4771669974810493,4.080634928063363,-28.29065039592634
5.193755383386224,4.968836168418721,7.066150387483456,-0.7600735014403126,4.638687943213151,-29.109782920776784
5.243443745070411,5.015223047850853,7.058549652469053,-1.0511713306480805,5.361884408308152,-29.968349486073752
5.29359597554892,5.068841891933935,7.0480379391625725,-1.3508548255088182,6.266264748802578,-30.902620342052362
5.344284394468259,5.13150453942196,7.034529390907484,-1.6598810289293418,7.37148414933443,-31.95597741130147
5.395599439862479,5.205219380915304,7.017930580618191,-1.9794408030423565,8.702298688690297,-33.17996693675891
5.447651633671632,5.292242367802207,6.998136172587767,-2.3112404724099456,10.290313058824905,-34.635739269297446
5.500574057349654,5.395145498390456,6.975023767863667,-2.65759786510292,12.17593970618457,-36.3958471256082
5.554525512333559,5.516904895452302,6.948447789212638,-3.021556336359002,14.410371423086445,-38.54614460952285
5.609694561288082,5.661008609683166,6.9182322258490485,-3.4070177824542305,17.05699436481253,-41.186981390017365
5.666304647384914,5.831578553331291,6.884162048024506,-3.8188875963544042,20.190768054963915,-44.43160422905125
5.724620432918226,6.0334862338809305,6.845973172060962,-4.263203638644916,23.89199848886222,-48.39671785478055
5.784955295257036,6.272406218769553,6.803341135674513,-4.747170817192722,28.22613547896536,-53.17342618710497
5.847679357444731,6.554667573559207,6.755869427502586,-5.2789050790637715,33.19062533195378,-58.75191579874385
5.913226033180323,6.886573826878744,6.703080376711948,-5.86642423705121,38.58804023374347,-64.84268706269737
5.98209177144911,7.272454229216179,6.644416134341435,-6.514851107678184,43.74780162966619,-70.48547261081639
6.054816313741272,7.709932245512841,6.579267623264654,-7.219705833786348,46.99444378738029,-73.30313713138065
6.131915636196401,8.179876683386645,6.50707056492679,-7.952737205100155,44.93180095335711,-68.49970563054076
6.213714403030267,8.629194692920215,6.427543192875789,-8.637734261405562,32.546622843668224,-49.016466839902215
6.300006349959469,8.954660921356897,6.341165850261733,-9.127898929804584,6.9510327482551455,-10.812518634169008
6.389552959173038,9.024171248839448,6.249886860963687,-9.236024116146273,-25.0209246697773,36.4404092287753
6.479794671661432,8.773962002141674,6.1575266198022245,-8.87162002385852,-48.21172666795403,71.33974678485075
6.567534291682849,8.291844735462135,6.068810419563639,-8.158222556010013,-55.37520776183941,83.60070360366605
6.65045273903747,7.73809265784374,5.987228194003539,-7.322215519973353,-51.73771078415898,80.49271329501255
6.727833665615908,7.220715550002151,5.914006038803805,-6.517288387023227,-44.335148537350264,71.88295283740956
6.800040821115929,6.777364064628648,5.848833154933573,-5.7984588586491315,-36.786166591111936,62.880382831887225
6.867814461762215,6.409502398717528,5.790848566347082,-5.169655030330259,-30.243162943321767,55.141079174665705
6.93190948574939,6.10707076928431,5.7391520160437794,-4.618244238583602,-24.85834871080366,48.91040424049484
6.992980193442233,5.858487282176274,5.692969573657943,-4.129140196178653,-20.48614154082585,44.00512329147208
7.051565066263996,5.6536258667680155,5.651678171696156,-3.6890889632639325,-16.931703495368637,40.16306044954578
7.108101324931677,5.484308831814329,5.614787282063517,-3.2874583587684745,-14.02313567232121,37.14620999434967
7.16294441324982,5.344077475091117,5.581912698475833,-2.9159962588249777,-11.625135158020628,34.76154940683528
7.216385188000731,5.227826123510911,5.552752735887583,-2.568380764756625,-9.635668289901995,32.857704418573825
7.268663449235841,5.131469440611891,5.527068928240016,-2.2398037205708867,-7.979107983637202,31.316424423962367
7.3199781436419595,5.051678360775519,5.504670891034308,-1.926639476331263,-6.5997594286444565,30.04449834914582
7.370494927249715,4.985680766489074,5.485404496270995,-1.6261944928398049,-5.4566326855497085,28.967416371151995
7.420351734914606,4.9311144396335775,5.469142551342597,-1.336520329128285,-4.519416193653835,28.02477805343617
7.469662879310942,4.885920277697039,5.455777348051314,-1.0562725485939233,-3.7654013871424987,27.16712401858844
7.518522082087912,4.848266263825614,5.445214622565375,-0.7846013084080389,-3.177116645309737,26.35384238851129
7.567004744726169,4.816495097372517,5.437368609481295,-0.5210628845229259,-2.740488257398223,25.551849184022263
7.615169695699894,4.789090214798534,5.432157980636066,-0.2655443926827033,-2.4434067727734647,24.734796008044487
7.663060597847879,4.7646561470707995,5.429502536709239,-0.018196432602258422,-2.27462505165763,23.882603191165877
7.710707159318587,4.7419098965542235,5.429320572383216,0.22062959930940035,-2.2229469223260314,22.981153142262237
7.758126258284129,4.719680427330963,5.43152686837631,0.45044113073202274,-2.276683415115926,22.022011746242313
7.805323062557439,4.696913593179803,5.436031279683631,0.6706612481944458,-2.4233591676187953,21.00207935972872
7.852292198489237,4.672680001503616,5.442737892165575,0.880682041791733,-2.6496477173739064,19.92310894578915
7.899018998504273,4.646183524329876,5.451544712583493,1.0799131312496246,-2.9415046944299577,18.791066139119376
7.945480833747571,4.616768477385577,5.462343843895989,1.2678237926408185,-3.284456471964796,17.61534140419656
7.991648518521427,4.583923912665929,5.475022081822398,1.443977206682784,-3.663992481987204,16.407853845380984
8.037487757648087,4.547283987846057,5.4894618538892255,1.608055745136594,-4.066005063102792,15.182105982386469
8.082960597526547,4.5066239372150285,5.505542411340591,1.7598768049604587,-4.47722278847486,13.952256852857893
8.128026836898698,4.46185170933028,5.523141179390196,1.8993993734890378,-4.885591467783706,12.732277290261235
8.172645353992001,4.412995794652443,5.542135173125086,2.0267221463916503,-5.280569778170425,11.535238392489982
8.216775311938525,4.360190096870738,5.562402394589002,2.1420745303165503,-5.6533213178526145,10.37276567892998
8.260377212907231,4.303656883692212,5.583823139892168,2.2458021871058502,-5.996799275365099,9.254671264124713
8.303413781744153,4.243688890938561,5.606281161763226,2.338348899747097,-6.305731861841146,8.188758059113185
8.345850670653538,4.1806315723201495,5.629664650760697,2.420236480338229,-6.576524998180713,7.18077591921775
8.38765698637674,4.114866322338342,5.653867015564079,2.492044239530406,-6.807103199308294,6.234500839673639
8.428805649600124,4.046795290345259,5.678787457959383,2.5543892479271424,-6.99671057418422,5.351904648135869
8.469273602503575,3.9768281846034172,5.704331350438655,2.6079082944085012,-7.145692204911762,4.533383252695986
8.50904188434961,3.9053712625543,5.7304104333827395,2.653242126935461,-7.255272862676044,3.7780150941830133
8.548095596975154,3.832818533927539,5.756942854652094,2.691022277877291,-7.327345968075948,3.083826711188291
8.586423782314428,3.7595450742467795,5.783853077430868,2.721860544989174,-7.364281615140848,2.4480481433272936
8.624019233056895,3.685902258095371,5.811071682880759,2.746341026422447,-7.368758819065348,1.867346465037756
8.660878255637849,3.6122146699047173,5.8385350931449835,2.7650144910728245,-7.3436241633969646,1.3380305655348472
8.697000402336895,3.5387784282707475,5.866185238055712,2.778394796728173,-7.291776786680187,0.8562241439991978
8.732388186619604,3.4658606604039455,5.893969186022994,2.7869570381681648,-7.216078119765256,0.41800674109386843
8.767046793223644,3.393699879206293,5.921838756404675,2.7911371055791037,-7.119283857652935,0.019524569199363254
8.800983792015707,3.3225070406297634,5.949750127460466,2.7913323512710972,-7.003995193765003,-0.3429259129796505
8.834208862422004,3.2524670886921134,5.977663450973177,2.787903092141301,-6.872626231137129,-0.6728381393235966
8.866733533308926,3.1837408263807423,6.00554248189459,2.781174710748065,-6.727384601346436,-0.9734555745473046
8.898570941572734,3.116466980367278,6.033354229002071,2.7714401550025918,-6.570262577144705,-1.247748250710933
8.929735611376406,3.050764354595831,6.061068630552096,2.7589626724954823,-6.403036290593633,-1.498402388362668
8.960243254922364,2.9867339916898947,6.088658257277051,2.7439786486118556,-6.22727101714158,-1.7278201676656126
8.990110594839264,2.9244612815184787,6.116098043763169,2.7267004469351996,-6.044330826343261,-1.9381271271094402
9.01935520765445,2.864017973255046,6.143365048232521,2.707319175664105,-5.855391213340944,-2.13118507456848
9.047995387387,2.8054640611216364,6.170438239989163,2.68600732491842,-5.661453602508978,-2.308608774387583
9.076050027998216,2.7488495250965466,6.197298313238347,2.6629212371745443,-5.463360852749405,-2.4717850126898435
9.103538523249181,2.6942159165690525,6.223927525610093,2.638203387047646,-5.261813093690177,-2.6218929365639156
