th1 (rad),w1 (rad/s),th2 (rad),w2 (rad/s)
3.991171716427451,3.0062841608928417,2.0945283141152777,0.7295662263011502
4.0212345580363795,3.0813272901074877,2.1018239763782893,0.7543462013262423
4.052047830937455,3.159534113548504,2.1093674383915517,0.7857916867935912
4.08364317207294,3.2410507723246846,2.1172253552594875,0.8242879978821441
4.116053679796187,3.326029024032688,2.125468235238309,0.8702374817563685
4.1493139700365145,3.4146242295580618,2.1341706100558726,0.9240585531586357
4.183460212332095,3.506992845559651,2.143411195587459,0.9861840998474852
4.218530140787692,3.6032893521300937,2.153273036585934,1.0570591336441708
4.254563034308993,3.7036625442496414,2.1638436279223754,1.137137556332437
4.29159965975149,3.808251118595781,2.1752150034857,1.2268779082594996
4.329682170937447,3.9171784954119784,2.187483782568295,1.3267379734791103
4.368853955891567,4.030546829975255,2.200751162303086,1.4371681312744171
4.40915942419132,4.1484301912335715,2.21512284361583,1.5586033727052895
4.450643726103656,4.27086691770821,2.230708877342883,1.6914539451659376
4.493352395280738,4.397851203584449,2.2476234167945424,1.8360946500328743
4.537330907316583,4.529324020999553,2.265984363294871,1.9928528994598682
4.5826241475265785,4.665163546546206,2.2859128922894696,2.1619957375469157
4.629275782992041,4.805175327881022,2.3075328496649385,2.3437161451579254
4.677327536270851,4.949082494917265,2.3309700111165177,2.5381190698750373
4.726818361220023,5.096516382013987,2.356351201815268,2.7452077423163814
4.777783525040164,5.2470079734594135,2.383803279238432,2.9648709426907582
4.830253604774758,5.399980603696089,2.4134519886653396,3.196871949122
4.884253410811719,5.554744325476547,2.4454207081565595,3.440839912441953
4.939800854066484,5.7104922946977945,2.4798291072809793,3.69626434240932
4.996905777013462,5.866299405426802,2.5167917507050723,3.9624932438960974
5.055568771067731,6.021123244401511,2.5564166831440334,4.238735203304809
5.1157800035117456,6.173807231025959,2.5988040351770816,4.524065402247643
5.177518075822005,6.3230855853288075,2.644044689199558,4.817435148534155
5.240748931675292,6.4675895492438205,2.6922190406848996,5.117684099313961
5.30542482716773,6.6058541081956434,2.743395881678039,5.4235539551665735
5.371483368249686,6.73632435462243,2.797631421229705,5.733702081394769
5.438846611795911,6.857360635010686,2.8549684420436527,6.04671331898928
5.5074202181460175,6.967241754015949,2.9154355752335457,6.3611082327201265
5.577092635686177,7.064165792275724,2.979046657560747,6.675346247871779
5.647734293608934,7.146248538856853,3.045800120039465,6.987822578615611
5.719196778997503,7.211520146071266,3.115678345825621,7.29685856595057
5.791311980458215,7.257921374077852,3.1886469314851267,7.600686025004956
5.8638911941989935,7.283301679859436,3.264653791735176,7.897427437832983
5.936724210997588,7.285422367736714,3.343628066113506,8.185075280372546
6.009578434674955,7.261968960318763,3.4254788189172314,8.461475357553017
6.082198124278142,7.210577707224525,3.5100935724927615,8.724320581642827
6.154303901350388,7.128881475631393,3.59733677830919,8.971162903142345
6.225592716106702,7.014579823831417,3.687048407340613,9.199451701091029
6.2957385143450155,6.86553645253879,3.7790429243515233,9.406606357000696
6.364393878870404,6.679904102171378,3.87310898792153,9.590128435529278
6.431192919892117,6.456272165491313,3.969010272276823,9.747754473429303
6.495755641547031,6.193826088047149,4.066487817011116,9.877643829542903
6.557693902427502,5.892500939714914,4.165264255306545,9.978588046115785
6.616618911824651,5.553105953496309,4.265050135767703,10.05022024096085
6.672149971359614,5.1773943814689725,4.365552338177312,10.093197442838653
6.7239239151743035,4.768055578042264,4.466484312605699,10.109327921352396
6.771604470954726,4.328614611786576,4.567577591819223,10.101621117272227
6.814890617072591,3.8632379626030615,4.668593802991945,10.074249717187023
6.853522996698622,3.3764590753537567,4.769336300163816,10.032429558584926
6.8872875874521595,2.8728506154898583,4.869660595749665,9.982239544838166
6.916016093607058,2.3566773693055145,4.9694829911980465,9.930416414109215
6.939582867300113,1.831562772084324,5.068787155339138,9.88416516373974
6.957898495020957,1.3001934765567085,5.167628806976536,9.851024686627238
6.970900429786524,0.7640728298532792,5.266139053842808,9.838821599455725
6.978541158085057,0.22331931143286232,5.364527269837366,9.855736504467957
6.980774351199385,-0.3235064798508138,5.463084634882045,9.910498848402042
6.977539286400877,-0.8795695301224619,5.5621896233660655,10.012719703860865
6.968743591099653,-1.4499427558329891,5.6623168204046745,10.17336184930887
6.954244163541323,-2.041799906833662,5.764050438897764,10.40531821407992
6.933826164472986,-2.6645407501620313,5.868103621038562,10.723980862226366
6.907180756971366,-3.3295655988253734,5.975343429660826,11.147420617820485
6.873885100983112,-4.048871303140121,6.08681763583903,11.695069391376498
6.833396387951711,-4.830255509073127,6.203768329752795,12.381900854247236
6.78509383286098,-5.663805326281448,6.327587338295268,13.200774732234153
6.728455779598166,-6.489876739932253,6.459595085617609,14.07923582493629
6.663557012198844,-7.145840589907409,6.600387443866972,14.806315727527439
6.5920986062997695,-7.35782094531759,6.748450601142246,15.019541002001331
6.5185203968465935,-6.949335706066114,6.89864601116226,14.487769176180734
6.449027039785932,-6.11251520657014,7.043523702924067,13.474917816184693
6.387901887720231,-5.188459201198383,7.178272881085914,12.432597052805502
6.336017295708247,-4.347048794502636,7.302598851613969,11.57283204893995
6.2925468077632205,-3.6151333001444015,7.418327172103369,10.918031421382757
6.256395474761777,-2.9741847105695935,7.527507486317196,10.435311604683028
6.226653627656081,-2.4001572957718453,7.631860602364027,10.088509328649812
6.202652054698362,-1.872967740208784,7.732745695650525,9.849198817649587
6.183922377296274,-1.3773494420477244,7.8312376838270215,9.696699692367096
6.170148882875797,-0.9019621597021318,7.928204680750692,9.61615029743883
6.161129261278775,-0.43844803548692035,8.02436618372508,9.596718005296498
6.156744780923906,0.019250961738848937,8.120333363778045,9.630246401937844
6.156937290541294,0.4753179132902204,8.216635827797424,9.710267219234307
6.1616904696741965,0.9322872424286515,8.313738499989766,9.831265527807945
6.171013342098483,1.3911295756000528,8.412051155267845,9.988114374932374
6.1849246378544835,1.851243998388524,8.511932299017168,10.175628787893569
6.203437077838369,2.310402683136811,8.613688586896103,10.388217491732254
6.226541104669737,2.764693848076836,8.717570761813425,10.619632767199661
6.2541880431505055,3.2085118712747103,8.823767089485422,10.862834063634567
6.286273161863252,3.6346435636244876,8.932395430121767,11.109987200988531
6.322619597499497,4.034491905462858,9.043495302131653,11.352615259065718
6.362964516554126,4.398459003405495,9.15702145472231,11.581897974734373
6.406949106588181,4.716478773530231,9.272840434469654,11.78908669351222
6.454113894323483,4.97865367428274,9.390731301404776,11.965971560564787
6.50390043106631,5.17592158433941,9.510391017010424,12.105321771444682
6.555659646909705,5.300672085930217,9.63144423472487,12.201231268623935
6.608666367769007,5.347250920797533,9.75345654741111,12.249341878687956
6.662138876976982,5.312327428954419,9.87594996619799,12.246966513417643
6.7152621512665265,5.1951311913271345,9.998419631332165,12.193168702318308
6.7672134631797976,4.997571689328202,10.120351318355349,12.08884954359966
6.81718918007308,4.724235746046728,10.241239813791346,11.936849575225244
6.864431537533547,4.382229194893002,10.360608309543599,11.742016119289744
6.908253829482478,3.9808183063577034,10.478028470736497,11.511151747442035
6.948062012546055,3.5308504906692133,10.593139988210917,11.252770776839782
6.983370517452747,3.0439879372183944,10.705667695979315,10.97664610090333
7.0138103968249315,2.5318469254757354,10.81543415698835,10.693201368987918
7.039128866079689,2.0051694376333264,10.92236617067823,10.41285840364341
7.059180560456022,1.4731458080459299,11.026494754714664,10.145463634311245
7.073912018536481,0.9429627311028806,11.127949391057776,9.899889937073432
7.08334164584751,0.41959113624300026,11.22694829042851,9.683860009067692
7.08753755720994,-0.09422373892183922,11.323786890519187,9.50398787739696
7.086595319820721,-0.597838628718896,11.418826769293156,9.366002840453584
7.080616933533532,-1.092531616394203,11.512486797697692,9.27510993033651
7.06969161736959,-1.5813336865930216,11.605237897001057,9.236448776600804
7.0538782805036595,-2.0689269470074794,11.697602384767066,9.255630754956714
7.033189011033585,-2.5616488820133556,11.790158692316632,9.339354701743376
7.007572522213452,-3.0676272847258463,11.883552239334065,9.496116330633233
6.9768962493661935,-3.597048146267359,11.978513402640397,9.737022115813994
6.9409257679035194,-4.1625012046606775,12.075883623798537,10.076658533416333
6.899300755856912,-4.779176184970241,12.176650209132701,10.533746869815115
6.85150899400721,-5.4641766224002355,12.281987677830852,11.130630494176328
6.796867227783207,-6.232788095925381,12.393293982772615,11.888675743086722
6.734539346823953,-7.085842226524949,12.512180740203483,12.811531195478398
6.663680924558704,-7.975050803027133,12.640296052158266,13.837972364578059
6.583930416528433,-8.732816118097972,12.778675775804047,14.745111316546929
6.496602255347453,-9.027141294985212,12.926126888969517,15.0849944872119
6.4063308423976,-8.594350966109905,13.076976833841636,14.503503830897968
6.320387332736501,-7.655002801884707,13.222011872150615,13.30681253507605
6.243837304717654,-6.64851203577483,13.355079997501376,12.087255798993727
6.177352184359906,-5.772622504784895,13.475952555491313,11.099753602488631
6.119625959312057,-5.042275869862291,13.586950091516199,10.354172686090584
6.069203200613434,-4.425872300428246,13.690491818377104,9.802718113453308
6.024944477609152,-3.8911602347953775,13.788518999511638,9.400424915095623
5.986032875261198,-3.413184602895815,13.882523248662594,9.114374558848557
5.95190102923224,-2.9735977817456423,13.97366699425108,8.921822357043604
5.922165051414783,-2.5588874345517088,14.062885217821515,8.807204071631894
5.896576177069266,-2.158978868604298,14.150957258537835,8.759772998582116
5.874986388383223,-1.7663421725036486,14.238554988523656,8.771901546472701
5.857322966658186,-1.3755120191411279,14.326274003988383,8.837822691806565
5.843567846466775,-0.9829293387257486,14.414652230906448,8.952609940997524
5.833738553079518,-0.5870425929545862,14.504178330316423,9.111254951301854
5.827868127149972,-0.18861876820880263,14.595290879829442,9.307762764236251
5.825981939467884,0.20880189804160226,14.688368507471804,9.534253351889072
5.8280699584483,0.5984242584096575,14.783711040990694,9.78014875206297
5.834054201032396,0.969889762179917,14.881512528511324,10.03164090506264
5.8437530986541955,1.3094316716805185,14.98182893756195,10.271750060392105
5.856847415371001,1.6008167023801052,15.084546438165871,10.481322053071132
5.872855582394802,1.8272698610225189,15.189359658696583,10.641160312048424
5.891128281005027,1.974226248817677,15.295771261817068,10.735072577070717
5.910870543493204,2.0322575034397095,15.403121987587776,10.753046713967535
5.9311931185276014,1.9991795187901362,15.51065245472745,10.69341469164371
5.951184913715503,1.8805009931656493,15.617586601643888,10.563099427023749
5.96998992364716,1.6880452479739614,15.723217595914125,10.375851122221036
5.986870376126899,1.4373541958994231,15.826976107136336,10.149247778521952
6.001243918085893,1.144855821400469,15.928468584921555,9.901588204292409
6.012692476299898,0.8256032537354969,16.02748446696448,9.64953980171918
6.020948508837253,0.4919341927804076,16.123979864981674,9.406858540614044
6.025867850765057,0.15298960828650016,16.218048450387816,9.1840547819457
6.027397746847923,-0.18517281910747585,16.309888998207274,8.988684905172716
6.025546018656848,-0.5191565560149387,16.399775847259,8.825953151812707
6.020354453096698,-0.8477119920650213,16.488035378777127,8.699400576343223
6.011877333176048,-1.1712602695492933,16.57502938454056,8.611558898186022
6.000164730480555,-1.4915171433441252,16.661144973522422,8.564522707606443
5.985249559047114,-1.811236700764274,16.746790200598486,8.5604395882264
5.967137192039472,-2.134073842609302,16.83239459648075,8.601941482181232
5.9457964536133785,-2.464556888316757,16.918414011302563,8.692550482078268
5.921150884730211,-2.8081601568526953,17.005339516123346,8.837093522010647
5.893069283161684,-3.1714635099414807,17.09371045134345,9.04215311125582
5.861354648062269,-3.5623703659568426,17.18413198245601,9.316555727057784
5.825730944402701,-3.9903027259439634,17.277297539726586,9.671824809497698
5.785827917143261,-4.466138736584823,17.374015787821563,10.12231698197782
5.741166529777413,-5.001246633997044,17.47523895764134,10.684199081372
5.691154063437442,-5.603922181542637,17.58208094845506,11.37098382166527
5.635114841622015,-6.269151445537316,17.695790786671715,12.180025866104515
5.572423327166642,-6.953772451204189,17.81759104533276,13.058945567711111
5.5028856026546,-7.531389319003797,17.948180501009873,13.843795795389415
5.427571709464562,-7.7658546873614815,18.086618458963766,14.22190314893457
5.349913162590948,-7.445304248205478,18.228837490453113,13.914639363872585
5.275460120108893,-6.6588558838749305,18.36798388409184,13.052842671688316
5.208871561270144,-5.720756280316943,18.49851231080872,12.064334354256717
5.151663998466975,-4.8356981472448,18.61915565435129,11.21795399552353
5.103307016994527,-4.052925838926042,18.731335194306524,10.571106788093363
5.062777758605266,-3.3599927452117484,18.837046262187457,10.101484406822244
5.029177831153149,-2.7329520951945936,18.938061106255677,9.774577216353363
5.001848310201203,-2.1503799802496686,19.035806878419212,9.561322906521486
4.980344510398707,-1.5955460730912843,19.131420107484427,9.44001848258883
4.964389049667794,-1.0558310083474145,19.225820292310317,9.394811359516606
4.95383073958432,-0.5218322045321726,19.31976840590548,9.413925894443922
4.948612417538998,0.013316164989762735,19.41390766484992,9.488233520023156
4.948745579188896,0.5543612904432932,19.50879000005015,9.61017832340587
4.954289192093329,1.1041412442187621,19.60489178328421,9.77297181358549
4.965330604535517,1.6636521002519413,19.702621501420065,9.969986711881928
4.981967125538036,2.2320374687786377,19.802321368538884,10.194314775702585
5.004287500225822,2.8065657646710167,19.90426451629591,10.438485590038637
5.0323531578725325,3.3826627266758154,20.008649372196295,10.69436560777856
5.0661797851392905,3.954064828500491,20.11559302827408,10.953264839158932
5.105720433424295,4.513145632070736,20.22512567666567,11.206267454443497
5.150851889745002,5.051435756066811,20.337188351210106,11.444769500662119
5.20136624730567,5.560308045173482,20.451636046216727,11.661156418408696
5.256969327757405,6.031742951369334,20.568247610400814,11.84950021010152
5.3172867572710985,6.459045036542767,20.686742612501828,12.0061245278929
5.381877207636526,6.837371780953922,20.806803857780757,12.129897310630472
5.450250925446065,7.163971435217455,20.928102830887063,12.222170404327045
5.52189063979824,7.438097792245282,21.050324534930333,12.286375321983106
5.596271617720693,7.66064886002012,21.173188288150165,12.327368751303759
5.672878106320894,7.833632945725947,21.296461975663203,12.35066836871409
5.751214435778154,7.959582858851425,21.419968659350342,12.361717318442635
5.830810264366669,8.041020200847807,21.54358583253477,12.365276305481421
5.911220466375147,8.080034042805716,21.667238595589584,12.364989797987077
5.992020806803204,8.078000309925576,21.790888493569454,12.363128880086244
6.07280080990246,8.035441506373322,21.914519782370316,12.360488412642853
6.153155224966193,7.952013788236959,22.038124666496746,12.356410118838133
6.232675362848563,7.826606442676251,22.161688767685128,12.348909640495835
6.310941427275326,7.657541709423737,22.285177864090087,12.33489660144624
6.387516844369563,7.44286486824761,22.40852683010455,12.310485403977372
6.461945493052039,7.180711360283275,22.531631684144322,12.27139595236264
6.533752606654872,6.8697273907535426,22.65434564366795,12.213435128135453
6.602449880562407,6.509503928296505,22.7764799949493,12.133031970749851
6.667544919845372,6.100965799925056,22.8978103146568,12.027776296327971
6.728554577844623,5.646645439869983,23.01808807762008,11.896890043332252
6.785021032243322,5.150773545028881,23.137056978053405,11.741553279725482
6.836528767693611,4.61914200780613,23.25447251085066,11.565020856496277
6.882720187771673,4.058736056779043,23.370122719415622,11.372502348936502
6.923307548339463,3.477181444763849,23.483847742904988,11.17082847039548
6.958079362787101,2.8820921786755123,23.595556027608943,10.967975341250167
6.986900284573856,2.280420256028207,23.705235781021443,10.772547447459393
7.0097044871341385,1.6778961525426777,23.812961255496038,10.593322357383661
7.026483448659565,1.0786138586661025,23.918894479069873,10.438938405880721
7.037269587246226,0.484770773927354,24.02328386312868,10.317772514367821
7.042117294985499,-0.10346558507403358,24.126461588272356,10.238023047554407
7.041082639134759,-0.6880171080902899,24.2288418187479,10.207991920064691
7.034202468053856,-1.2729438173805514,24.330921737948547,10.236553866528858
7.02147302988005,-1.8645412447825769,24.433287276613836,10.333804449705298
7.002827617432224,-2.47152759181238,24.53662532111089,10.511878977511028
6.978112341514101,-3.105313086156608,24.641744110886002,10.785900847596517
6.947059210652535,-3.780208694487098,24.749603119361968,11.174867154707208
6.909257123707664,-4.513042020559745,24.86135179090904,11.701778765840634
6.864126703502066,-5.3205389725554415,24.978369578567445,12.390824582178029
6.810921313776512,-6.2098495727149094,25.102277824389226,13.255320667598497
6.748822818049363,-7.150945086125048,25.234831031065212,14.260801050549718
6.677313367188113,-8.013648474918904,25.37743904157071,15.238967458017692
6.597176882438924,-8.495032534233534,25.529828716150888,15.786850439061775
6.5122265570965885,-8.252919141153672,25.687697220541505,15.447774854103926
6.429697365685052,-7.368522114143856,25.842174969082546,14.340223563336282
6.356012144543613,-6.303880168037617,25.98557720471591,13.086267776484622
6.292973342863237,-5.339567378527121,26.116439882480755,12.047444224363183
6.239577669077966,-4.521951226464811,26.23691432472439,11.270485630218001
6.194358156813318,-3.823450592016747,26.34961918102657,10.709763071603549
6.156123650893151,-3.209706700428349,26.456716811742606,10.31595647610557
6.124026583888868,-2.653246232620665,26.559876376503663,10.052160171850986
6.0974941215626615,-2.133780050502896,26.66039797822217,9.892831147751403
6.076156321057632,-1.6364470212542923,26.759326289699686,9.820509732123417
6.059791850845089,-1.1503124269469163,26.85753138702092,9.82310117921739
6.0482887265756204,-0.6674086984666123,26.955762398813093,9.891906412433585
6.0416146395909545,-0.18223907324646166,27.054681462937427,10.020171118181203
6.03979224885849,0.3083607821999741,27.154883174119238,10.20193188295965
6.04287585668049,0.8050846320542768,27.256902492948836,10.431010045013442
6.050926703001032,1.3058127639563974,27.36121259339897,10.700076820193164
6.063984830640596,1.8051538305244255,27.468213361600903,10.99978779375063
6.0820363689458405,2.2940077542856034,27.57821123953841,11.31806870181455
6.104976446488696,2.7593529396063756,27.691391926556555,11.639724294808428
6.13256997588476,3.184520237331058,27.80778916950464,11.946611979384826
6.1644151782580705,3.5502147868237532,27.92725528929849,12.218618283514278
6.199917326126308,3.836420549428097,28.049441472133633,12.435535570462141
6.238281531620589,4.025042200666418,28.173796827838256,12.57963975286133
6.278531953627253,4.102777444985225,28.29959322536687,12.638410209453962
6.319559728077105,4.063458601518365,28.42597732746141,12.606618496110903
6.360194314092289,3.909154606128537,28.552043512422518,12.487133397511869
