th1 (rad),w1 (rad/s),th2 (rad),w2 (rad/s)
2.862648204999222,-0.07901970370696453,2.9147707301544985,-0.6783015598924429
2.8618580079621525,-0.11064924019956088,2.907987714555574,-0.6687566668086803
2.860751515560157,-0.14182529287701431,2.901300147887487,-0.6603050567346171
2.8593332626313868,-0.17261041307872266,2.894697097320141,-0.6528760956067968
2.8576071585005995,-0.203066550512057,2.8881683363640733,-0.6464002287592758
2.8555764929954788,-0.23325498218898158,2.8817043340764807,-0.6408090898612141
2.853243943173589,-0.263236276017415,2.8752962431778686,-0.6360355601074497
2.850611580413415,-0.2930702829144556,2.8689358875767943,-0.6320137866099335
2.84768087758427,-0.32281615206826264,2.8626157497106948,-0.6286791678522003
2.8444527160635875,-0.3525323646643564,2.8563289580321727,-0.6259683130898661
2.840927392416944,-0.38227678200230364,2.850069274901274,-0.623818981718772
2.837104624596921,-0.41210670445728675,2.843831085084086,-0.6221700078929532
2.832983557552348,-0.4420789381883841,2.8376093850051567,-0.62096121505647
2.828562768170464,-0.4722498668640406,2.831399772854592,-0.6201333245529052
2.8238402695018237,-0.5026755259687505,2.8251984396090633,-0.6196278620891444
2.818813514242136,-0.5334116774773514,2.819002160988172,-0.6193870655506307
2.8134793974673626,-0.5645138828383345,2.8128082903326654,-0.6193537974885627
2.8078342586389793,-0.5960375722985907,2.80661475235778,-0.619471465521079
2.8018738829159933,-0.6280381086317608,2.800420037702569,-0.6196839539068407
2.795593501829676,-0.660570843302879,2.7942231981635004,-0.6199355696580822
2.788987793396647,-0.6936911630146227,2.7880238424669197,-0.6201710067595853
2.782050881766501,-0.7274545244359193,2.781822132399324,-0.6203353323493819
2.774776336522142,-0.7619164747121581,2.77561877907583,-0.6203739990960465
2.76715717177502,-0.7971326550978871,2.76941503908487,-0.62023288847603
2.7591858452240414,-0.8331587847378258,2.7632127102001096,-0.6198583902119364
2.750854257376663,-0.8700506212511578,2.75701412629799,-0.6191975237769684
2.7421537511641514,-0.9078638943495313,2.7508221510602207,-0.6181981085976286
2.7330751122206562,-0.9466542082452603,2.7446401699742444,-0.6168089903881215
2.723608570138204,-0.9864769080904562,2.738472080070363,-0.6149803319121925
2.713743801057299,-1.0273869051423907,2.732322276751241,-0.6126639773701861
2.7034699320058753,-1.0694384547938844,2.7261956369775393,-0.6098139005192624
2.6927755474579365,-1.112684881067011,2.720097497972347,-0.6063867475076525
2.6816486986472663,-1.1571782406819735,2.7140336304972705,-0.6023424861766562
2.6700769162404465,-1.2029689194325746,2.708010205635504,-0.5976451741719085
2.658047227046121,-1.2501051533940821,2.702033753893785,-0.5922638584967088
2.64554617551218,-1.2986324675473058,2.6961111153088178,-0.5861736189919955
2.632559850836707,-1.3485930248357485,2.6902493791188977,-0.5793567674615342
2.6190739205883493,-1.400024879616455,2.6844558114442822,-0.5718042125608809
2.605073671792185,-1.4529611310791606,2.6787377693186736,-0.5635169978812222
2.590544060481393,-1.5074289746723248,2.6731025993398614,-0.5545080165989763
2.57546977073467,-1.5634486530801588,2.6675575191738714,-0.5448039003247671
2.559835284203868,-1.6210323130297575,2.6621094801706238,-0.5344470720708916
2.5436249610735704,-1.6801827803319949,2.6567650094499147,-0.5234979433051432
2.5268231332702507,-1.7408922731710363,2.6515300300168634,-0.5120372227046751
2.5094142105385404,-1.8031410827424261,2.6464096577898166,-0.5001682894640526
2.491382799711116,-1.8668962607182642,2.641407974895176,-0.4880195670950515
2.4727138371039334,-1.9321103642767878,2.6365277792242257,-0.4757468151789994
2.4533927334611656,-1.9987203208627464,2.6317703110724358,-0.4635352375378554
2.433405530252538,-2.066646485388336,2.627134958697057,-0.4516012873411094
2.4127390653986547,-2.1357919708252764,2.622618945823646,-0.4401940348717322
2.391381145690402,-2.206042337342653,2.618217005474929,-0.4295959546319229
2.369320722316975,-2.277265723387495,2.6139210459286097,-0.4201229880782829
2.3465480650831,-2.3493134924979766,2.6097198160478268,-0.41212374940832186
2.3230549301581203,-2.42202145066278,2.6055985785537437,-0.40597776683518344
2.2988347156514926,-2.495211659950009,2.601538800885392,-0.4020926919311156
2.2738825990519924,-2.568694835378104,2.5975178739660807,-0.400900464397758
2.2481956506982113,-2.6422732655792927,2.593508869322103,-0.4028524862854849
2.221772918042418,-2.71574414737652,2.5894803444592482,-0.40841393301379053
2.1946154765686527,-2.7889031751161912,2.5853962051291104,-0.4180574010804017
2.166726444817491,-2.8615481835710295,2.5812156311183063,-0.43225615517720106
2.1381109629817807,-2.9334826145865627,2.5768930695665344,-0.45147728149720584
2.1087761368359152,-3.004518567454957,2.5723782967515625,-0.4761750717343022
2.078730951161366,-3.0744792041734517,2.5676165460342193,-0.506784949132367
2.0479861591196316,-3.1432003132795767,2.5625486965428954,-0.5437182036508993
2.0165541559868356,-3.2105308867226614,2.5571115145063863,-0.5873577322073729
1.9844488471196091,-3.2763326274189923,2.5512379371843124,-0.6380548903976441
1.9516855208454191,-3.3404783732752974,2.544857388280336,-0.6961274650659861
1.9182807371126662,-3.4028494887831378,2.537896113629676,-0.7618586842564256
1.884252242224835,-3.463332331081494,2.5302775267871116,-0.8354971027949628
1.84961891891402,-3.5218139390625396,2.521922555759162,-0.9172571455564339
1.8144007795233945,-3.57817711969083,2.5127499843035976,-1.0073200602354286
1.7786190083264861,-3.632295115826633,2.502676783701243,-1.105835027387282
1.7422960571682198,-3.684026037145969,2.4916184334273703,-1.2129201948659694
1.70545579679676,-3.733207224140383,2.4794892314787105,-1.3286634418715413
1.6681237245553562,-3.7796496989649215,2.4662025970599952,-1.453122729165365
1.630327227565707,-3.823132840056185,2.4516713697683414,-1.5863259513503676
1.5920958991651453,-3.8633994030896806,2.435808110254838,-1.7282702700308383
1.5534619051342484,-3.9001510009950033,2.4185254075545295,-1.8789209698920166
1.5144603951242983,-3.933044151225115,2.3997361978556095,-2.0382099411269206
1.4751299536120472,-3.961686999011374,2.3793540984443404,-2.2060339499198514
1.4355130836219334,-3.985636829727078,2.3572937589451417,-2.3822529131226804
1.3956567153246626,-4.004398489797278,2.333471229813915,-2.5666884432051917
1.3556127304266898,-4.017423841378683,2.307804345381863,-2.7591229741645082
1.315438492012903,-4.024112378530893,2.280213115640218,-2.9592998169660287
1.275197368227594,-4.023813128977508,2.250620117470558,-3.166924522182085
1.234959236937819,-4.015827953194028,2.2189508722487368,-3.3816679449236586
1.1948009574058789,-3.9994163294246285,2.1851341927995,-3.603171409247641
1.1548067941116327,-3.9738016783732126,2.1491024787070234,-3.831054351514113
1.1150687773279004,-3.9381792355528558,2.1107919351918825,-4.064924779439924
1.0756869849723718,-3.891725426113513,2.070142687397483,-4.304392809707009
1.0367697307112367,-3.833608643831823,2.027098759300413,-4.549087434391188
0.9984336442729185,-3.7630012959101253,1.9816078849565009,-4.798676505056202
0.9608036313138172,-3.6790929694274546,1.9336211199059388,-5.0528896980226925
0.9240127016195426,-3.5811046364698766,1.8830922229257119,-5.311543910587434
0.8882016552548438,-3.4683039929636967,1.8299767838198375,-5.574570094153666
0.8535186153252069,-3.3400223964739797,1.7742310828783008,-5.842039884307188
0.820118391360467,-3.1956745452742887,1.715810684035229,-6.114189415990502
0.7881616459077242,-3.034783199603946,1.6546687898753238,-6.3914362046464035
0.7578138139116848,-2.857013152423392,1.59075442782886,-6.674382585929388
0.7292436823874509,-2.6622217102569783,1.524010601969566,-6.963795386633342
0.7026214652848811,-2.450537717208023,1.4543726481032326,-7.260545416923678
0.6781160881128009,-2.2224883853963875,1.381767193933996,-7.5654808936752
0.655891204258837,-1.9792035911457804,1.306112384997244,-7.8791947988610955
0.6360991683473791,-1.7227407768647574,1.227320437008633,-8.201627071224072
0.6188717605787315,-1.4565871053830903,1.1453041662963923,-8.531421764502308
0.6043058895249006,-1.1863977427516024,1.0599899486513693,-8.86495101961142
0.5924419120973846,-0.9209902329973616,0.9713404384552551,-9.194961009300567
0.583232009767411,-0.6734733280328978,0.8793908283622494,-9.508972732554547
0.5764972764870819,-0.46205798590555847,0.7843011010367039,-9.788002105146093
0.5718766966280263,-0.30956754092223204,0.686421079985243,-10.006872797488224
0.568781021218804,-0.2402871585678216,0.5863523520103608,-10.137918455812635
0.5663781496331258,-0.27355736308463957,0.4849731674522345,-10.158889514304848
0.5636425760022794,-0.4162290395049536,0.38338427230918604,-10.062315544994034
0.5594802856072298,-0.6589118871337255,0.2827611168592457,-9.859912180605297
0.5528911667358926,-0.979452029666835,0.18416199505319275,-9.577723023968012
0.5430966464392242,-1.3512051701003969,0.08838476481351262,-9.245445173804699
0.5295845947382202,-1.7503558824050012,-0.004069686924534369,-8.887484772639164
0.5120810359141702,-2.159148204579806,-0.092944534650926,-8.519549828356528
0.4904895538683721,-2.5657679171112955,-0.17814003293449127,-8.149498500972925
0.4648318746972592,-2.9628565014043815,-0.2596350179442205,-7.779738916162741
0.43520330968321536,-3.34597104704968,-0.33743240710584793,-7.409504743797079
0.40174359921271857,-3.7124525600730545,-0.4115274545438187,-7.03648513935908
0.36461907361198803,-4.06072161734941,-0.4818923059374095,-6.657845843470147
0.3240118574384939,-4.389887899597782,-0.548470764372111,-6.2708198076697705
0.2801129784425161,-4.699558012285035,-0.6111789624488086,-5.873026235527759
0.23311739831966574,-4.989756684150826,-0.6699092248040862,-5.462625203940795
0.18321983147815749,-5.260905785006303,-0.7245354768434942,-5.03837249879658
0.13061077362809445,-5.513826501246439,-0.77491920183146,-4.599612335109404
0.07547250861563007,-5.749743428774784,-0.8209153251825541,-4.146230990532142
0.01797507432788223,-5.9702774996454275,-0.8623776350878755,-3.6785878947596857
-0.041727700668572044,-6.17741913892036,-0.8991635140354723,-3.1974394001012225
-0.10350189205777564,-6.3734745782923286,-0.9311379080364846,-2.703872666953105
-0.16723663784069892,-6.560976834045673,-0.9581766347060156,-2.1992723210664136
-0.23284640618115565,-6.742547932806706,-0.9801693579166797,-1.6853511952735314
-0.3002718855092227,-6.920689641211266,-0.997022869869415,-1.1642896147596655
-0.3694787819213353,-7.0974655456199125,-1.0086657660170117,-0.6390461846306853
-0.44045343737753445,-7.274019079660796,-1.0150562278633186,-0.1139250278476136
-0.5131936281741424,-7.449857789962427,-1.0161954781417948,0.40450139210030955
-0.5876922060737666,-7.621848517257556,-1.0121504642207917,0.9060439875560364
-0.6639106912463422,-7.782970501816051,-1.0030900243452314,1.3752107496352286
-0.7417403962645027,-7.921166860624062,-0.9893379168488792,1.7897010130637936
-0.8209520648707433,-8.01919701200605,-0.9714409067182412,2.1204088756242685
-0.9011440349908039,-8.056981720089428,-0.9502368179619985,2.335095857359969
-0.9817138521916982,-8.017530698254077,-0.9268858593883988,2.4072763416507863
-1.061889159174239,-7.894843968167919,-0.902813095971891,2.327923676939389
-1.140837598855918,-7.698503953805094,-0.879533859202497,2.1122675574313026
-1.217822638393969,-7.450402530468162,-0.858411183628184,1.7949810599354303
-1.2923266636986506,-7.175792043759473,-0.8404613730288297,1.4168476268990338
-1.3640845841362452,-6.895436243265978,-0.8262928967598394,1.0127982751210731
-1.433038946568905,-6.6226528886295,-0.8161649140086287,0.607036809769
-1.4992654754552002,-6.36415997383113,-0.8100945459109387,0.2138596848967647
-1.5629070751935115,-6.122215933162759,-0.807955949061971,-0.15943438724851627
-1.624129234525139,-5.896548917690366,-0.8095502929344561,-0.5097902566901782
-1.6830947237020426,-5.685663549261545,-0.8146481955013579,-0.8364693069555225
-1.739951359194658,-5.487606002879668,-0.8230128885709131,-1.139882360960567
-1.7948274192234548,-5.300370345623002,-0.8344117121805188,-1.420942007107311
-1.8478311226796849,-5.1220951161958554,-0.8486211322515919,-1.680727376133795
-1.8990520738416434,-4.951145725742939,-0.8654284060129298,-1.9203241931556234
-1.9485635310990728,-4.786137864038038,-0.884631647944486,-2.1407584937639816
-1.996424909739453,-4.6259319950152245,-0.9060392328821258,-2.342978008854693
-2.0426842296896055,-4.469614732536659,-0.9294690129706727,-2.5278561029332436
-2.087380377014972,-4.316475120905044,-0.9547475740000052,-2.6962048869056754
-2.1305451282240226,-4.165979752183257,-0.9817096228690619,-2.8487905892800187
-2.1722049257458553,-4.0177485526899535,-1.010197528761862,-2.986347792373574
-2.212382411272755,-3.8715320267365136,-1.0400610066855978,-3.109591047105012
-2.25109773154012,-3.7271902484642103,-1.071156917156648,-3.2192234024576947
-2.2883696340247623,-3.5846736713205534,-1.103349151181225,-3.315941922496001
-2.3242163707379677,-3.4440057365096277,-1.136508570406185,-3.4004405317193704
-2.358656428103064,-3.305267232870782,-1.1705129757233788,-3.473410646913198
-2.391709100431772,-3.1685823541684184,-1.2052470821925108,-3.535540085849766
-2.423394923973456,-3.034106398395678,-1.2406024830510085,-3.5875107270237803
-2.4537359879574128,-2.9020150503578925,-1.2764775903212464,-3.629995351470855
-2.4827561384609917,-2.772495181663825,-1.312777543835955,-3.66365404056094
-2.51048109027763,-2.6457370919154926,-1.3494140842415645,-3.68913044066993
-2.536938461196785,-2.5219281029005174,-1.386305388648264,-3.7070481421797394
-2.56215774222579,-2.401247405658141,-1.4233758700700614,-3.7180073599118693
-2.5861702162823716,-2.2838620498733895,-1.4605559436691802,-3.7225820471906657
-2.6090088367811055,-2.1699239572080113,-1.4977817641410869,-3.7213175276650037
-2.630708076353186,-2.0595678355149647,-1.534994939417737,-3.714728688480284
-2.6513037547083353,-1.9529098696163179,-1.5721422263025397,-3.7032987455169293
-2.6708328534044985,-1.8500470663373467,-1.609175213757709,-3.6874785659012517
-2.689333324067872,-1.7510571364306133,-1.6460499994167217,-3.667686514245469
-2.7068438954321783,-1.6559988033929152,-1.6827268645591764,-3.644308776278431
-2.7234038834661076,-1.5649124384049118,-1.7191699523219608,-3.617700105767873
-2.7390530078501567,-1.4778209311304338,-1.7553469533796395,-3.5881849369533216
-2.753831217161461,-1.3947307173615073,-1.7912288027491727,-3.556058804174221
-2.767778524335076,-1.315632896016711,-1.826789390790915,-3.5215900121260457
-2.780934853295243,-1.2405043794101855,-1.8620052909121754,-3.485021503440822
-2.793339897089345,-1.169309031710558,-1.8968555059465837,-3.446572874414731
-2.8050329874064506,-1.101998760890619,-1.931321234690731,-3.4064424941636586
-2.816052975015357,-1.0385145390889041,-1.9653856596323676,-3.3648096868699344
-2.826438120406246,-0.9787873350788426,-1.999033756501067,-3.3218369408008215
-2.836225993757034,-0.9227389504250483,-2.0322521259090753,-3.2776721112537093
-2.8454533832612845,-0.8702827578779735,-2.0650288470216123,-3.232450587438523
-2.854156210840064,-0.8213243466047735,-2.0973533528959973,-3.1862973955601146
-2.862369454306112,-0.7757620839605248,-2.1292163268515987,-3.139329212107221
-2.8701270751457173,-0.733487607645071,-2.160609618972671,-3.0916562627504396
-2.877461951222168,-0.6943862652300553,-2.1915261816001754,-3.043384083509302
-2.8844058138744684,-0.6583375201325561,-2.2219600224352685,-2.994615122207874
-2.890989189075794,-0.6252153441096223,-2.251906173657347,-2.945450159946893
-2.89724134251689,-0.5948886162165691,-2.281360675256816,-2.89598953460847
-2.9031902286790556,-0.5672215469021086,-2.310320570602901,-2.8463341514629836
-2.9088624441480766,-0.5420741435384457,-2.3387839121175307,-2.7965862698832122
-2.914283185583461,-0.5193027302939153,-2.3667497748163626,-2.7468500600123527
-2.9194762128864005,-0.49876053100520595,-2.394218275416486,-2.6972319288976783
-2.9244638181964526,-0.48029831881990975,-2.421190594705463,-2.6478406218961608
-2.9292668013846517,-0.4637651311444158,-2.4476690009244244,-2.598787111785033
-2.933904452696096,-0.44900904317950113,-2.473656872042275,-2.5501842945904447
-2.938394543127891,-0.43587798841008096,-2.4991587149881793,-2.5021465172554325
-2.9427533230119916,-0.4242206101805028,-2.5241801801607338,-2.454788967475188
-2.9469955291137966,-0.4138871252335573,-2.5487280698354855,-2.4082269599470734
-2.951134400366132,-0.40473017804734984,-2.572810339434956,-2.362575155616416
-2.9551817021466054,-0.3966056640991844,-2.59643609099112,-2.317946751070351
-2.9591477587875974,-0.3893735008392018,-2.6196155585018235,-2.2744526740068456
-2.9630414937959895,-0.38289832707784976,-2.642360085241892,-2.2322008177958406
-2.966870477066768,-0.3770501144918704,-2.66468209341985,-2.191295343796026
-2.9706409782116867,-0.3717046787706121,-2.68659504685781,-2.1518360746370657
-2.974358024999393,-0.3667440822513844,-2.7081134076041806,-2.1139179955274896
-2.9780254658219065,-0.36205692441134363,-2.7292525875594555,-2.077630874225616
-2.98164603506602,-0.35753852099551614,-2.750028896301712,-2.043059004014366
-2.985221420275975,-0.35309097661191857,-2.7704594863418555,-2.010281068193659
-2.9887523300420944,-0.34862315912235003,-2.790562297023792,-1.9793701195092783
-2.992238561633318,-0.3440505869773785,-2.810355998218885,-1.950393663746672
-2.995679067503092,-0.339295242730844,-2.8298599348563513,-1.923413833512959
-2.9990720199304004,-0.33428532732844946,-2.849094073191481,-1.8984876360095777
-3.002414873203685,-0.32895497045132993,-2.8680789495515766,-1.8756672572944433
-3.005704422908198,-0.32324391229813176,-2.886835622124521,-1.8550004050318933
-3.008936862031179,-0.31709717181723523,-2.90538562617484,-1.8365306718891248
-3.0121078337493516,-0.3104647156699189,-2.9237509328937312,-1.8202979024074941
-3.015212480906051,-0.3033011412263415,-2.941953911917806,-1.8063385472094702
-3.0182454923183144,-0.2955653857669061,-2.960017297389901,-1.794685989667262
-3.0212011461759833,-0.2872204728607097,-2.9779641572865736,-1.7853708315516235
-3.0240733509045903,-0.27823330567716836,-2.9958178656020897,-1.778421125622254
-3.026855683961362,-0.26857451579011826,-3.0136020768583123,-1.7738625445682679
-3.0295414291192633,-0.2582183748664137,-3.031340702303995,-1.7717184771423093
-3.0321236128679274,-0.24714277548252675,-3.0490578870754184,-1.7720100437673811
-3.0345950406227526,-0.23532928615286514,-3.0667779875130923,-1.7747560253693109
-3.0369483334842813,-0.2227632844359505,-3.0845255477667854,-1.7799727007600106
-3.039175966328641,-0.20943417064953396,-3.1023252747743855,-1.7876735896449487
-3.041270308035136,-0.19533566320433277,-3.120202010670835,-1.797869100342485
-3.0432236646671793,-0.1804661747853637,-3.1381807016742598,-1.8105660836784452
-3.045028326415033,-0.1648292664989877,-3.1562863625110444,-1.8257672973491805
-3.046676619080023,-0.14843417460203506,-3.1745440354845362,-1.843470788409333
-3.0481609608260434,-0.1312964014959875,-3.1929787433686294,-1.8636692054886472
-3.049473924841003,-0.1134383592951878,-3.211615435423516,-1.8863490568843608
-3.0506083084339553,-0.09489005049973481,-3.2304789259923594,-1.911489935759748
-3.0515572089389527,-0.07568976621690279,-3.2495938253499568,-1.9390637391724785
-3.0523141066011217,-0.0558847781483126,-3.2689844627416815,-1.9690339133273178
-3.0528729543826048,-0.03553199644548867,-3.2886748018749548,-2.0013547629528796
-3.0532282743470596,-0.014698561872496126,-3.3086883495044837,-2.0359708675813954
-3.0533752599657844,0.006537662079927776,-3.3290480581802977,-2.07281665119594
-3.053309883344985,0.028087732930113546,-3.349776224692257,-2.1118161535544018
-3.053029006015684,0.049851444188582124,-3.370894386227801,-2.1528830508294954
-3.052530491573798,0.07171734426476009,-3.392423216736096,-2.1959209693939448
-3.0518133181311504,0.09356298657164888,-3.4143824264300355,-2.240824129150665
-3.050877688265434,0.11525542984260534,-3.4367906677215423,-2.2874783415360853
