th1 (rad),w1 (rad/s),th2 (rad),w2 (rad/s),a1 (rad/s^2),a2 (rad/s^2)
6.095600250420066,-2.7430970056868875,5.658397120091618,-2.9017243788319282,-6.774786117092942,15.05577840993926
6.068169280363198,-2.810844866857817,5.629379876303299,-2.7511665947325357,-6.3263021687873175,15.04408976935972
6.040060831694619,-2.8741078885456903,5.601868210355974,-2.6007256970389383,-5.859429342141191,14.982991186877333
6.011319752809163,-2.932702181967102,5.575860953385584,-2.450895785170165,-5.377120920799592,14.871392907486431
5.981992730989492,-2.9864733911750982,5.551351995533882,-2.3021818560953005,-4.8814473299010555,14.707737382955848
5.952127997077741,-3.0352878644741086,5.528330176972929,-2.155104482265742,-4.37367106142528,14.490150659364822
5.9217751184330005,-3.0790245750883614,5.506779132150272,-2.010202975672094,-3.8543290728683166,14.21658542567278
5.890984872682117,-3.1175678658170445,5.486677102393551,-1.868037121415366,-3.323328034613832,13.884964472436636
5.8598091940239465,-3.150801146163183,5.467996731179397,-1.7291874766909996,-2.7800582033355017,13.493334033040147
5.828301182562314,-3.1786017281965377,5.450704856412488,-1.5942541363605982,-2.223531368059543,13.040036107525523
5.796515165280349,-3.2008370418771332,5.434762315048881,-1.4638537752853429,-1.6525471046322664,12.523907157697394
5.764506794861577,-3.2173625129234558,5.420123777296028,-1.3386147037083689,-1.0658892591464633,11.944507181133298
5.7323331697323425,-3.2280214055149203,5.406737630258944,-1.219169631897036,-0.46255093669066727,11.30237781498475
5.700052955677194,-3.232646914881827,5.394545933939974,-1.1061458537471884,0.1580188086310579,10.599320675100515
5.667726486528376,-3.2310667267955164,5.383484475402502,-1.0001526469961832,0.7956597352176514,9.838677904549897
5.6354158192604205,-3.2231101294433397,5.373482948932541,-0.9017658679506843,1.4492567827100464,9.025586842944886
5.603184717965987,-3.208617561616239,5.364465290253034,-0.8115099995212354,2.116534675828289,8.167171605416556
5.571098542349825,-3.1874522148579563,5.356350190257822,-0.7298382834670698,2.7939215941249307,7.2726287223756945
5.539224020201245,-3.159512998916707,5.349051807423151,-0.6571119962433128,3.4765126394083787,6.353164762543752
5.507628890212078,-3.124747872522623,5.342480687460718,-0.5935803486178753,4.158157658806361,5.421753532908793
5.476381411486852,-3.08316629593456,5.336544883974539,-0.5393628132887874,4.8316849944305,4.492699959475589
5.445549748527506,-3.034849445990255,5.331151255841651,-0.49443581369403156,5.48925396885334,3.5810254345639563
5.415201254067604,-2.9799569063017213,5.326206897704711,-0.458625559348392,6.1228075184374005,2.70172056287356
5.385401685004587,-2.918728831117347,5.321620642111227,-0.4316083537196564,6.724577144432244,1.8689387963023214
5.356214396693414,-2.8514830596730247,5.31730455857403,-0.41291896575663317,7.2875804086434535,1.0952209319065325
5.327699566096683,-2.77860725558659,5.313175368916464,-0.40196675643756785,7.806050283677532,0.39084052234939015
5.299913493540817,-2.700546752749815,5.309155701352088,-0.39805835121407396,8.27574658969237,-0.23665711261721634
5.272908026013319,-2.6177892868528914,5.305175117839947,-0.4004249223402461,8.694119930186911,-0.7826804376053077
5.24673013314479,-2.530848087551022,5.301170868616545,-0.4082517267162992,9.060322851436426,-1.245576677874966
5.22142165226928,-2.440244859036658,5.297088351349382,-0.4207074934950489,9.375085524761943,-1.6264049365109587
5.197019203678913,-2.3464940037890387,5.292881276414431,-0.4369715428601585,9.640489410166767,-1.9285502807607466
5.173554263641022,-2.250089109687371,5.28851156098583,-0.456257045667766,9.859679857245593,-2.1572427015185083
5.1510533725441485,-2.1514923111149153,5.283948990529153,-0.47782947268295106,10.036557786834885,-2.319043438931627
5.129538449432999,-2.0511267332465666,5.279170695802323,-0.5010199070722673,10.17548369470532,-2.4213505855883657
5.109027182100534,-1.9493718962995135,5.2741604967316,-0.525233412928151,10.281017194312325,-2.4719605578220576
5.089533463137538,-1.8465617243563903,5.268908162602319,-0.5499530185063716,10.35770488843866,-2.4787060389713376
5.071067845893975,-1.7429846754720038,5.2634086324172555,-0.5747400788960849,10.40992041968231,-2.4491771976443695
5.053637999139254,-1.6388854712751806,5.257661231628295,-0.5992318508725286,10.44175402200559,-2.390522788272539
5.037249144426502,-1.5344679310551248,5.25166891311957,-0.623137078755254,10.456944909336796,-2.3093213804928956
5.02190446511595,-1.4298984819617568,5.245437542332017,-0.6462302925601829,10.458848022555108,-2.2115099131015747
5.007605480296332,-1.3253100017362058,5.2389752394064155,-0.6683453916911987,10.45042642849699,-2.1023561687797914
4.99435238027897,-1.220805737451236,5.232291785489504,-0.6893689533789966,10.434261429056995,-1.9864627309727365
4.982144322904458,-1.116463123160666,5.225398095955714,-0.709233580688724,10.412573701919502,-1.8677917701882116
4.970979691672851,-1.012337386141471,5.2183057601488265,-0.7279114983906061,10.38725020418619,-1.7497020736627658
4.960856317811436,-0.9084648840996091,5.21102664516492,-0.7454085191272337,10.359872906961757,-1.6349917374441754
4.951771668970441,-0.8048661550299916,5.203572559973647,-0.7617584365016755,10.331746579510636,-1.5259416998001947
4.943723007420141,-0.7015486892348852,5.195954975608631,-0.7770178534996774,10.303923766163871,-1.4243567377721025
4.936707520527793,-0.5985094515732465,5.188184797073634,-0.7912614208773985,10.27722580327442,-1.3316016731873836
4.930722426012061,-0.49573719354050233,5.180272182864861,-0.8045774376092724,10.252259236827374,-1.2486313776982332
4.925765054076655,-0.3932146011722286,5.1722264084887675,-0.8170637513862546,10.22942736352666,-1.1760137829487327
4.921832908064933,-0.290920327536962,5.164055770974905,-0.828823889215742,10.208936870889813,-1.113945550954995
4.918923704789563,-0.1888309588280639,5.155767532082748,-0.839963344725292,10.19079973445992,-1.0622603984309342
4.917035395201283,-0.08692296148346468,5.147367898635495,-0.8505859487096014,10.174830678357473,-1.0204303497562697
4.916166165586448,0.014825345300110052,5.138862039148399,-0.8607902522071641,10.160640650916163,-0.9875604641720946
4.916314419039449,0.11643175180927168,5.130254136626327,-0.8706658568488851,10.14762693854012,-0.9623778865200703
4.917478736557542,0.21790802119467287,5.121547478057838,-0.8802896357140858,10.13496076341555,-0.9432164457504175
4.919657816769488,0.31925762882882835,5.112744581700698,-0.88972180017159,10.121573505672515,-0.9279985042598679
4.922850393057777,0.4204733638855535,5.103847363698982,-0.8990017852141886,10.106143073542006,-0.9142163681071446
4.927055126696632,0.5215347946209736,5.09485734584684,-0.9081439488952601,10.08708242182184,-0.8989163133475943
4.932270474642841,0.622405618839192,5.085775906357887,-0.917133112028736,10.06253277957876,-0.8786891540683814
4.938494530831234,0.7230309466349796,5.0766045752376,-0.9259200035694198,10.030364758215239,-0.8496722245742026
4.945724840297584,0.823334594217132,5.067345375201906,-0.9344167258151619,9.98819110198358,-0.8075685722705955
4.953958186239755,0.9232165052369677,5.058001207943755,-0.9424924115378679,9.933395301014132,-0.7476898938433063
4.963190351292125,1.022550458247109,5.048576283828376,-0.949969310476301,9.863180446550388,-0.6650300537576971
4.973415855874596,1.121182262712613,5.039076590723613,-0.9566196110138779,9.774642354889396,-0.5543755860576915
4.984627678501722,1.2189286862615067,5.029510394613474,-0.9621633668744548,9.664869876794825,-0.4104580376105822
4.996816965364337,1.315577385029455,5.019888760944729,-0.9662679472505606,9.531073215259882,-0.2281500222248587
5.009972739214631,1.4108881171820538,5.010226081472224,-0.9685494474728092,9.370737860835524,-0.0027022077535850146
5.024081620386451,1.504595495790409,5.000540586997496,-0.968576469550345,9.181797478914287,0.26998778389781675
5.039127575344356,1.5964134705795519,4.990854822301992,-0.9658765917113669,8.96281410816158,0.5930909228885899
5.055091710050151,1.6860416116611676,4.981196056384879,-0.9599456824824809,8.7131490893452,0.9685705164481996
5.071952126166763,1.7731731025546196,4.971596599560054,-0.9502599773179989,8.433104330080296,1.3969437891176861
5.089683857192309,1.8575041458554225,4.962093999786874,-0.936290539426822,8.124012104590054,1.8771134492002308
5.108258898650863,1.938744266901323,4.952731094392606,-0.9175194049348198,7.788253732628131,2.4062988487015735
5.127646341319877,2.0166268042276045,4.943555900343258,-0.893456416447804,7.429193753086434,2.9800878419234014
5.147812609362153,2.0909187417584687,4.93462133617878,-0.86365553802857,7.051026216522052,3.592616451324207
5.168721796779738,2.1614290039236894,4.925984780798494,-0.8277293735153279,6.658541950419909,4.236866040338434
5.1903360868189745,2.2280144234278887,4.917707487063341,-0.7853607131119436,6.2568376795833265,4.90505027982297
5.212616231053254,2.290582800223722,4.909853879932221,-0.7363102103137138,5.850997002849769,5.589050650874155
5.235522059055491,2.34909277025222,4.902490777829084,-0.6804197038049723,5.445777270430734,6.280852714333953
5.259012986758013,2.4035505429565274,4.895686580791034,-0.6176111766616328,5.04533446635156,6.972937315558674
5.283048492187579,2.454003887620043,4.889510469024418,-0.547881803506046,4.653010922017728,7.658590511145234
5.307588531063779,2.50053399684022,4.884031650989358,-0.4712958983945936,4.271200008824928,8.33211067013162
5.332593871032181,2.5432459969284693,4.879318692005412,-0.3879747916932774,3.9012904328699687,8.988907360057613
5.358026331001465,2.582258901257169,4.875438944088479,-0.2980857180927013,3.5436827489559315,9.625500924555745
5.383848920014037,2.617695728746728,4.872458086907552,-0.20183070884714382,3.197863796239992,10.239441810379718
5.410025877301504,2.649674366709128,4.870439779819081,-0.09943629074334664,2.862521477625453,10.829173848659277
5.436522620968596,2.6782995814853825,4.869445416911647,0.008855447743246134,2.535682301446965,11.393866247743372
5.463305616783449,2.7036564044998523,4.86953397138908,0.12279411022067985,2.214856462528754,11.933236224768006
5.490342180828447,2.72580496912514,4.870761912491287,0.24212647246835992,1.897178874129914,12.44737946904235
5.517600230519699,2.744776757866439,4.873183177215971,0.3666002671587834,1.57953851080958,12.93662032213408
5.545047998098363,2.7605721429745347,4.876849179887559,0.4959664703801242,1.2586920029718773,13.401388632905125
5.572653719528109,2.7731590630042535,4.88180884459136,0.6299803567091755,0.9313602638263926,13.842126234300045
5.600385310158152,2.7824726656425174,4.888108648158451,0.768401619052176,0.5943089128495503,14.259223070028426
5.628210036814577,2.788415754771013,4.895792664348973,0.9109938497524602,0.24441444349068775,14.652981108903692
5.6560941943622876,2.7908598992059197,4.904902602846498,1.057523660841497,-0.12128138541175626,15.023603128891565
5.684002793354347,2.789647085351802,4.915477839454913,1.2077596921304128,-0.5055263988946289,15.371202996327986
5.711899264207865,2.7845918213628558,4.927555436376217,1.3614717220936927,-0.9108198130450956,15.695833985744637
5.739745182421494,2.7754836232324047,4.941170153597154,1.518430061951139,-1.3393791404075446,15.997531799878555
5.767500018653818,2.7620898318283293,4.956354454216665,1.6784053799499246,-1.7931108204956734,16.27636912301605
5.795120916972102,2.7441587236233724,4.973138508016165,1.841169071180085,-2.2735836735151285,16.53251868283866
5.822562504208335,2.721422886888221,4.991550198727966,2.0064942580084715,-2.782004673070418,16.766321849684335
5.849776733077217,2.6936028401575167,5.0116151413080505,2.174157476505315,-3.319196811769597,16.978359733892507
5.876712761478792,2.660410872039821,5.033356716073103,2.34394107384424,-3.8855789508469964,17.169523529581692
5.90331687019919,2.621555082531351,5.0567961268115456,2.515636309140057,-4.481147457528583,17.341080475311664
5.929532421024504,2.576743607956065,5.081952489902946,2.6890471138931735,-5.105459089710619,17.494731226528042
5.955299857104065,2.525689017058959,5.108842961041878,2.863994426158454,-5.757613919720031,17.63265360665667
5.980556747274655,2.4681128778617585,5.137482905303463,3.0403209622250205,-6.436236008745036,17.757526531420794
6.005237876053272,2.403750517774308,5.167886114925713,3.2178962275392284,-7.139447931587162,17.87252623823454
6.029275381231015,2.3323560384584363,5.200065077201105,3.3966214899215736,-7.864832946540171,17.981284577535664
6.052598941615599,2.2537077089930344,5.234031292100321,3.57643433569693,-8.60937539128865,18.087795713132934
6.07513601870553,2.167613955080148,5.26979563545729,3.7573122928282596,-9.369365478476904,18.196252685035475
6.0968121582563315,2.073920300295379,5.307368758385572,3.9392748196786145,-10.14024870563281,18.310788317443542
6.117551361259285,1.9725178132390508,5.346761506582358,4.1223827028530495,-10.916392168855943,18.435085180935594
6.137276539391676,1.8633538915504915,5.387985333610889,4.306733554662405,-11.690729786438625,18.571805974188127
6.155910078307181,1.7464465936861053,5.431052669157513,4.4924516144042865,-12.45423564557236,18.721778240065046
6.173374544244042,1.6219042372303818,5.475977185301556,4.679669396804937,-13.1951599743911,18.882846122779636
6.189593586616345,1.4899526374864709,5.5227738792696055,4.868497858032733,-13.897948011726935,19.048279556311495
6.2044931129912095,1.3509731573692014,5.571458857849933,5.058980653595849,-14.541754582440412,19.204615609078513
6.218002844564902,1.2055556115447974,5.622048664385892,5.251026809686634,-15.098480400396022,19.328815703965624
6.23005840068035,1.054570807540837,5.674558932482758,5.44431496672629,-15.530317576178598,19.384692739896057
6.240604108755758,0.8992676317790511,5.7290020821500205,5.6381618941252505,-15.78695057475614,19.318760312162848
6.249596785073549,0.7413981260314897,5.785383701091273,5.831349497246879,-15.802890850510272,19.05608711995814
6.257010766333864,0.5833692175263869,5.843697196063742,6.02191036844646,-15.496019333090446,18.497532130195847
6.262844458509128,0.42840902419548244,5.903916299748206,6.206885689748418,-14.76931237761641,17.5209584135236
6.267128548751082,0.2807159004193183,5.965985156645691,6.382095273883654,-13.518753710729886,15.990450438417781
6.269935707755276,0.14552836331201946,6.029806109384528,6.541999778267832,-11.650877664454066,13.77824929197901
6.2713909913883965,0.029019586667478794,6.095226107167206,6.679782271187622,-9.111746991857432,10.80204597638589
6.271681187255071,-0.062097883251095526,6.162023929879083,6.787802730951481,-5.92362116207107,7.072942404929209
6.27106020842256,-0.12133409487180623,6.229901957188598,6.8585321550007725,-2.2162102352434396,2.73686890577266
6.269846867473842,-0.14349619722424062,6.298487278738605,6.885900844058499,1.768274491463074,-1.9180924347917832
6.2684119055016,-0.12581345230960989,6.36734628717919,6.866719919710581,5.712480238640904,-6.509913892941463
6.267153770978505,-0.06868864992320084,6.436013486376296,6.801620780781167,9.297781802300294,-10.658225503341257
6.266466884479272,0.02428916809980211,6.504029694184108,6.695038525747754,12.282527833619902,-14.084429792192783
6.266709776160271,0.14711444643600113,6.570980079441585,6.5541942278258265,14.547138940805652,-16.667028320906645
6.268180920624631,0.2925858358440577,6.636522021719844,6.38752394461676,16.09121428543157,-18.43383253615138
6.2711067789830715,0.4534979786983734,6.700397261166011,6.203185619255246,16.996882846833255,-19.511297674849548
6.275641758770055,0.623466807166706,6.762429117358564,6.00807264250675,17.38414991996388,-20.06550751011779
6.281876426841722,0.7973083063663448,6.822509843783632,5.807417567405572,17.37644904151055,-20.258305106513898
6.289849509905386,0.9710727967814503,6.880584019457688,5.604834516340433,17.081623648222898,-20.22448328473085
6.2995602378732,1.1418890332636793,6.936632364621092,5.402589683493124,16.585327737283013,-20.065271700649035
6.310979128205837,1.3077423106365094,6.990658261456023,5.201936966486634,15.951651115849964,-19.850884952690567
6.324056551312202,1.467258821795009,7.042677631120889,5.003428116959728,15.226806850853578,-19.626579718179066
6.338729139530152,1.619526890303545,7.092711912290486,4.807162319777937,14.443444663597182,-19.419104754604355
6.354924408433187,1.7639613369395168,7.140783535488266,4.612971272231894,13.624483268871563,-19.24222050430192
6.3725640218025825,1.9002061696282324,7.186913248210585,4.420549067188874,12.78611989011932,-19.10095642946322
6.391566083498865,2.0280673685294257,7.231118738882474,4.229539502894242,11.940031521345308,-18.994709600759425
6.411846757184159,2.147467683742879,7.273414133911416,4.039592406886648,11.09490979594178,-18.919423580712802
6.433321434021588,2.2584167817022966,7.313810057980282,3.8503981710795196,10.257491458900468,-18.86908886371972
6.4559056018386105,2.3609916962913013,7.352314039691077,3.6617072824423222,9.433225638503481,-18.83676244321255
6.479515518801524,2.455323952676336,7.3889311125155,3.4733396580101967,8.626688225242603,-18.815253427477174
6.5040687583282875,2.541590834928762,7.423664509095603,3.285187123735425,7.841824888285852,-18.797578251751723
6.529484666677575,2.6200090838116203,7.456516380332957,3.097211341217908,7.082081163355564,-18.77725616526946
6.555684757515691,2.690829895445176,7.487488493745136,2.9094387795652135,6.350460717337428,-18.74849236356891
6.582593056470143,2.7543345026185504,7.5165828815407885,2.721953855929524,5.649540303086797,-18.706280296500783
6.610136401496329,2.8108299056494186,7.543802420100084,2.5348910529645163,4.9814608828415565,-18.646444246709983
6.638244700552823,2.8606445144778343,7.56915133062973,2.3484266104974165,4.3479079234662645,-18.565636566274666
6.666851145697602,2.9041235937124967,7.592635596734704,2.16277024483467,3.750089204257483,-18.461299732894847
6.695892381634727,2.9416244857550717,7.614263299183051,1.9781572475057214,3.188715102349433,-18.331600756542095
6.725308626492278,2.973511636778566,7.634044871658109,1.7948412399403004,2.663983875008134,-18.17534382679699
6.755043742860063,3.0001514755286474,7.651993284057512,1.6130878016723305,2.1755727051612004,-17.9918660399981
6.78504525761535,3.0219072025802594,7.6681241620742355,1.4331691412723495,1.7226340606780195,-17.78092033320399
6.815264329641153,3.0391335431870394,7.682455853486959,1.2553599379403095,1.3037961382218175,-17.54254923722474
6.845655665073023,3.0521715045692575,7.695009452866363,1.0799344455680622,0.9171657558334327,-17.27695268260401
6.876177380118715,3.0613431621275917,7.705808797322043,0.9071649187420221,0.5603319901425974,-16.98435285062171
6.906790811739992,3.0669464820290178,7.714880446509463,0.737321390235805,0.23036911389029263,-16.6648590044807
6.937460276560282,3.0692501731679207,7.7222536604118215,0.570672800190998,-0.07616200996280435,-16.318335451236713
6.9681527782919614,3.068488553068293,7.727960388413732,0.4074894456786309,-0.36321394461864487,-15.94427639140029
6.998837663822644,3.0648564136221066,7.732035282870518,0.24804668176462796,-0.635252565943408,-15.541692550306811
7.029486227958865,3.0585038879626727,7.734515749688164,0.09262975626155984,-0.8972533758767345,-15.10901629630389
7.0600712668384915,3.0495313542039053,7.735442047250779,-0.05846040670147906,-1.1546883490593747,-14.644034547760663
7.09056658038053,3.0379844707133117,7.734857443183764,-0.20490075217908568,-1.4134944236028217,-14.14386217446136
7.120946425087664,3.0238495264772833,7.7328084356619735,-0.3463393739236993,-1.6800113362610507,-13.604972637969157
7.151184920352437,3.007049413114673,7.729345041922737,-0.4823891003033909,-1.960873040618456,-13.023306778779252
7.181255414483584,2.9874406827084883,7.724521150919703,-0.6126221680911834,-2.262834173070397,-12.394483903032484
7.211129821310669,2.9648123409777845,7.718394929238791,-0.7365670071215082,-2.5925122022698,-11.714139880826124
7.240777944720446,2.9388872189550863,7.711029259167575,-0.8537084059297695,-2.956028862724256,-10.978412256070653
