th1 (rad),w1 (rad/s),th2 (rad),w2 (rad/s),a1 (rad/s^2),a2 (rad/s^2)
2.0915003640846717,2.602356257840357,3.6506172370113754,0.8933676969456913,-8.091067863315294,-1.9015069837351266
2.1175239266630754,2.521445579207204,3.659550913980832,0.87435262710834,-7.971050347401743,-1.273715742744267
2.1427383824551476,2.4417350757331864,3.6682944402519158,0.8616154696808974,-7.8542818926313265,-0.6744495854569559
2.1671557332124793,2.3631922568068733,3.676910594948725,0.8548709738263278,-7.740518638732932,-0.10295483898073304
2.190787655780548,2.285787070419544,3.6854593046869883,0.8538414254365205,-7.629380733887718,0.44152865308173894
2.2136455264847434,2.2094932630806667,3.6939977189413535,0.8582567119673379,-7.520377528927703,0.9597538682197104
2.2357404591155503,2.13428948779139,3.702580286061027,0.867854250649535,-7.4129301661024245,1.4524577173655706
2.257083353993464,2.0601601861303656,3.7112588285675225,0.8823788278231908,-7.3063917968441014,1.920356208458767
2.2776849558547676,1.9870962681619246,3.7200826168457546,0.9015823899077784,-7.2000656418439695,2.364142977615334
2.297555918536387,1.915095611743485,3.729098440744832,0.9252238196839317,-7.093221080742001,2.784490551689944
2.3167068746538217,1.844163400936065,3.7383506789416714,0.9530687252008312,-6.985107931360312,3.182053758118772
2.3351485086631825,1.7743123216224619,3.74788136619368,0.9848892627820189,-6.874969052226225,3.557474752791578
2.352891631879407,1.7055626311001997,3.7577302588215002,1.0204640103099347,-6.762051378806276,3.911389192870349
2.3699472581904093,1.637942117312137,3.7679348989245995,1.0595779022386382,-6.645615484322509,4.244433137778852
2.3863266793635307,1.5714859624689117,3.778530677946986,1.1020222336164267,-6.524943740541579,4.557250316995268
2.40204153898822,1.506236525063496,3.7895509002831504,1.1475947367863795,-6.399347142333686,4.8504994568181425
2.417103904238855,1.4422430536401591,3.801026847651014,1.196099731354561,-6.268170851587141,5.124861409033009
2.4315263347752567,1.3795613451242876,3.81298784496456,1.247348345444891,-6.130798510557713,5.381045871572285
2.4453219482264994,1.3182533600187105,3.8254613284190087,1.301158804160614,-5.986655371217998,5.619797534188775
2.4585044818266866,1.2583868063065304,3.838472916460615,1.3573567795025017,-5.835210285023209,5.841901520440716
2.471088349889752,1.2000347034562984,3.8520464842556397,1.4157757947069087,-5.675976596268425,6.048188030784928
2.4830886969243147,1.1432749374936142,3.8662042422027088,1.476257675014758,-5.508511981638968,6.2395361204682445
2.4945214462992507,1.0881898176772244,3.880966818952856,1.5386530362194404,-5.332417278637146,6.416876570648634
2.505403344476023,1.034865644890853,3.8963533493150506,1.6028218019259268,-5.147334346487436,6.581193832433932
2.5157520009249317,0.9833923014259788,3.91238156733431,1.6686337402502662,-4.952943005194835,6.733527042079519
2.5255859239391913,0.9338628713740305,3.929067904736813,1.7359690106710615,-4.748957102028027,6.8749701222104
2.5349245526529316,0.8863733003537502,3.9464275948435237,1.8047187118931656,-4.535119760158397,7.006670999267135
2.5437882856564693,0.8410221027521662,3.9644747819624553,1.8747854218858369,-4.3111978717375266,7.12982998181062
2.552198506683991,0.7979101240347909,3.9832226361813134,1.946083721703943,-4.076975907406588,7.245697357919456
2.560177607924339,0.757140364960725,4.002683473398353,2.0185406952831375,-3.832249125983954,7.355570282366968
2.567749011573946,0.7188178737008855,4.022868880351184,2.0920963981068073,-3.576816281583759,7.460789034901556
2.574937190310955,0.6830497108850478,4.0437898443322515,2.166704288455823,-3.310471940269573,7.562732738792816
2.5817676874198052,0.6499449914823521,4.0654568872168095,2.242331615843751,-3.032998534092662,7.662814632644997
2.5882671373346287,0.6196150061414254,4.0878802033752475,2.318959762170201,-2.7441582966088167,7.762476987008433
2.5944632873960427,0.5921734231753373,4.111069800996949,2.3965845320402854,-2.443685240477814,7.863185749235261
2.600385021627796,0.5677365707705592,4.135035646317352,2.4752163895326382,-2.131277354550485,7.966424984136669
2.6060623873355016,0.5464237972250543,4.159787810212678,2.554880639374005,-1.8065892153059144,8.073691153302132
2.6115266253077523,0.5283579050719952,4.185336616606418,2.6356175509070265,-1.4692252263746226,8.186487241663869
2.616810204358472,0.5136656528082489,4.211692792115488,2.7174824233236654,-1.1187337213492605,8.306316695489837
2.6219468608865544,0.5024783155947563,4.238867616348725,2.800545590278564,-0.7546021907244717,8.434677081122123
2.6269716440425017,0.49493229368751157,4.266873072251511,2.884892361089785,-0.3762539255691223,8.573053308238299
2.631920966979377,0.49116975443182037,4.295721995862409,2.970622894172168,0.016953589344778572,8.722910185066352
2.6368326645236952,0.49133929032526813,4.3254282248041305,3.0578519960228316,0.42572814932124425,8.885683985708535
2.641746057426948,0.49559657181848055,4.3560067447643585,3.146708835879917,0.8508397226025872,9.062772611398652
2.646702023145133,0.5041049690445064,4.387473833123158,3.237336561993904,1.2931142346428224,9.255523818037013
2.6517430728355778,0.5170361113909346,4.419847198743097,3.329891800174274,1.7534236185750383,9.46522086178778
2.6569134339494873,0.534570347576685,4.45314611674484,3.4245440087921515,2.2326713900142603,9.693064783372655
2.662259137425254,0.5568970614768276,4.487391556832761,3.521474656625878,2.7317728682710887,9.940152411272456
2.6678281080400224,0.5842147901595385,4.522606303399019,3.6208761807386027,3.251629011892753,10.207449017124393
2.6736702559416177,0.616731080278466,4.558815065206406,3.7229506709098468,3.7930926680156376,10.495754408271322
2.6798375667444025,0.6546620069586224,4.596044571915504,3.82790821499256,4.356925859737229,10.805661101279549
2.6863841868139886,0.6982312655559947,4.63432365406543,3.9359648260053555,4.943746566142182,11.137503099944507
2.6933664994695485,0.7476687312174165,4.673683302325483,4.0473398570048005,5.553963305358241,11.491293722497197
2.700843186781723,0.803208364270999,4.714156700895531,4.162252794229772,6.187695741174143,11.866650915397667
2.708875270424433,0.8650853216827404,4.755779228837829,4.280919303383749,6.8446795397760205,12.262708597241353
2.7175261236412602,0.9335321170805007,4.798588421871667,4.403546389356163,7.524153861973275,12.678012852623322
2.7268614448120654,1.0087736557002334,4.842623885765229,4.530326517882396,8.224730263248151,13.110402316070468
2.736949181369068,1.0910209583327148,4.887927150944053,4.661430541043101,8.944242484908052,13.556872942238742
2.747859390952395,1.1804633831817954,4.934541456354484,4.796999270465489,9.679577770664466,14.013428658871984
2.759664024784213,1.27725916088844,4.982511449059139,4.937133557054208,10.426492066087576,14.474921262105712
2.7724366163930974,1.3815240815493157,5.031882784629681,5.081882769675265,11.1794138899372,14.934885454417119
2.7862518572085904,1.4933182204486877,5.082701612326433,5.231231624219436,11.931244924830187,15.385378229948223
2.801185039413077,1.6126306696969896,5.135013928568628,5.385085406518918,12.67316952362265,15.81683589748989
2.817311346110047,1.7393623649332162,5.188864782633817,5.543253765493817,13.394490320413494,16.217966789401952
2.834704969759379,1.873307268137351,5.244297320288755,5.705433433387836,14.082512739046049,16.575702825619
2.8534380424407524,2.0141323955278114,5.301351654622634,5.8711904616440265,14.72250690021536,16.875237990302843
2.8735793663960303,2.161357464529965,5.360063559239074,6.039942841547055,15.29778036898945,17.1001854762004
2.89519294104133,2.3143352682198595,5.4204629876545445,6.210944696309059,15.789898061689405,17.232886400572905
2.9183362937235287,2.4722342488367537,5.482572434617635,6.383273560314788,16.17908474252505,17.25489989506238
2.9430586362118962,2.634025096262004,5.546405170220783,6.555822559265412,16.444838936559016,17.14769518423535
2.969398887174516,2.798473485627594,5.611963395813437,6.727299511107765,16.56677293116633,16.89354944351662
2.997383622030792,2.964141214939257,5.679236390924515,6.896235005542931,16.525670708198874,16.476630145830775
3.0270250341801845,3.129397922021246,5.748198740979944,7.061001307001239,16.304724511381952,15.884208365730606
3.058319013400397,3.2924451671350656,5.8188087540499565,7.219843390658545,15.890873961054552,15.107913647522293
3.0912434650717473,3.451353906745611,5.891007187956542,7.370922527133768,15.276134596768989,14.144907826198368
3.1257570041392033,3.604115252713301,5.96471641322788,7.512371605395751,14.458773380285857,12.998833047512857
3.1617981566663365,3.7487029865161596,6.039840129281837,7.642359935870879,13.444176122842302,11.680387050362324
3.199285186531498,3.883144747744583,6.116263728640545,7.759163806374502,12.245263843693188,10.207403140885349
3.238116634008944,4.005597386181515,6.19385536670429,7.861237837783356,10.882355280706282,8.604364433008257
3.278172607870759,4.1144209389885775,6.272467745082124,7.947281482113438,9.382437951392658,6.901355598410864
3.319316817260645,4.208245318502504,6.351940559903258,8.016295038097548,7.777889663800396,5.1325369674482735
3.3613992704456703,4.286024215140508,6.432103510284233,8.067620407772031,6.104770134598936,3.3342974910865464
3.4042595125970756,4.347071916486498,6.512779714361954,8.100963382682897,4.400861318437904,1.5432879966786375
3.4477302317619407,4.391080529670877,6.593789348188783,8.116396262649683,2.703662437013028,-0.20545584714736623
3.4916410370586495,4.418117154041007,6.67495331081528,8.11434170417821,1.0485371094331637,-1.8801205510168297
3.5358222085990594,4.4286025251353385,6.756096727857062,8.095540498668042,-0.5328296323758956,-3.453328109243735
3.580108233850413,4.42327422881158,6.837052132843742,8.061007217575604,-2.0135653514761964,-4.902900439181715
3.624340976138529,4.4031385752968175,6.917662205019498,8.011978213183786,-3.3722993816320272,-6.212184287768351
3.668372361891497,4.369415581480498,6.9977819871513365,7.949856370306103,-4.593426528339962,-7.369994597939721
3.712066517706302,4.323481316197098,7.077280550854398,7.876156424326705,-5.667004148003092,-8.37026201755169
3.755301330868273,4.2668112747170674,7.156042115097665,7.792453804151188,-6.588363055839177,-9.211478021815017
3.7979694436154436,4.200927644158676,7.233966653139177,7.700339023933038,-7.357518545480045,-9.896024093528665
3.8399787200570303,4.127352458703875,7.310970043378507,7.6013787829977515,-7.9784622855530545,-10.429455987590567
3.881252244644069,4.047567835848344,7.386983831208485,7.4970842231218455,-8.45840379359656,-10.819795964701399
3.9217279230025524,3.9629837979123788,7.4619546734397035,7.388886263474832,-8.807015545359935,-11.076868868153737
3.9613577609816764,3.8749136424587793,7.535843536074452,7.278117574793294,-9.035721230246004,-11.211703963290852
4.000106897406265,3.7845564301563193,7.608624711822385,7.166000535160386,-9.157053667156429,-11.236014010255014
4.037952461707828,3.692985893484755,7.680284717173989,7.053640395057836,-9.184098026093427,-11.161755692309033
4.074882320642676,3.6011449132238207,7.7508211211245674,6.942022838134745,-9.130027324112168,-11.000770551313318
4.110893769774914,3.509844639982699,7.820241349505915,6.8320151326216125,-9.007730509322505,-10.764502286679672
4.145992216174741,3.419767334889474,7.8885615008321315,6.724370109754815,-8.829528569738397,-10.463784122164267
4.180189889523636,3.33147204919209,7.95580520192968,6.6197322685331725,-8.606970757005918,-10.108688592938252
4.213504610015557,3.245402341622031,8.022002524615012,6.51864538260379,-8.350700963548805,-9.708431353684853
4.245958633431777,3.161895331986543,8.08718897844105,6.421561069066941,-8.070383310590602,-9.271320340373777
4.277577586751643,3.081191498880637,8.151404589131719,6.328847865663203,-7.774675874785195,-8.804741751811946
4.308389501740449,3.003444740132785,8.214693067788351,6.240800448145084,-7.471241991000435,-8.315174776278475
4.338423949141777,2.9287323202227804,8.277101072269803,6.157648700382299,-7.166789520116263,-7.808227693617586
4.367711272344005,2.8570644250216177,8.338677559273625,6.079566423446123,-6.867129687579758,-7.288688851173443
4.396281916594221,2.7883931281458203,8.399473223508087,6.006679534934388,-6.577248433969953,-6.760586963147732
4.424165847875679,2.722620643806121,8.459540018857432,5.939073665302911,-6.30138455871287,-6.227256147306223
4.45139205431374,2.6596067982189924,8.51893075551046,5.876801103829849,-6.0431102008175985,-5.691402034698712
4.477988122295931,2.5991756962108163,8.577698766548759,5.819887083482862,-5.8054103343034305,-5.155166127548235
4.503979879258039,2.541121592867782,8.635897637383588,5.76833542220738,-5.59075893394837,-4.620186313611617
4.529391095186717,2.485214003528298,8.69358099160566,5.722133559071263,-5.401190281368468,-4.08765206136939
4.554243235222,2.4312021007146134,8.750802327196373,5.681257038457569,-5.238364538030021,-3.5583533189777827
4.578555256229146,2.3788184553343132,8.80761489758095,5.6456735052677915,-5.103627224962156,-3.032722527844204
4.602343440782489,2.327782183084692,8.864071632633626,5.61534627998935,-4.998062637579172,-2.510869450199377
4.625621262613336,2.2778015567089,8.92022509543352,5.590237585487356,-4.922541508564746,-1.9926087124707401
4.648399278180425,2.2285761416232526,8.976127471288393,5.570311498362648,-4.87776343206414,-1.4774800963606538
4.670685039596657,2.1797985073026114,9.03183058627202,5.555536697399042,-4.864294696406378,-0.9647616803604568
4.692483024669683,2.1311555603385477,9.087385953246011,5.545889080595437,-4.882602255458328,-0.45347595776310345
4.713794580273069,2.0823295377839646,9.142844844051966,5.541354321017806,-4.93308461258491,0.057610956593926545
4.734617875650908,2.0329986916581153,9.198258387262145,5.541930430583745,-5.016100404757546,0.5699969605073277
4.754947862567489,1.9828376876105398,9.253677691567983,5.547630400188819,-5.131995462675948,1.0854584306137816
4.774776239443595,1.9315177329837803,9.309153995569872,5.558484984494957,-5.281129086819693,1.6060715838702821
4.7940914167734325,1.8787064421155832,9.364738845414822,5.574545700333659,-5.463900215157013,2.1342408694888975
4.812878481194589,1.824067439964013,9.420484302418158,5.595888109028548,-5.6807740553328046,2.6727345827997673
4.831119155594228,1.767259699410685,9.476443183508444,5.622615454856546,-5.932309592840015,3.224727909267683
4.848791752588335,1.707936603482285,9.532669338057008,5.654862733949223,-6.219188133470489,3.7938535454552165
4.865871118623158,1.64574472214758,9.5892179653965,5.692801269403775,-6.542242638463694,4.384259840658206
4.882328565844634,1.580322295762943,9.646145978090537,5.736643867810357,-6.902486975863989,5.000675953654462
4.898131788802263,1.511297426004303,9.70351241676864,5.786650627346901,-7.301143199727943,5.648482651170229
4.9132447630623055,1.4382859940070236,9.761378923042109,5.843135453858603,-7.739663352010435,6.33378580461514
4.927627623002376,1.3608893604869192,9.819810277580695,5.9064733119047546,-8.219739693418601,7.063486902908694
4.941236516607245,1.2786919635527332,9.878875010699742,5.9771081809338416,-8.74329311817816,7.845340225444343
4.954023436242772,1.1912590323709515,9.93864609250908,6.055561583188285,-9.312422840256035,8.687978452953109
4.965936026566482,1.0981348039683911,9.999201708340962,6.142441367717816,-9.929289719634466,9.60087537754957
4.976917374606166,0.9988419067720464,10.06062612201814,6.238450121493312,-10.595888364735425,10.594192657726092
4.986905793673887,0.8928830231246921,10.123010623233073,6.344392048070572,-11.313635493857532,11.678421855706992
4.995834623905134,0.7797466681861168,10.18645454371378,6.461176266627643,-12.082657886564538,12.863674769915551
5.003632090586995,0.6589200893204714,10.251066306380055,6.589813014326798,-12.900593500421275,14.158381326295546
5.0102212914802005,0.5299141543162587,10.316964436523323,6.731396827589753,-13.760611302984417,15.567006443654119
5.015520433023363,0.3923080412864145,10.38427840479922,6.8870668920262945,-14.648194175841436,17.086172374201432
5.019443513436228,0.24582609952800014,10.453149073719484,7.057928615768309,-15.536005340959322,18.698252956045174
5.021901774431508,0.09046604611840692,10.523728359877166,7.244911145328761,-16.375892922957696,20.361110271084197
5.022806434892692,-0.07329288311117005,10.596177471330455,7.448522248039603,-17.086898144311846,21.992319350130835
5.02207350606158,-0.2441618645542885,10.67066269381085,7.668445441540911,-17.538394181576813,23.446461954846747
5.019631887416037,-0.4195458063700567,10.74734714822626,7.902910061089378,-17.529126469513308,24.48611629513745
5.015436429352336,-0.5948370710651898,10.826376248837153,8.147771224040753,-16.767817639432433,24.75357524180907
5.009488058641685,-0.7625152474595142,10.90785396107756,8.395306976458844,-14.871696066808225,23.764656262246707
5.00186290616709,-0.9112322081275964,10.991807030842148,8.632953539081312,-11.41578004858096,20.968410342629276
4.9927505840858135,-1.025390008613406,11.078136566232962,8.842637642507604,-6.075157555623476,15.929936137741368
4.982496683999679,-1.0861415841696407,11.166562942658038,9.001937003885018,1.1334396563715137,8.645950112458259
4.971635268157983,-1.0748071876059255,11.256582312696889,9.088396505009602,9.624496190792472,-0.1584390646718364
4.960887196281924,-0.9785622256980008,11.347466277746985,9.086812114362884,18.27328474363307,-9.0750521733199
4.9511015740249436,-0.7958293782616701,11.438334398890614,8.996061592629685,25.83673182439418,-16.57406039110698
4.943143280242327,-0.5374620600177282,11.52829501481691,8.830320988718615,31.505454986572467,-21.72385332171423
4.93776865964215,-0.22240751015200355,11.616598224704097,8.613082455501473,35.13919435323836,-24.473527110956326
4.93554458454063,0.12898443338038007,11.702729049259112,8.36834718439191,37.08321008691745,-25.38152361881769
4.936834428874434,0.4998165342495545,11.786412521103031,8.114531948203734,37.84216893024611,-25.175017012004417
4.94183259421693,0.8782382235520156,11.867557840585068,7.86278177808369,37.860702999441465,-24.468140781355096
4.950614976452449,1.2568452535464303,11.946185658365906,7.618100370270139,37.45096543902957,-23.67998304005139
4.9631834289879135,1.631354907936726,12.022366662068608,7.381300539869625,36.80330463716894,-23.059259776023055
4.979496978067281,1.9993879543084154,12.096179667467304,7.150707942109395,36.02161885765572,-22.736385950437256
4.999490857610365,2.3596041428849728,12.167686746888398,6.923344082605022,35.15636063731116,-22.76843799339035
5.023086899039215,2.7111677492580846,12.236920187714448,6.695659702671118,34.22829137128593,-23.16962401435348
5.050198576531796,3.0534506629709437,12.30387678474116,6.463963462527583,33.24382882872676,-23.929671570602096
5.080733083161505,3.3858889512582113,12.368516419366436,6.224666746821562,32.204481335105676,-25.02423166762596
5.114591972674087,3.707933764609268,12.430763086834652,5.9744244301453024,31.112506659570045,-26.42059984299244
5.15167131032018,4.019058831204968,12.490507331136104,5.710218431715378,29.974231183571018,-28.080939696660025
5.191861898632229,4.3188011430406785,12.547609515453258,5.429409034748778,28.801896997009422,-29.964332741191118
5.235049910062636,4.606820113010773,12.601903605800747,5.129765707336866,27.614535599671346,-32.02840869526047
5.281118111192744,4.882965469007487,12.653201262874115,4.809481620384261,26.43815307781211,-34.23094923196104
5.329947765882819,5.147346999785608,12.701296079077958,4.467172128064651,25.30539846686399,-36.53162481104863
5.3814212358806754,5.400400984454247,12.745967800358605,4.101855879954165,24.254830948562667,-38.89386262977156
5.435425245725218,5.642949293939874,12.786986359158146,3.7129172536564496,23.329869407731913,-41.286717763351234
5.4918547386646175,5.876247988017193,12.82411553169471,3.3000500760229374,22.577471412381165,-43.68650194865602
5.550617218544789,6.102022702141005,12.85711603245494,2.863185056536377,22.046517922559534,-46.07778474414719
5.611637445566199,6.3224878813666,12.885747883020304,2.402407209094905,21.785735038930756,-48.453172125713266
