th1 (rad),w1 (rad/s),th2 (rad),w2 (rad/s)
0.3712323798703359,-0.7103238639517768,5.47842272427066,-2.7086523554642365
0.36412914123081813,-0.8009154419722437,5.4513362007160175,-2.5985258527257664
0.3561199868110957,-0.8873819631801128,5.42535094218876,-2.488461419132253
0.3472461671792946,-0.969826601133278,5.400466327997437,-2.378153772641459
0.3375479011679618,-1.0483493760974092,5.376684790271022,-2.2673394160553517
0.3270644074069877,-1.1230497045851593,5.354011396110469,-2.1557939610728485
0.3158339103611361,-1.1940287296702115,5.33245345649974,-2.0433294356715246
0.303893623064434,-1.2613913907189,5.312020162143025,-1.9297915859298915
0.291279709157245,-1.3252482112130144,5.292722246283726,-1.815057169991023
0.27802722704511484,-1.3857167971610642,5.274571674583816,-1.6990312365644533
0.2641700590735042,-1.442923048417008,5.257581362218172,-1.5816443799635536
0.24974082858933414,-1.4970020924201664,5.241764918418537,-1.4628499660904546
0.23477080766513247,-1.548098955276253,5.227136418757632,-1.3426213276472707
0.21928981811236994,-1.5963689892104023,5.213710205481159,-1.2209489312884119
0.2033261282202659,-1.6419780785110107,5.201500716168275,-1.097837523875784
0.1869063474351558,-1.6851026482793108,5.190522340929517,-0.9733032691241302
0.1700553209523627,-1.7259295016443787,5.180789308238276,-0.8473708895603228
0.1527960259359189,-1.764655511576682,5.172315599342673,-0.720070831830281
0.13514947082015208,-1.8014871929703167,5.16511489102437,-0.5914364760435147
0.11713459889044892,-1.8366401791593745,5.159200526263935,-0.46150141222642815
0.09876819709885518,-1.870338624336577,5.15458551214167,-0.3302968093499145
0.0800648108554894,-1.9028145492421813,5.151282544048171,-0.19784890521838341
0.06103666536306759,-1.934307141694585,5.149304054995987,-0.06417664932274891
0.04169359394612174,-1.9650620156286311,5.148662288502759,0.0707104636702291
0.022042973789835427,-1.9953304217123236,5.1493693931394615,0.2068143237803947
0.002089669572712189,-2.0253683885098184,5.151437536377266,0.3441498404533493
-0.018164014312385995,-2.055435754402954,5.154879034781799,0.4827462053046793
-0.03871837185641554,-2.0857950254834248,5.159706496834846,0.6226476792470931
-0.05957632211124979,-2.116709961193256,5.165932973627317,0.7639137620398319
-0.08074342172318234,-2.1484437446510323,5.173572111247715,0.906618548076355
-0.10222785916969267,-2.1812565343961703,5.182638296728479,1.0508489964740575
-0.12404042451365437,-2.215402113574005,5.1931467866932195,1.1967017389863273
-0.1461944456493944,-2.251123244956946,5.205113804083083,1.3442779069003277
-0.16870567809896386,-2.2886451981543416,5.218556583152086,1.4936752673743263
-0.1915921300805073,-2.328166731173179,5.2334933358258295,1.644976709692466
-0.21487379739223908,-2.369847576398257,5.249943102922754,1.7982338044067474
-0.23857227315622165,-2.4137912021428662,5.267925440966821,1.9534437743532886
-0.2627101851776503,-2.4600213127568655,5.287459878710354,2.1105177897955185
-0.287310398305219,-2.508450264789416,5.30856505660831,2.2692381015575407
-0.3123949009531131,-2.558837430699908,5.3312574376238855,2.4292013168351665
-0.3379832752601122,-2.610735764260861,5.355549450792237,2.589745419069409
-0.3640906329027208,-2.663425817662266,5.381446904982932,2.7498594961480443
-0.3907248910793435,-2.715838867517189,5.408945499944412,2.908078455558917
-0.4178832797545154,-2.766475483348758,5.438026284500001,3.062371462651406
-0.44554803458800296,-2.8133336554418875,5.468649999126515,3.2100436034661306
-0.4736813711424218,-2.853871579552236,5.5007504351611765,3.3476854710309474
-0.5022200869379442,-2.885042251292762,5.5342272898714855,3.471222044453211
-0.5310705094508718,-2.903443852500538,5.568939510316017,3.5761215925891583
-0.5601049479758772,-2.905620254541966,5.604700726241909,3.657811705631483
-0.5891611505212968,-2.8885077104373575,5.641278843298223,3.712296121009924
-0.6180462276256704,-2.849956237793147,5.678401804508322,3.7368719201884204
-0.6465457900036019,-2.7891831635678552,5.715770523710207,3.7307482220573767
-0.6744376216392804,-2.706992823678739,5.753078005930781,3.695335933949184
-0.7015075498760679,-2.605660740177286,5.790031365270273,3.6340692254332008
-0.7275641572778407,-2.4885133037854597,5.826372057524605,3.551805211465229
-0.7524492903156953,-2.3593545118619157,5.861890109639257,3.4540158010065998
-0.7760428354343144,-2.2219247201468306,5.896430267649323,3.346030475420661
-0.7982620826357827,-2.079518393162261,5.929890572403529,3.2325060052141246
-0.8190572665674053,-1.9347953486884923,5.9622156324556705,3.1171690862237815
-0.8384052200542902,-1.7897507068814054,5.993387323317909,3.002781282627672
-0.8563027271231043,-1.645782675270778,6.023415136144186,2.891239958110959
-0.8727605538758121,-1.503803081141808,6.052327535725295,2.783737694786719
-0.8877985846872302,-1.3643538454487665,6.080164912673163,2.680928745609921
-0.9014421231417178,-1.227710292804665,6.106974200129262,2.58307604013116
-0.9137192260697644,-1.0939644270607274,6.1328049605305734,2.490169424820844
-0.9246588703403716,-0.9630880687185743,6.1577066547787815,2.4020152511822253
-0.9342897510275574,-0.834978704658504,6.1817268072906035,2.318301499133706
-0.9426395380741425,-0.7094916922053663,6.204909822281941,2.238643674295914
-0.9497344549961961,-0.5864622294939091,6.2272962590249,2.1626163513416237
-0.9555990772911352,-0.4657199044321103,6.248922422538317,2.089774364322186
-0.9602562763354563,-0.34709798524887014,6.269820166181539,2.0196667142014206
-0.963727256187945,-0.23043904736418186,6.290016833323553,1.9518454537704832
-0.9660316466615868,-0.11559808016786836,6.309535287861258,1.8858711687038965
-0.9671876274632655,-0.0024438780672922378,6.328393999548297,1.8213161917440037
-0.9672120662439384,0.10914072649593351,6.3466071614657364,1.7577663365659102
-0.966120658978979,0.21925940580961378,6.364184824831396,1.6948216881078721
-0.9639280649208829,0.3280033960845346,6.3811330417124745,1.632096810447505
-0.9606480309600376,0.43545289883398697,6.39745400981695,1.5692206107229558
-0.9562935019716977,0.5416787085665838,6.413146215924179,1.5058360125093282
-0.9508767148860319,0.6467439905847376,6.428204576049272,1.4415995331626772
-0.9444092749801845,0.7507061593563247,6.442620571380899,1.3761808189340101
-0.9369022133866212,0.8536188256316253,6.456382379570239,1.3092621635504176
-0.9283660251303049,0.9555337920139283,6.469475001205743,1.2405380166118758
-0.9188106872101656,1.0565030840003806,6.4818803813718615,1.1697144749435835
-0.9082456563701617,1.156581007920538,6.493577526121297,1.0965087412290804
-0.8966798462909563,1.2558262296095288,6.504542613533587,1.0206485287041964
-0.8841215839948611,1.3543038686373279,6.514749098820629,0.9418713877454626
-0.8705785453084878,1.4520876028034955,6.524167812698083,0.859923929517303
-0.8560576692804528,1.5492617765130645,6.532767051993257,0.7745609234214995
-0.8405650515153221,1.6459235044814071,6.5405126612274715,0.6855442491708738
-0.8241058164705081,1.742184758648657,6.54736810371918,0.592641691444771
-0.8066839688840215,1.83817442060205,6.553294520633628,0.4956255762160283
-0.788302224678001,1.9340402732024493,6.558250776395788,0.3942712644206196
-0.7689618219459765,2.0299508919407963,6.562193489039994,0.28835554284925197
-0.7486623130265685,2.12609737648811,6.565077044468486,0.17765498719513198
-0.7274013392616874,2.2226948325122806,6.566853594340437,0.06194442282828236
-0.7051743909365645,2.319983468076498,6.56747303856872,-0.05900431798517272
-0.6819745562557995,2.4182291004695826,6.566882995388869,-0.18542303794459525
-0.6577922652511037,2.5177227675483405,6.565028765009423,-0.3175467582197422
-0.6326150375756203,2.618778987455716,6.561853297427225,-0.4556115651133904
-0.6064272477010632,2.7217319906518593,6.557297181776091,-0.5998497229341211
-0.5792099277945446,2.8269289294949385,6.55129868454675,-0.7504806002044676
-0.5509406384995952,2.9347186151837077,6.543793878544705,-0.9076953107823447
-0.5215934523477581,3.0454336941370728,6.534716925436882,-1.071632074053016
-0.4911391154063874,3.1593633101969525,6.524000604696352,-1.2423380877603365
-0.45954548230441783,3.2767121820250837,6.511577223818748,-1.4197121549422915
-0.426778360484167,3.3975407090152325,6.497380102269325,-1.6034204933890388
-0.39280295339401466,3.521679445211352,6.4813458973354345,-1.7927764320165662
-0.35758615894190116,3.648610695444725,6.463418133015269,-1.9865739880787099
-0.3211000519874539,3.7773115034790745,6.443552393134482,-2.1828676294036664
-0.28332693695266314,3.906058573217193,6.421723716840445,-2.3786996146663673
-0.24426635122049123,4.032210879859721,6.397936720693782,-2.569798080702553
-0.20394424242189402,4.1520147378306005,6.372238739886756,-2.750310313402657
-0.162424095043588,4.260520282801545,6.344735636752729,-2.912698242613111
-0.11981889221557256,4.351745823076895,6.3156086543265975,-3.047990161874009
-0.0763014339848036,4.419238908623427,6.285128752707857,-3.1465994426681276
-0.032109044898569326,4.45709592715009,6.253662758281176,-3.199796473737623
0.012461914372931572,4.461274057352379,6.2216647935438,-3.2015956255006617
0.05707465494645537,4.430742198731301,6.189648837288794,-3.1504108083566282
0.10138207693376838,4.367912588709839,6.158144729205228,-3.04968371133891
0.14506120282086676,4.278076912905478,6.127647892091839,-2.907088713254597
0.18784197194992153,4.168101683596156,6.098577004959293,-2.73267296204731
0.2295229887858831,4.044988048472711,6.07125027533882,-2.536790756475133
0.2699728692706102,3.914818689125946,6.045882367774069,-2.328578603672187
0.3091210561618697,3.782270777301401,6.022596581737347,-2.1152318174346427
0.3469437639348837,3.6505855240817664,6.001444263563001,-1.9019331142178881
0.38344961917570136,3.521786539291221,5.982424932420822,-1.6921411918565938
0.4186674845686136,3.3969757899969397,5.965503520502256,-1.487996453310907
0.452637242468583,3.2766107694362048,5.950623555969147,-1.290705714917169
0.48540335016294506,3.1607259290296486,5.9377164988199755,-1.1008516998093736
0.5170106094532415,3.049094417617488,5.926707981821882,-0.9186201575600588
0.5475015536294164,2.941339640103814,5.917521780246282,-0.7439569855480628
0.5769149500304546,2.8370091421205124,5.910082210390801,-0.5766723799504287
0.6052850414516597,2.735621967091743,5.904315486591297,-0.41650742283108527
0.6326412611225771,2.6366980700058735,5.9001504123629855,-0.2631750866996222
0.6590082418226358,2.539775920430666,5.897518661495989,-0.11638429169038944
0.6844060010269425,2.4444224863669635,5.896354818579085,0.024147025151711216
0.7088502258906121,2.350238383716115,5.896596288830602,0.15868582229586553
0.7323526097277733,2.256860004930899,5.898183147053561,0.2874821992641335
0.7549212097770822,2.1639597894208213,5.901057969046202,0.410770243754802
0.7765608076712904,2.0712453702530422,5.905165671483751,0.5287703579746816
0.7972732613738208,1.9784580541778354,5.910453375063497,0.6416923425405839
0.8170578419155992,1.8853709142156496,5.916870298488903,0.7497387786531943
0.8359115510577556,1.7917866615317464,5.924367686275435,0.8531084207544667
0.8538294176730731,1.6975353931868442,5.932898770482979,0.9519994241743335
0.8708047716049415,1.6024722695151845,5.942418764724723,1.0466123061051091
0.8868294943000934,1.5064751494839426,5.952884887785774,1.1371525871137942
0.9018942457949328,1.4094421979974223,5.964256413656912,1.2238330930446588
0.9159886677749071,1.3112894715374173,5.976494744587359,1.3068759191954606
0.9291015624902812,1.2119484850572033,5.989563503779313,1.38651407366821
0.9412210473408532,1.1113637619149077,6.003428644515995,1.4629928270896997
0.9523346849600023,1.0094903687254795,6.018058572786892,1.5365708029124148
0.962429588647257,0.9062914376420099,6.033424280816016,1.6075208471378803
0.9714925030236772,0.8017356793566254,6.049499489287395,1.6761307190841241
0.9795098598172435,0.6957948908634956,6.066260796478236,1.742703646028834
0.9864678087258785,0.5884414627447342,6.083687832938525,1.8075587842931544
0.9923522233533258,0.4796458915647491,6.101763420781456,1.8710316275146286
0.9971486822689734,0.36937430417998,6.120473737056602,1.93347439924169
1.000842425310773,0.25758600285251615,6.139808481049019,1.9952564610976913
1.003418285339298,0.14423104368487516,6.159761045659995,2.0567647588435958
1.004860595776147,0.029247867063292465,6.180328693248431,2.1184043155256704
1.0051530744467798,-0.08743899106155471,6.201512736403688,2.180598761725285
1.0042786845361642,-0.20592106205433902,6.223318724020941,2.2437908650366745
1.0022194739156207,-0.326307911454471,6.245756632671307,2.3084429802894224
0.998956394801076,-0.448728801150168,6.268841062474202,2.3750372828236834
0.9944691067895743,-0.573333880205237,6.292591435302438,2.444075560720962
0.9887357679875219,-0.7002946512430142,6.317032190909648,2.5160782158330566
0.9817328214750918,-0.8298033317108685,6.342192973067979,2.591581939891168
0.9734347881579831,-0.9620705427962861,6.368108792466891,2.671135265790441
0.9638140827300202,-1.0973204888898052,6.394820145124795,2.755290810887178
0.9528408778411221,-1.2357824054461952,6.422373053233667,2.844592483612673
0.9404830537866602,-1.3776765144088736,6.450818978069793,2.9395551620143623
0.9267062886425714,-1.5231919947443255,6.4802145296899365,3.0406333163782664
0.9114743686951282,-1.6724535282712572,6.510620862853719,3.1481737035395616
0.8947498334124157,-1.82547185291863,6.542102599889115,3.262345653569117
0.8764951148832294,-1.9820726273601423,6.574726056424806,3.383040848745667
0.856674388609628,-2.1417972756622183,6.608556464912263,3.509733545935684
0.8352564158530058,-2.3037704233923026,6.643653800371619,3.6412934340621956
0.8122187116190828,-2.466533112104413,6.680066734712241,3.7757496307396305
0.7875533804980386,-2.6278524789684528,6.717824231019637,3.9100203397137214
0.7612748557083541,-2.784541010820649,6.756924434416774,4.039654069943694
0.7334294456001476,-2.932353698199734,6.797320975116211,4.158677781972013
0.7041059086181503,-3.066072118763276,6.838907752935931,4.259704783790921
0.6734451874305175,-3.1799037729027315,6.881504800773841,4.33448307810496
0.6416461497014903,-3.2682736581217777,6.92484963155489,4.374994153672629
0.6089634131202725,-3.326921281291296,6.968599573091616,4.374983938490607
0.5756942003073595,-3.3539789135658604,7.012349412476523,4.33147549756729
0.5421544111717009,-3.350564793579133,7.055664167452195,4.245612939670144
0.5086487632359096,-3.3205689480169505,7.098120296848897,4.1223849003611
0.4754430737557401,-3.269711049313435,7.139344145852508,3.9693350844367488
0.44274596326260574,-3.204307584123699,7.179037496696876,3.794865955230641
0.41070288742136873,-3.13022869154498,7.216986156249182,3.606802105916918
0.37940060050591895,-3.052294189162742,7.253054177308351,3.411559315725605
0.34887765861429154,-2.974094282995178,7.287169770465606,3.213899059297196
0.3191367157843398,-2.8980859486816444,7.319308761058578,3.0170622062779704
0.29015585629752333,-2.8258104139522375,7.349479383121358,2.8230684673763453
0.26189775215800093,-2.7581288020291423,7.377710067795122,2.6330398910730093
0.2343164641377095,-2.6954262656339294,7.404040466705852,2.4474804006478434
0.20736220148137022,-2.6377698084004866,7.428515270712331,2.2664913982488994
0.18098450339736535,-2.5850222009071695,7.451180184694819,2.089927042529454
0.15513428138829366,-2.536920510745657,7.472079455120114,1.917501082296691
0.12976507628083708,-2.493128424042444,7.491254465943081,1.7488579248839495
0.10483379204041264,-2.4532701139044293,7.50874304519192,1.5836185901066542
0.08030109090136835,-2.416951542744922,7.524579231092987,1.4214095899545105
0.05613157547391913,-2.383773414518844,7.538793326992532,1.2618804566960367
0.032293841328730685,-2.3533386936239227,7.551412131559492,1.1047138487088786
0.008760454392491457,-2.3252566650792077,7.562459270046581,0.9496308682933732
-0.014492112258300622,-2.2991448537926127,7.571955578729515,0.7963933267781401
-0.03748356079622675,-2.2746296734236053,7.579919511997296,0.6448040832138946
-0.0602298575304628,-2.2513463749216025,7.586367552829436,0.4947061769056129
-0.08274332127967883,-2.228938664607788,7.591314614598492,0.3459812064666881
-0.10503270792575671,-2.2070582286807583,7.594774426663158,0.1985472335877991
-0.12710329021256428,-2.18536431264518,7.596759898999037,0.05235637725297462
-0.14895693333901608,-2.163523445161358,7.597283462771566,-0.0926078071660027
-0.17059216779062966,-2.1412093560648944,7.596357384699906,-0.23633311355304565
-0.1920042613512786,-2.1181031111314184,7.5939940535643755,-0.3787816110682819
-0.21318529246259277,-2.0938934671915383,7.5902062374536925,-0.5198927003145188
-0.23412422713450814,-2.0682774375994675,7.585007310450547,-0.6595862957470267
-0.25480700151050284,-2.040961048004301,7.578411447493077,-0.7977661317070994
-0.27521661199054587,-2.0116602547139326,7.5704337861760065,-0.9343231875774276
-0.2953332145376852,-1.980101991965074,7.5610905543002325,-1.0691392238133106
-0.3151342344573359,-1.9460253096906417,7.550399162062099,-1.2020904159202745
-0.3345944875542423,-1.9091825596624459,7.538378257902897,-1.3330510684915964
-0.3536863131508668,-1.8693405850515068,7.5250477472179815,-1.461897386679536
-0.37237971900138184,-1.8262818664289449,7.510428773351186,-1.5885112783212731
-0.3906425376656713,-1.779805576005703,7.494543660567973,-1.7127841566587065
-0.40844059342572836,-1.7297284914787139,7.4774158190013855,-1.8346207114037754
-0.4257378783405155,-1.6758857212218252,7.459069611887347,-1.9539426149880792
-0.4424967355527338,-1.6181311937378386,7.439530185737467,-2.070692131346417
-0.45867804749011215,-1.5563378662702876,7.418823264424002,-2.1848355966437945
-0.474241426152815,-1.4903976102404402,7.3969749084575644,-2.296366745068832
-0.4891454022552194,-1.4202207346826088,7.374011241006876,-2.4053098582650287
-0.5033476096020455,-1.3457351130236632,7.349958142424226,-2.5117227242078255
-0.5168049607322821,-1.2668848832774717,7.324840915182148,-2.61569940037368
-0.5294738095650569,-1.1836286968482819,7.298683921178411,-2.71737278684836
-0.5413100965335397,-1.0959374964686253,7.271510193309927,-2.8169170274761814
-0.5522694714982259,-1.0037918091240492,7.243341023035166,-2.9145497710593897
-0.5623073895894664,-0.9071785449309439,7.2141955253245715,-3.0105343396568456
-0.5713791750387758,-0.8060872976813931,7.184090181928003,-3.1051818667224524
-0.5794400480155897,-0.7005061471297785,7.153038363260778,-3.198853483457955
-0.5864451094868874,-0.5904169673042592,7.121049828426199,-3.291962646285193
-0.5923492791599301,-0.47579024985924334,7.088130201963347,-3.384977710192433
-0.5971071816585225,-0.35657945815240527,7.054280424861423,-3.478424859441543
-0.6006729762400466,-0.23271493892974002,7.019496176267007,-3.5728915048817944
-0.6030001256293439,-0.10409743874614022,6.98376726121819,-3.669030239684965
-0.6040411000168053,0.029408690868508364,6.94707695882134,-3.7675634025432654
-0.6037470131081203,0.1679824493873938,6.909401324795907,-3.8692882125575903
-0.6020671886142464,0.31185303831139516,6.870708442670331,-3.975082285628384
-0.5989486582311324,0.4613061414447944,6.830957619814047,-4.085909072637495
-0.5943355968166845,0.616688830035923,6.790098529087672,-4.2028223000864475
-0.5881687085163252,0.7784117212812942,6.748070306086808,-4.326967721169409
-0.5803845913035123,0.9469460786782307,6.704800628875113,-4.459579199738492
-0.5709151305167299,1.122812000911268,6.660204836877728,-4.601964032044171
-0.5596870105076173,1.3065513500323545,6.614185196557287,-4.755468966218106
-0.5466214970072937,1.4986751066998807,6.566630506895105,-4.921412879473418
-0.5316347459402949,1.6995687449887138,6.517416378100371,-5.100963560765493
-0.5146390584904078,1.9093303599166558,6.466406742492716,-5.29492357906398
-0.49554575489124125,2.1275047634263102,6.413457506702077,-5.503373823382691
-0.4742707072569782,2.35266542772917,6.35842376846825,-5.725106730750645
-0.45074405297968645,2.581795254452064,6.301172701160744,-5.956778455853968
-0.4249261004351658,2.8094531104214293,6.2416049166022045,-6.191756756183269
