th1 (rad),w1 (rad/s),th2 (rad),w2 (rad/s)
3.032180956732434,1.3776896905617566,1.1860824044371177,2.5389525165048363
3.045957853638052,1.3241282780544856,1.211471929602166,2.45182127828827
3.059199136418597,1.2743099895751786,1.2359901423850488,2.364022350921184
3.0719422363143485,1.228153237392105,1.2596303658942607,2.27566076905993
3.0842237686882696,1.1855680412665546,1.28238697358486,2.1868275351556568
3.096079449100935,1.1464572854028392,1.3042552489364168,2.097601425312988
3.1075440219549635,1.1107178435721663,1.3252312631895466,2.0080506692319866
3.118651200390685,1.0782415787604291,1.3453117698818664,1.918234497396886
3.1294336161782894,1.0489162254803661,1.3644941148558352,1.8282045517838494
3.139922778433093,1.0226261640920609,1.3827761603736737,1.7380061589042468
3.1501490400740138,0.9992530971781082,1.4001562219627162,1.6476794660479022
3.160141571045795,0.9786766383037261,1.4166330166231953,1.5572604432129526
3.169928337428832,0.9607748234348242,1.432205621055325,1.4667817544740356
3.1795360856631802,0.9454245549585876,1.4468734386000652,1.3762735035125555
3.188990331212766,0.9325019877136502,1.4606361736351907,1.2857638587693274
3.1983153510899025,0.9218828657445615,1.473493812222884,1.1952795642310228
3.207534179747348,0.9134428176944073,1.4854466078651942,1.1048463422698032
3.216668607924292,0.907057617879446,1.4964950712878922,1.0144891952547384
3.2257391841030865,0.9026034191833333,1.5066399632404395,0.9242326128712822
3.23476521829492,0.8999569629932648,1.5158822893691524,0.834100692241716
3.2437647879248526,0.8989957704986958,1.5242232962915696,0.744117178049829
3.2527547456298396,0.8995983188037515,1.531664468072068,0.6543054299469573
3.2617507288178773,0.9016442044823079,1.5382075223715375,0.5646883245596324
3.2707671708627,0.9050142964426585,1.5438544056171337,0.4752880994341585
3.279817313827127,0.9095908792772398,1.5486072866114753,0.3861261462408606
3.2889132226198994,0.9152577876610376,1.5524685480738838,0.2972227605195973
3.2980658004965098,0.9219005318377497,1.5554407756790798,0.20859685517694282
3.3072848058148874,0.9294064138023167,1.5575267442308491,0.12026564484304447
3.3165788699529104,0.9376646334581901,1.5587294006792796,0.03224430806248221
3.3259555162874923,0.9465663838033433,1.5590518437599044,-0.05545436586967743
3.335421180125526,0.9560049340860072,1.5584973001012077,-0.14282033880354905
3.3449812294663857,0.9658756998748765,1.5570690967131722,-0.22984668794388097
3.3546399864651346,0.9760762991148982,1.5547706298337334,-0.3165299661654208
3.3644007494562835,0.9865065934952195,1.5516053301720791,-0.4028705524242314
3.3742658153912357,0.9970687148482675,1.5475766246478369,-0.4888729864179768
3.3842365025397183,1.0076670768380462,1.542687894783657,-0.5745462817469963
3.394313173308099,1.0182083728943072,1.536942431966187,-0.659904211826055
3.404495257037042,1.0286015622240976,1.5303433898479266,-0.7449655626492241
3.414781272659283,1.0387578468056247,1.5228937342214344,-0.8297543461633915
3.4251688511273395,1.048590643570869,1.5145961907598005,-0.9142999673949064
3.4356547575630483,1.0580155575514765,1.5054531910858513,-0.9986373375223778
3.446234913138563,1.066950363646859,1.4954668177106276,-1.0828069237065534
3.4569044167750316,1.0753150069372637,1.4846387484735621,-1.166854724569814
3.4676575668444043,1.0830316341865742,1.472970201227864,-1.2508321576397983
3.4784878831862702,1.0900246724560898,1.4604618796514661,-1.3347958416911265
3.489388129910831,1.096220974696669,1.447113921234555,-1.4188072525723068
3.5003503396577975,1.1015500569364034,1.4329258487088319,-1.5029322256070146
3.5113658402271617,1.1059444573847872,1.4178965264527617,-1.5872402708071378
3.5224252848010096,1.109340254592643,1.4020241237446902,-1.671803658715637
3.533518687346936,1.111677789897707,1.3853060871575338,-1.7566962245011082
3.5446354652459133,1.1129026488813858,1.3677391249125228,-1.8419918257757384
3.555764491734727,1.1129669675325677,1.3493192066547655,-1.9277623754056783
3.566894161410053,1.111831141206533,1.3300415829007086,-2.0140753543834338
3.578012472822118,1.1094660280132222,1.3099008293568744,-2.100990691962529
3.5891071331022504,1.1058557523502823,1.2888909224372491,-2.1885568814885814
3.600165690625753,1.101001227745005,1.2670053536223633,-2.2768061821719825
3.611175702903203,1.0949245289966973,1.2442372918006435,-2.365748741966012
3.62212494819317,1.087674248643658,1.2205798043809832,-2.455365468804046
3.6330016906796065,1.0793319672035733,1.1960261496929427,-2.5455994829101414
3.643795010351642,1.0700199434785806,1.1705701548638414,-2.6363460107635883
3.654495209786428,1.059910080834462,1.1442066947562055,-2.7274406441360384
3.665094310594773,1.0492341351328753,1.1169322883148451,-2.8186460019929873
3.6755866519461016,1.0382949845189609,1.0887458282949152,-2.909637019327866
3.685969601791291,1.0274785636593713,1.0596494581016365,-2.9999853677795265
3.696244387427885,1.017265760086048,1.0296496044238412,-3.089143908993757
3.7064170450287452,1.008243170581459,0.9987581653339037,-3.176432604347167
3.71649947673456,1.0011111312739434,0.966993839290432,-3.2610279425470896
3.7265105880472995,0.996686908218402,0.9343835598649611,-3.3419586474711194
3.7364774571294834,0.9959004557149215,0.9009639733902499,-3.4181110772988266
3.7464364616866326,0.9997798689696601,0.8667828626172617,-3.4882481261329623
3.756434260376329,1.0094237889346023,0.831900381355932,-3.5510453119064183
3.766528498265675,1.025958806101122,0.7963899282368678,-3.60514675365349
3.776788086326686,1.0504815629455382,0.760338460700333,-3.649241627867342
3.7872929019561417,1.0839878195130412,0.7238460444216596,-3.6821583699934917
3.798132780151272,1.1272939739350014,0.6870244607217246,-3.7029696607109033
3.8094057198906217,1.1809597816210697,0.6499947641146155,-3.711096924875765
3.8212153177068324,1.2452233184655146,0.6128837948658579,-3.7063999412686104
3.8336675508914877,1.319959536359174,0.5758197954531717,-3.68923659389911
3.8468671462550796,1.4046713832162963,0.5389274295141806,-3.6604807109357376
3.860913860087243,1.4985175269285957,0.5023226224048232,-3.6214922237574427
3.875899035356529,1.6003743171191065,0.46610770016724873,-3.5740421722362123
3.89190277852772,1.7089234894727368,0.4303672784448866,-3.520203135594566
3.9089920134224476,1.8227530075209755,0.3951652470889409,-3.462221210420028
3.9272195434976576,1.940457374261845,0.3605430349847406,-3.402387313631896
3.946624117240276,2.0607256840442716,0.32651916184842167,-3.3429233589466856
3.967231374080719,2.182409653970785,0.2930899282589548,-3.2858939395559035
3.9890554706204266,2.3045684986474098,0.2602309888633958,-3.233148292213843
4.012101155606901,2.4264915755405148,0.22789950594125735,-3.186292088941347
4.036366071362306,2.5477025170826884,0.19603658505184388,-3.1466849475466723
4.061843096533133,2.6679499212939035,0.16456973557637716,-3.115457714367071
4.088522595746072,2.787189834957309,0.13341515843270646,-3.093543281937882
4.116394494095645,2.9055646496826197,0.10247972561332763,-3.0817154539109066
4.145450140592471,3.023382056728906,0.07166257107421857,-3.0806316446185904
4.17568396115976,3.141096686881645,0.04085625462803266,-3.0908766055497043
4.207094928028576,3.25929618850823,0.009947488572535617,-3.113005664839667
4.239687889913658,3.3786928565367726,-0.021182568075861056,-3.147587042585811
4.273474818479026,3.5001215334637097,-0.05265843850171917,-3.195243651583082
4.308476033813664,3.6245443389848484,-0.08461087501754999,-3.2566954495152443
4.344721477203512,3.7530628116829767,-0.11717782951270243,-3.3328039351766936
4.382252105320342,3.8869382266819636,-0.15050586886446937,-3.424620837324169
4.421121487587162,4.027621148893477,-0.18475207723771106,-3.533443471108397
4.461397699076096,4.176791642053072,-0.22008651194879503,-3.6608796337428435
4.503165615496627,4.3364118858531695,-0.25669530828622344,-3.8089251943562834
4.5465297343551585,4.508793051162574,-0.2947845602297863,-3.980057440631197
4.591617664866784,4.696677674472731,-0.33458513463609824,-4.177346124389087
4.638584441611512,4.903336380171938,-0.3763585958799891,-4.404580484120333
4.687617805413231,5.132671189887327,-0.42040440072119245,-4.6664008831828605
4.738944517312104,5.3893013856611836,-0.46706840955302104,-4.968400414471066
4.792837531168717,5.678569913101615,-0.5167524136977317,-5.317107934512625
4.849623230299732,6.0063226411794854,-0.5699234930428579,-5.719642968221692
4.909686456711527,6.378126664777653,-0.6271199227250749,-6.182570597811567
4.973467723359303,6.797215865421144,-0.6889456287031905,-6.708952436812311
5.041439882013515,7.259798535207146,-0.7560351530713136,-7.291670889306655
5.114037867365586,7.74572382669635,-0.8289518619643802,-7.900208386249565
5.19149510563255,8.203971259390237,-0.9079539458268758,-8.460135808465921
5.273534818226452,8.54232858095826,-0.992555303911535,-8.838519064810944
5.358958104036034,8.652009608189552,-1.0809404945596444,-8.878590368911368
5.44547820011793,8.488582316030435,-1.169726398248758,-8.513858808912689
5.530364023278234,8.128845756287209,-1.254864986337885,-7.848677204058782
5.611652480841106,7.70432285515564,-1.3333517583784726,-7.0654104009858845
5.688695709392662,7.306739172752795,-1.4040058623883316,-6.291738375749688
5.76176310112019,6.9720479067680285,-1.4669232461458284,-5.577704522524673
5.83148358018787,6.70514482167831,-1.5227002913710752,-4.929883835769421
5.898535028404653,6.499658505110552,-1.5719991297287694,-4.3389226076076195
5.963531613455758,6.346822538584364,-1.6153883558048456,-3.791966674833334
6.0269998388416015,6.238485953370103,-1.6533080225531789,-3.2769603185501026
6.089384698375302,6.16781992036941,-1.6860776257386798,-2.7837501320707636
6.1510628975789965,6.129256305554154,-1.7139151270593875,-2.3041278026298757
6.212355460634538,6.1182212639328535,-1.7369564050856863,-1.8315959851413577
6.273537673273867,6.1308507175712785,-1.7552723649370998,-1.3611168880223554
6.3348461804495795,6.163741371863218,-1.7688835338173234,-0.8889150874339258
6.396483594168211,6.213747458838928,-1.7777726846916626,-0.41234195748823316
6.4586210687566,6.277821529373237,-1.7818961042665449,0.07021133245822375
6.521399284050332,6.352896173398612,-1.7811939909419627,0.5593708351659297
6.584928245784319,6.435804830250874,-1.7756002825903034,1.0548258892138942
6.649286294086828,6.523241000191546,-1.7650520236981646,1.5553815726767557
6.714518704088743,6.611755118713877,-1.749498207971397,2.0590316281028263
6.780636255275882,6.697786842812715,-1.7289078916903686,2.5630610691505593
6.847614123704009,6.777727779649462,-1.703277280998863,3.0641813597024745
6.915391401500504,6.848006447112948,-1.6726354674018382,3.5586939814352583
6.983871465971633,6.905184462178598,-1.6370485275874855,4.042671606194993
7.052923310593419,6.946051597166735,-1.5966218115255355,4.51214143579946
7.122383826565087,6.9677081007435655,-1.551500397167541,4.963253780650238
7.192060907572523,6.967625634258671,-1.5018678593610386,5.392421097841058
7.261737163915109,6.943682744877875,-1.447943648382628,5.796417997243546
7.331173991363888,6.894175918660082,-1.3899794684101925,6.172439798859978
7.400115750550488,6.817811730491639,-1.3282550704215927,6.518124331538635
7.4682938678554045,6.713688471508469,-1.2630738271062063,6.8315471940428125
7.535430752570489,6.581276397647389,-1.194758355165778,7.111203613454491
7.601243516546964,6.420404427836589,-1.1236463190312331,7.355990016521656
7.66544756082533,6.231258154485927,-1.0500864188660166,7.565195798542452
7.7277601423701885,6.014390080151792,-0.974434460880592,7.738511278243174
7.787904043171706,5.770738828505209,-0.8970493480981603,7.876052420742533
7.845611431456758,5.501650464268125,-0.818288823890735,7.978397601445517
7.90062793609944,5.208892696190358,-0.7385048478762798,8.04662742724335
7.952716863061343,4.894652172904071,-0.6580385736038463,8.082356232267735
8.001663384790383,4.561506579161097,-0.5772150112811689,8.087743847188051
8.047278450581993,4.212366663915447,-0.4963375728092884,8.065478699093118
8.089402117221148,3.85038808739454,-0.4156827858183572,8.01872780118856
8.127905998095093,3.478858083657137,-0.33549550780647164,7.951054807110137
8.162694578931664,3.1010662639258393,-0.2559849597353703,7.866312803599327
8.193705241570923,2.7201714633080636,-0.17732183169937699,7.76852269836737
8.220906956204004,2.3390768426604014,-0.09963660471570328,7.661750102729036
8.244297724630608,1.9603235756796957,-0.023019103688412923,7.549993281196733
8.263900960387405,1.586009983016024,0.05248082912355441,7.437092417840724
8.279761060217565,1.2177388165406602,0.12685175330196163,7.326666924657144
8.291938448382972,0.8565914431065421,0.20011842254853307,7.222083711651405
8.300504362814037,0.5031245881054034,0.27233925966504713,7.126456031841574
8.305535608695092,0.1573833932505202,0.3436038199834629,7.042670181949758
8.307109442627597,-0.18107617719540453,0.41403052180296046,6.973436114175841
8.305298680855643,-0.5131622811991228,0.48376488294471887,6.921357740843728
8.300167058043652,-0.8402251929560238,0.5529784603531561,6.8890190295016716
8.291764806114092,-1.1640424617072505,0.6218686506481729,6.879082365160772
8.28012438149702,-1.4868130864430107,0.6906594742997806,6.894395353606841
8.26525625063259,-1.811159045457577,0.759603427835849,6.93810006298843
8.247144660178014,-2.1401263548275753,0.8289844284657333,7.013732483291407
8.225743396629738,-2.4771660350837217,0.8991217532986473,7.125285512356634
8.200971736278902,-2.8260519917162688,0.9703746084222137,7.277177763436712
8.172711216361739,-3.190646543821315,1.0431463860565808,7.474007100916612
8.140804750923525,-3.5743355195023563,1.117886457065747,7.719844326974715
8.105061395728502,-3.9787968382241012,1.1950849003354942,8.016600681571257
8.065273427346261,-4.401533678865918,1.2752509071512068,8.360672424084218
8.021258090557602,-4.831440129238284,1.358857631392049,8.73682353286558
7.972943689265219,-5.242253865621724,1.4462258667207049,9.109057065882896
7.920521150609002,-5.586850999787136,1.5373164373795338,9.412511435272751
7.86465264061113,-5.802289708029244,1.6314415517322614,9.56009528454369
7.806629743530838,-5.838039878530253,1.7270425045776983,9.481163380824297
7.748249344745536,-5.695589750679499,1.8218541383859412,9.175935976279572
7.69129344723874,-5.433299584203336,1.913613498148737,8.72193466828703
7.636960451396707,-5.12483740301591,2.0008328448316073,8.216800269772257
7.585712077366548,-4.821916795597411,2.08300084752933,7.7277045489784815
7.537492909410574,-4.548926592417702,2.160277893019115,7.284702861670868
7.492003643486397,-4.312970756005712,2.2331249216358238,6.894819218166905
7.44887393592634,-4.113191945290141,2.302073113817493,6.554792250192438
7.407742016473438,-3.9459264027942673,2.367621036319417,6.25798111374331
7.368282752445496,-3.8069909544685556,2.43020084745685,5.997342114547807
7.33021284290081,-3.6925474983082207,2.490174268602328,5.766492443694221
7.293287367917728,-3.599354737526962,2.54783919303927,5.559970127241471
7.257293820542458,-3.524780919540015,2.603438894311685,5.373193821470761
7.222046011347057,-3.466735593853902,2.6571708325263925,5.2023314281171205
7.187378655408518,-3.423582862519923,2.7091941468075635,5.044158385111612
7.153142826783319,-3.3940583066107073,2.7596357306586796,4.8959339508197175
7.119202243717212,-3.37719528447164,2.8085950701668767,4.755303484912899
7.0854302908724955,-3.372259739678288,2.856148105016006,4.620227760295628
7.051707693475713,-3.378690127133462,2.902350382618962,4.488938769959388
7.017920792204378,-3.3960381237272137,2.9472397703185558,4.359921987162703
6.983960410967105,-3.4239055094410125,2.990838990190183,4.231926123676389
6.949721355872695,-3.461872776199648,3.0331582514269466,4.104002291603957
6.915102628110699,-3.50941584572687,3.074198274342986,3.9755743959856025
6.88000846965343,-3.5658092475313365,3.113954018302842,3.846540704750473
6.844350377178117,-3.6300179091372837,3.1524194253503466,3.717401809468855
6.808050198086744,-3.700585988082658,3.1895934434450353,3.5894016235044806
6.771044338205917,-3.775540032077805,3.22548745968008,3.464655451891846
6.733288937885139,-3.8523339278017246,3.2601340141989983,3.3462242755476193
6.694765598607122,-3.9278710663883283,3.2935962569544746,3.2380823267997134
6.655486887943239,-3.9986389438534373,3.3259770802224717,3.1449246101388337
6.615500498504704,-4.060976360767768,3.35742632632386,3.0717823121639407
6.574890734897027,-4.111460520960692,3.3881441494454996,3.023461933858474
6.5337761296874195,-4.147356859362624,3.4183787687840845,3.003889904844061
6.492302561093793,-4.167035641253969,3.4484176678325253,3.0155031178859053
6.450632204681254,-4.17024818255814,3.4785726990113846,3.058844352787705
6.408929722855673,-4.158184771149717,3.5091611425392615,3.1324798202435287
6.367347875144175,-4.133298373972339,3.540485940741697,3.2332643946738857
6.326014891404452,-4.0989466265812755,3.5728185846884357,3.356877639153745
6.28502542513864,-4.058949776974088,3.6063873610799733,3.4984854899887465
6.244435927368899,-4.017168659435168,3.6413722159798607,3.6533726771605637
6.204264240774547,-3.9771794079018403,3.677905942751466,3.817432487936547
6.164492446695529,-3.942078960488927,3.7160802676308315,3.9874652727839908
6.125071657090639,-3.9144167084854296,3.7559549203586715,4.161295704245035
6.085927490005784,-3.8962239541439927,3.797567877401122,4.337754411313035
6.0469652504643445,-3.8891054716847626,3.8409454215142524,4.51658044551921
6.008074195747497,-3.8943616319624965,3.8861112259694446,4.698294647693655
5.969130579427872,-3.9131190150227533,3.9330941724463813,4.8840800500248145
5.929999389277644,-3.9464574399574732,3.9819349729466293,5.07569124075691
5.89053481487807,-3.9955294238614476,4.032691885354199,5.275403813545365
5.850579520639455,-4.061673577350019,4.085445923489653,5.486008464326989
5.809962784865955,-4.146526613729087,4.140306008132923,5.710851249116179
5.7684975187286645,-4.252139906641646,4.1974145206240845,5.953920542256584
5.725976119662248,-4.381105827869174,4.256953726046651,6.219980421398968
5.682165061383556,-4.536695203475452,4.31915353026064,6.514746554283268
5.636798109348802,-4.722996357752118,4.384300995803472,6.845088208170081
5.58956814577128,-4.945018866155287,4.452751877885173,7.219205301718134
5.540117957109727,-5.208658742898409,4.524943930902354,7.646641168074773
5.488031369680743,-5.520264579663337,4.601410342583102,8.137777989421203
5.43282872388411,-5.885184965023517,4.682788122477314,8.701967372609367
5.3739768742338745,-6.3039181593532545,4.769807796203407,9.342393884202252
5.3109376926403415,-6.763185557182925,4.86323173504543,10.043948571051379
5.243305837068513,-7.218481952000496,4.963671220755944,10.74927012542694
5.171121017548508,-7.570988625721521,5.071163922010213,11.326822625727436
5.095411131291293,-7.670506037287904,5.184432148267487,11.574803316787591
5.018706070918414,-7.406521891347685,5.300180181435363,11.346839467594906
4.944640852004937,-6.8378522851759405,5.413648576111312,10.72972491736461
4.876262329153178,-6.1462990359913645,5.520945825284958,9.976383673448748
4.814799338793264,-5.471239003884107,5.620709662019445,9.277469017191645
4.760086948754424,-4.8637095308587,5.713484352191362,8.70109375509838
4.711449853445837,-4.3266288244474325,5.800495289742345,8.250143013162807
4.668183565201362,-3.8477425283241407,5.882996719873973,7.907856603326546
4.62970613991812,-3.4128297715268263,5.962075285907239,7.6556952302697265
4.595577842202852,-3.0094437670971526,6.038632238209936,7.478177374990009
4.56548340453188,-2.627464049448168,6.113414011959836,7.363413590207716
4.539208764037399,-2.258795124856923,6.187048147861914,7.302524597643835
4.51662081278883,-1.8969414934300506,6.260073393838352,7.288912065714407
4.497651397854529,-1.536655382640095,6.332962514495496,7.317625023488151
4.482284844028128,-1.173692368775066,6.406138764730378,7.384850450338333
4.470547920340378,-0.8046672942220383,6.479987269233761,7.487502704390046
4.462501247398158,-0.4269951902276383,6.554862296277661,7.622880088158895
