th1 (rad),w1 (rad/s),th2 (rad),w2 (rad/s)
6.280342015681571,3.020634218864157,5.447823331099367,-2.4503083922299553
6.310548357870212,2.9313175590081335,5.423320247177068,-2.2500406340127723
6.339861533460294,2.847882756731907,5.40081984083694,-2.0564656360267235
6.368340361027613,2.770015683723858,5.380255184476673,-1.86934981476956
6.396040517864852,2.6972801558095956,5.361561686328978,-1.6883125689540763
6.423013319422948,2.629180185991919,5.344678560639437,-1.5129116301795926
6.449305121282867,2.5651981957716665,5.329549444337641,-1.3426951061332542
6.474957103240584,2.5048176324257607,5.316122493276309,-1.1772318433560136
6.500005279564841,2.4475357236571034,5.304350174842749,-1.016127983096383
6.524480636801412,2.3928701408489297,5.294188895011785,-0.8590348804651242
6.548409338209901,2.3403620021955978,5.285598546207134,-0.7056517138549535
6.571812958231857,2.289576758896985,5.278542029068585,-0.5557248942223746
6.594708725820827,2.240103929724328,5.272984780126361,-0.40904559570171306
6.61710976511807,2.1915562774115793,5.268894324169344,-0.26544622570154175
6.6390253278921865,2.1435687827161742,5.266239861912329,-0.1247963346553925
6.660461015719348,2.0957976208948175,5.264991898565775,0.0130017331937414
6.681418991928297,2.047919249658592,5.265121915897712,0.14801726935331774
6.701898184424882,1.999629657394174,5.266602088591245,0.2802956069319944
6.721894480998824,1.9506437827753857,5.269405044660565,0.40986244297635976
6.741400918826578,1.90069509370356,5.273503669090329,0.5367280428593966
6.760407869763614,1.8495352996388714,5.2788709495189226,0.660891306099021
6.778903222760002,1.7969341635386136,5.285479862579913,0.7823436799208765
6.796872564395389,1.74267937571845,5.293303299379121,0.9010729099276535
6.8142993581525735,1.6865764506686958,5.302314028478398,1.0170666182974666
6.83116512265926,1.6284486083328222,5.312484694661373,1.1303157002021114
6.847449608742588,1.5681366030284978,5.323787851663394,1.2408175293510844
6.863130974772873,1.505498465685287,5.336196026956905,1.3485789641701675
6.878185959429726,1.4404091281239335,5.349681816598607,1.4536191473616562
6.892590050710965,1.3727599015159173,5.364218008072223,1.5559720935891088
6.906317649726125,1.3024577847870251,5.379777729008114,1.655689062824807
6.9193422275739955,1.2294245824385834,5.396334619636362,1.7528407204841265
6.931636473398381,1.1535958149429937,5.413863026841203,1.847519089806972
6.943172431547811,1.074919408422802,5.4323382177392725,1.9398393069705697
6.95392162563204,0.9933541536463005,5.451736610808978,2.029941195052993
6.963855167168503,0.9088679273739488,5.472036022759508,2.1179906791210135
6.972943846442242,0.821435671682859,5.493215929550718,2.20418107128002
6.981158203159071,0.7310371290102846,5.515257740263518,2.288734261364286
6.988468574449174,0.6376543322484236,5.538145082877161,2.3719018558927374
6.994845117771658,0.5412688502974956,5.561864101436089,2.4539663147415824
7.000257806274633,0.4418587901286228,5.586403764583505,2.5352421413736534
7.004676394175919,0.3393955568395498,5.611756185997241,2.616077187952997
7.008070349744314,0.23384037382742778,5.637916957876771,2.6968541405657733
7.010408753482588,0.12514056679777463,5.664885499282429,2.7779922509886497
7.011660159150566,0.013225619121733367,5.692665421792316,2.859949378302277
7.011792415341783,-0.10199698593047367,5.721264915575339,2.9432243934557074
7.010772445482479,-0.22064610506807653,5.750697159509896,3.028359978364432
7.008565984431798,-0.3428713978439495,5.78098075929354,3.1159458114209873
7.005137270453359,-0.4688578044506035,5.81214021740775,3.206622062457376
7.0004486924088525,-0.5988298477064167,5.844206438032324,3.301083004715983
6.994460393931789,-0.7330554315843336,5.877217268079484,3.4000803613424857
6.987129839615945,-0.8718485852618171,5.911218071692908,3.5044256949522175
6.9784113537633266,-1.0155702412469418,5.9462623286424305,3.6149906508896636
6.968255651350857,-1.1646255600641253,5.982412235151327,3.7327030684077833
6.956609395750216,-1.3194554021962643,6.019739265835405,3.858535710957447
6.943414841728253,-1.4805181225081068,6.058324622944979,3.9934823863989504
6.928609660503172,-1.648255673571581,6.098259446808968,4.138513176140889
6.912127103767456,-1.82303473869333,6.139644578570377,4.294495919541002
6.8938967563805225,-2.0050489770417834,6.182589537765787,4.4620645703273984
6.873846266610105,-2.1941624540409843,6.227210183469061,4.641406516890811
6.851904642069695,-2.3896679986813254,6.273624248637969,4.831931833693155
6.828007962082882,-2.589931370770906,6.3219435669749,5.031782905052275
6.802108648375173,-2.791902496106454,6.372261396025423,5.237156445686165
6.774189623414109,-2.9905187049399142,6.424632960482285,5.441469591770529
6.744284436364709,-3.178132758928987,6.47904765639999,5.634550721691158
6.71250310877542,-3.3442919817498438,6.535393163616901,5.802304709800599
6.679060188957921,-3.4764159279341844,6.593416210714907,5.927611758947217
6.644296029678579,-3.5619188399149753,6.652692328304379,5.993221816486107
6.608676841279429,-3.5916931591550547,6.7126245464692404,5.986536572515511
6.572759909687878,-3.5635889032168646,6.772489912194396,5.9043952460829825
6.5371240206557095,-3.483692723633762,6.831533864655226,5.754830448962728
6.502287093419372,-3.3642964019820263,6.889082169144853,5.5542700330518056
6.468644129399552,-3.219849720784893,6.944624869475371,5.321987859403573
6.4364456321917025,-3.0633405262180062,6.997844748069407,5.07517414696482
6.405812226929522,-2.9044985749248045,7.048596489539055,4.826529375013565
6.376767241180274,-2.749649865763193,7.096861783289191,4.584117869371274
6.349270742522642,-2.6023974805659167,7.142702961982904,4.352335135039057
6.3232467677169835,-2.46446753491051,7.186226313333295,4.1330811200254285
6.2986020923678785,-2.3364147910233246,7.227557124533549,3.926727103726956
6.275237944457645,-2.2181197432901003,7.2668243955708185,3.7327896502986424
6.253056747024744,-2.109107363096642,7.304152292073805,3.5503577528231944
6.231965673393778,-2.0087392480547157,7.339655869602037,3.3783466445641035
6.211878280913231,-1.9163238282396378,7.373439336047678,3.215640563352254
6.192715042630835,-1.8311762964619263,7.405595741681201,3.0611681576859056
6.174403279666215,-1.7526487802728057,7.43620742325806,2.913938572483909
6.156876791863487,-1.6801434168829175,7.4653468089829,2.7730553475295205
6.140075357694658,-1.6131159189190327,7.493077362458195,2.6377182826233825
6.123944198505468,-1.5510740878509632,7.519454545284429,2.507219152534926
6.108433457626958,-1.493573847925116,7.544526736809778,2.3809346078352784
6.093497719147707,-1.4402142572199128,7.5683360828881305,2.2583181038300197
6.079095576575508,-1.3906322983078294,7.5909192639264305,2.138891834941611
6.06518925359243,-1.3444978714936568,7.6123081822758465,2.0222391578136123
6.0517442748774934,-1.3015091960447727,7.632530573853983,1.907997709070682
6.038729182917046,-1.2613887022580352,7.65161055094469,1.795853272148153
6.026115295894465,-1.2238794300115783,7.669569083666171,1.6855343685573048
6.01387650159435,-1.1887419142743092,7.686424427351744,1.5768075111931306
6.0019890824516064,-1.155751521152793,7.702192502463675,1.4694730426499787
5.990431567240078,-1.1246961913885798,7.716887232890175,1.3633614794436435
5.979184605326192,-1.0953745470824556,7.730520847684612,1.2583302874688453
5.9682308598553675,-1.0675943191056871,7.7431041505593,1.154261021482061
5.957554916664311,-1.0411710556262856,7.75464676077412,1.0510567699473483
5.947143206108048,-1.0159270755866427,7.7651573284735935,0.9486398551565568
5.936983935352181,-0.9916906343784337,7.774643727025159,0.8469497465829592
5.927067029008397,-0.968295272165897,7.783113224490989,0.74594115268585
5.917384076286738,-0.9455793182351242,7.790572636017847,0.6455822627516158
5.907928283104387,-0.9233855273905125,7.7970284586453635,0.5458531158211133
5.898694427830482,-0.9015608268091903,7.802486989803574,0.4467440783478208
5.88967881956239,-0.8799561539411999,7.806954430587052,0.3482544160142796
5.880879258022978,-0.8584263680482066,7.810436974747195,0.2503909481761922
5.8722949943424965,-0.8368302198400649,7.812940884228957,0.15316677578062265
5.863926692144096,-0.815030365419929,7.814472551986763,0.05660007539660335
5.855776388489897,-0.7928934123967212,7.815038552740729,-0.039287046715846485
5.84784745436593,-0.7702899875700304,7.814645682273571,-0.13446964570726547
5.840144554490229,-0.7470948170292115,7.813300985816498,-0.22892097909674075
5.832673606319937,-0.7231868108209922,7.811011776025531,-0.32261350201243394
5.825441738211727,-0.6984491455092902,7.807785641005406,-0.41551982106944124
5.818457246756634,-0.6727693389564114,7.803630442794712,-0.5076136112880033
5.81172955336707,-0.6460393124762857,7.798554306681832,-0.598870500561693
5.805269160242307,-0.6181554361308707,7.792565601676215,-0.6892689262990733
5.799087605880999,-0.5890185533482701,7.785672912413225,-0.7787909689441713
5.793197420347516,-0.5585339812298534,7.777885002723783,-0.8674231671051578
5.787612080535218,-0.526611482885528,7.769210771052732,-0.9551573189756979
5.782345965706362,-0.49316520790083695,7.759659197862975,-1.0419912746236544
5.777414313627354,-0.458113596613709,7.749239285116738,-1.1279297235665804
5.772833177661217,-0.4213792432860125,7.737959987881073,-1.2129849818868768
5.768619385228357,-0.3828887125240918,7.7258301380622045,-1.2971777830092324
5.764790498103116,-0.3425723024646148,7.712858360232112,-1.3805380762284511
5.761364775078469,-0.300363747329088,7.699052979469828,-1.463105837205914
5.758361137605179,-0.2561998509913396,7.684421921097769,-1.5449318950236621
5.755799139095266,-0.2100200422202903,7.668972602147533,-1.6260787810765593
5.753698938673063,-0.16176584126935264,7.652711814336767,-1.7066216061769413
5.752081280260369,-0.11138022648534293,7.635645598274998,-1.7866489738234546
5.750967477995515,-0.058806888590146426,7.617779108536763,-1.8662639397245697
5.750379409109613,-0.003989359216303279,7.599116469139518,-1.9455850304416125
5.75033951551745,0.053130000896949726,7.579660618835102,-2.0247473374957132
5.75087081552642,0.11261116998714232,7.5594131454601445,-2.1039037075331115
5.751996927226291,0.17451780717698362,7.538374108384813,-2.183226054225345
5.753742105298061,0.23891878771917296,7.51654184784256,-2.2629068235530707
5.756131293175253,0.3058899535250613,7.4939127796070295,-2.343160651037772
5.759190192710504,0.3755161039371617,7.470481173096652,-2.424226257387258
5.762945353749876,0.44789325538035063,7.446238910522779,-2.5063686379280323
5.7674242863036795,0.5231312028996679,7.421175224143499,-2.5898816110789675
5.772655598332676,0.6013564216025474,7.39527640803271,-2.6750908018424546
5.778669162548701,0.6827153514332445,7.368525500014285,-2.7623571475213886
5.785496316063034,0.7673781139751287,7.340901928539071,-2.852081023923019
5.793170097202785,0.8555427140388554,7.312381118299841,-2.944707099850475
5.801725524343174,0.9474397797037738,7.282934047301336,-3.040730033249391
5.8111999221402115,1.0433378887959617,7.252526746968842,-3.1407011195602363
5.821633301028172,1.143549511549283,7.2211197357732395,-3.2452359838683322
5.833068796143665,1.2484375581924163,7.188667375934556,-3.355023359860634
5.845553171725589,1.3584224390322346,7.15511714233595,-3.470834897143633
5.859137396115911,1.4739893936985238,7.120408793364514,-3.5935357442644986
5.873877290052897,1.5956955754445314,7.084473435921869,-3.724095299613457
5.889834245807342,1.7241759009204802,7.047232482925735,-3.863596890057133
5.907076004816547,1.8601458526027772,7.008596514025164,-4.013244030536327
5.925677463342575,2.0043980106877535,6.9684640737198,-4.174359005297662
5.945721443449453,2.157786699015284,6.9267204836668235,-4.348366243197596
5.967299310439606,2.3211911225682296,6.883236821234847,-4.536747449479456
5.9905112216652885,2.4954407910246665,6.837869346740053,-4.740946350110265
6.0154656295755355,2.681176561293156,6.790459883238951,-4.962186349253023
6.042277395188467,2.8786049986288393,6.740838019746421,-5.201142510184207
6.071063445174755,3.0870831819434543,6.688826594644579,-5.457380203277261
6.10193427699419,3.304451917615712,6.6342527926118064,-5.7284450906245254
6.134978796170348,3.526041296177376,6.5769683417055615,-6.008495481442533
6.170239209132122,3.743365486141139,6.516883386891136,-6.2864943301782175
6.207672863993533,3.9428206580008123,6.454018443589354,-6.544387575275233
6.2471010705735415,4.105310632103575,6.388574567836602,-6.756542629019122
6.288154176894577,4.208432551159007,6.321009141546411,-6.89270721328463
6.330238502406167,4.232557593901609,6.252082069413565,-6.926342952933481
6.372564078345183,4.169284755167364,6.18281863988423,-6.846228520407342
6.414256925896857,4.026621713445843,6.114356354680157,-6.663520762392319
6.454523143031316,3.825857718911274,6.047721147056234,-6.407351637502092
6.492781720220428,3.592367444548202,5.983647630681213,-6.112137856242369
6.52870539466591,3.347496826884586,5.922526252118789,-5.806505014664818
6.562180362934756,3.1054473999313914,5.864461201972142,-5.5091554027015714
6.593234836934069,2.87399725653555,5.809369647945126,-5.229987932950956
6.621974809499425,2.6565191295866244,5.757069768615617,-4.972939765643894
6.648540000795291,2.45381164246007,5.707340370959178,-4.738520604271283
6.673078117219891,2.265345248915469,5.659955164916465,-4.525515577295248
6.695731569709046,2.089998784121775,5.614700009143513,-4.331978423388539
6.716631557550263,1.9264582665916379,5.571380224909627,-4.155759790440077
6.735896140216179,1.773417264251894,5.529822627005227,-3.9947655669516666
6.753630312858698,1.6296682706487293,5.48987497133571,-3.8470689594238756
6.769926995565186,1.4941370053944647,5.451404281741471,-3.7109473890799167
6.78486836561913,1.3658882201909002,5.414294807850672,-3.5848829107332154
6.798527247821039,1.244118231913298,5.37844597874334,-3.4675464941908087
6.810968430140172,1.1281420643330975,5.343770513801432,-3.3577765157742423
6.822249850783503,1.0173791419023372,5.310192748643689,-3.2545565032734216
6.832423642202527,0.9113394023588357,5.277647183610955,-3.1569944168879336
6.841537036226115,0.8096106198894394,5.246077239442076,-3.0643043435863544
6.849633142425009,0.7118471889464333,5.215434196006212,-2.9757907910008585
6.856751614314474,0.6177603585230997,5.185676288096204,-2.8908354469459256
6.862929217899705,0.5271097929018349,5.156767933626744,-2.80888614041535
6.868200315828723,0.4396962957201181,5.128679072222591,-2.7294477039126006
6.872597278785924,0.35535553154812266,5.101384595183465,-2.6520744453410474
6.876150834101405,0.2739525930148941,5.074863850730054,-2.576363964801421
6.878890360031554,0.19537728151404365,5.04910021108204,-2.5019520847105614
6.880844132846694,0.11953999048506844,5.024080690234935,-2.4285086945910557
6.882039532751545,0.046368099760472584,4.999795603289024,-2.355734342086807
6.88250321374915,-0.02419719351675459,4.976238259868156,-2.2833574283832907
6.882261241813982,-0.09220366763939009,4.953404685584323,-2.211131889232605
6.881339205137588,-0.1576905413813785,4.931293366691997,-2.1388352625330462
6.879762299723774,-0.2206906507831656,4.909905014066666,-2.066267060328791
6.877555393215943,-0.281232370001213,4.889242343463378,-1.9932473776045891
6.87474306951593,-0.3393413031656163,4.869309869687332,-1.9196156827197872
6.871349656484274,-0.3950417702133763,4.850113712860135,-1.8452297450468624
6.8673992387821405,-0.4483581067827595,4.831661415409666,-1.769964664572012
6.862915657714313,-0.4993157961860116,4.813961768763946,-1.693711976040406
6.857922499752453,-0.5479424499765666,4.797024649003542,-1.6163788068044211
6.852443075252688,-0.5942686524820568,4.780860860935498,-1.537887072950093
6.8465003887278675,-0.63832868371295,4.765481990205997,-1.4581727026124742
6.840117101890738,-0.6801611341442799,4.750900263179872,-1.3771848787200636
6.833315490549295,-0.7198094239088532,4.7371284143926715,-1.2948852958141281
6.826117396310207,-0.7573222378755827,4.72417956143453,-1.211247427164396
6.818544173931451,-0.7927538868914653,4.712067087162886,-1.1262557992559206
6.810616635062536,-0.8261646041456523,4.700804529170327,-1.039905270973728
6.8023549890210795,-0.857620784199824,4.690405476460589,-0.952200314593311
6.793778781179081,-0.8871951707710284,4.6808834733146565,-0.8631542951331788
6.784906829471371,-0.9149669979151634,4.672251930363324,-0.7727887438779066
6.775757159492219,-0.9410220879125212,4.664524042924545,-0.6811326210682217
6.766346938613093,-0.9654529079736952,4.6577127167138626,-0.5882215619987134
6.756692409533357,-0.9883585869328239,4.651830501093875,-0.49409710016669073
6.746808823664028,-1.0098448924345529,4.646889530092208,-0.39880586075841773
6.736710374739682,-1.0300241687970628,4.642901471484624,-0.3023987176966352
6.726410133051711,-1.0490152357756328,4.639877484307657,-0.20492990773286973
6.715919980693955,-1.0669432488710733,4.637828185230329,-0.10645609564721256
6.705250548205244,-1.083939522617751,4.636763624273857,-0.007035385485727477
6.694411152979066,-1.1001413194213756,4.636693270418999,0.09327372613694578
6.683409739784853,-1.1156916079551544,4.637626007680369,0.194413457397118
6.672252823705302,-1.130738796808559,4.639570142254341,0.2963279107197959
6.660945435737216,-1.1454364509499746,4.642533421361539,0.3989643045487913
6.649491071227716,-1.159943000541846,4.646523064407027,0.5022742666137554
6.637891641222298,-1.174421453663216,4.651545807073164,0.6062151871657334
6.626147426685666,-1.1890391264835714,4.657607958944822,0.7107516303756218
6.61425703542083,-1.2039674063376709,4.664715475248578,0.815856802356841
6.602217361357454,-1.2193815649324247,4.672874043272147,0.9215140751776197
6.59002354570813,-1.2354606405512552,4.682089184023923,1.0277185678439806
6.577668939302617,-1.2523874096068053,4.692366369702363,1.1344787876159645
6.565145065206549,-1.270348469248804,4.703711157578522,1.241818338200436
6.552441580514061,-1.2895344539996476,4.716129340960526,1.3497777053577145
6.539546235974064,-1.3101404106209504,4.729627118014103,1.4584161352610778
6.526444831867854,-1.3323663566738397,4.744211279366714,1.567813626533466
6.513121168301116,-1.356418049585366,4.759889415632048,1.6780730632072296
6.499556987805263,-1.3825079945144934,4.77667014626412,1.7893225228303398
6.485731907860117,-1.4108567209190392,4.794563371492424,1.9017178014412948
6.471623340650927,-1.441694359368595,4.8135805495068364,2.0154452049248435
6.4572063970572415,-1.4752625515875566,4.833735001556085,2.130724663943588
6.442453771541366,-1.5118167274575953,4.855042248195521,2.247813236527389
6.427335604266791,-1.5516287818620977,4.877520380560795,2.367009067306222
6.411819316448169,-1.5949901802509519,4.901190471233857,2.488655873265258
6.39586941464566,-1.6422155119895492,4.9260770299665095,2.613148019350356
6.379447259525765,-1.693646490503562,4.9522085101600135,2.7409362274871247
6.3625107946207295,-1.7496563616134886,4.9796178724348845,2.8725339199525726
6.345014231004595,-1.8106546141950801,5.00834321163441,3.0085241165009577
6.326907684862644,-1.8770917705475225,5.03842845279942,3.1495666575501717
6.308136767157169,-1.9494638349954312,5.069924119374922,3.29640526896791
6.288642128807215,-2.02831564485509,5.102888172064601,3.449873544732202
6.268358972358664,-2.1142418107106944,5.137386907511923,3.6108981823048913
6.2472165542515565,-2.20788301160333,5.173495889334972,3.7804965668914337
6.225137724135523,-2.309913899470773,5.211300855003886,3.9597637515856747
6.202038585140816,-2.42101641498995,5.250898492519743,4.149840530771287
6.177828420990917,-2.5418284049748485,5.292396897827455,4.351848924764773
6.152410136941168,-2.672851367345446,5.335915387075103,4.566773001630156
6.125681623267714,-2.8142922215532113,5.381583117091404,4.795250523243963
6.097538701052182,-2.9658021197531252,5.429535622323844,5.037224204484726
6.0678806798546505,-3.1260628999232485,5.479907864368691,5.291383633787007
6.036620050855418,-3.2921683791615077,5.532821700706561,5.554323159625018
6.003698367063802,-3.458778987723874,5.588364932302811,5.819382767990191
