th1 (rad),w1 (rad/s),th2 (rad),w2 (rad/s),a1 (rad/s^2),a2 (rad/s^2)
0.4242715730985327,-2.228271694209654,3.489629760439285,2.254646940072282,-4.698506918299514,-1.720690879714872
0.40198885615643615,-2.2752567633926493,3.512176229840008,2.237440031275133,-4.12229026272282,-0.7336468061739128
0.3792362885225097,-2.3164796660198776,3.5345506301527596,2.230103563213394,-3.497809693486661,0.3287904823164678
0.3560714918623109,-2.351457762954744,3.5568516657848934,2.2333914680365585,-2.8443974642147354,1.4412450011655435
0.33255691423276346,-2.3799017375968914,3.579185580465259,2.247803918048214,-2.183845188227308,2.5748662145123125
0.30875789685679456,-2.4017401894791646,3.6016636196457408,2.2735525801933374,-1.5389917132953899,3.6994082073351815
0.28474049496200293,-2.4171301066121185,3.6243991454476743,2.310546662266689,-0.9321752607663336,4.785516118431256
0.26056919389588173,-2.4264518592197817,3.647504612070341,2.358401823451002,-0.38374191789692147,5.806931112374142
0.23630467530368393,-2.430289278398751,3.671088630304851,2.4164711345747434,0.08920643111307723,6.7423384709160255
0.21200178251969642,-2.42939721408762,3.6952533416505986,2.4838945192839037,0.47368415289577065,7.576648538873726
0.18770781037882023,-2.424660372558662,3.7200922868434376,2.559661004672641,0.7612388315244486,8.301600989821571
0.1634612066532336,-2.4170479842434176,3.745688896890164,2.642677014570857,0.9479111201517176,8.915694881491937
0.13929072681079943,-2.4075688730419005,3.772115667035872,2.7318339633857764,1.0338000831156995,9.423545408365358
0.11521503808038043,-2.3972308722107436,3.79943400666973,2.82606941746943,1.02234096493859,9.834834709714396
0.09124272935827299,-2.3870074625613578,3.827694700844424,2.924417764566574,0.9194209998447792,10.163050649857341
0.06737265473265941,-2.37781325256291,3.8569388784900895,3.0260482710651475,0.7324533698998871,10.424196997884637
0.043594522207030306,-2.370488718863911,3.887199361200741,3.130290241043994,0.4695062191596913,10.63562147351533
0.019889635018391194,-2.365793656672314,3.918502263611181,3.2366464557791472,0.13855140531899654,10.815058426253467
-0.003768301548331944,-2.364408142619124,3.9508687281689725,3.3447970400416818,-0.25313543978523934,10.97993309980756
-0.027412382974523187,-2.3669394970169764,3.984316698569389,3.4545963710397576,-0.6994201277987666,11.146933324467597
-0.05108177794469295,-2.373933698294964,4.018862662279787,3.5660657042844335,-1.1956172635585351,11.331826304103076
-0.0748211149276426,-2.3858898709305496,4.054523319322631,3.6793839673254642,-1.7386885515377049,11.549483234385706
-0.09868001363694809,-2.4032767564459268,4.091317158995886,3.794878799669321,-2.327365827605602,11.814070602656546
-0.12271278120140736,-2.4265504147219827,4.129265946992579,3.9130195056958867,-2.9622325159309004,12.139370896579516
-0.14697828534862717,-2.456172739881292,4.168396142049538,4.034413214661682,-3.645794152322812,12.539203787900162
-0.17154001274744007,-2.49263068140452,4.208740274196154,4.159805252540684,-4.382564135748105,13.0279288878092
-0.19646631956148528,-2.536456322762001,4.250338326721561,4.290084541418776,-5.179185837402054,13.62102072717997
-0.2218308827891053,-2.5882481811360214,4.293239172135749,4.426294748690576,-6.0446066176843205,14.335713835192104
-0.2477133646004655,-2.6486942473128647,4.337502119622655,4.569651887042497,-6.9903120671780865,15.191718444817116
-0.27420030707359416,-2.718597367984646,4.38319863849308,4.721569071490668,-8.030617093410221,16.212001682456755
-0.30138628075344065,-2.798903538918748,4.430414329207987,4.8836890883152355,-9.182988526922877,17.42360771747126
-0.3293753161426281,-2.8907334241879767,4.47925122009114,5.057925165489948,-10.468330224935489,18.858438286667365
-0.35828265038450785,-2.9954167264373317,4.529830471746039,5.246509548356622,-11.911073510205746,20.55380195457064
-0.3882368176488812,-3.114527461539389,4.582295567229606,5.452047567902328,-13.538738309165831,22.55230540855284
-0.4193820922642751,-3.2499148446310473,4.636816042908629,5.677570621987856,-15.380275033465866,24.900181282703656
-0.45188124071058555,-3.403717594965706,4.693591749128507,5.926572434814893,-17.461791915480717,27.642185606762297
-0.4859184166602426,-3.5783355141205133,4.752857473476657,6.202994290882516,-19.796894066699306,30.809302297513728
-0.5217017718014477,-3.7763044547875064,4.814887416385482,6.511087313857653,-22.36625285712757,34.39187771505931
-0.5594648163493228,-3.999966983358782,4.879998289524059,6.855006091008246,-25.076434491654897,38.28439509098828
-0.5994644861829106,-4.250731328275331,4.948548350434141,7.237850041918128,-27.68127557426551,42.17856933204888
-0.641971799465664,-4.527544084017986,5.020926850853322,7.659635735238617,-29.64436547544062,45.37442356140924
-0.6872472403058438,-4.823987738772392,5.0975232082057085,8.11337997085271,-29.939479658972108,46.503473074096185
-0.7354871176935678,-5.123382535362113,5.178657007914236,8.578414701593672,-26.891143739009255,43.30312463797319
-0.7867209430471889,-5.3922939727522055,5.264441154930172,9.011445947973405,-18.447642788504737,32.98364541270232
-0.8406438827747109,-5.576770400637253,5.3545556144099065,9.341282402100427,-3.576432129773086,14.143299122191273
-0.8964115867810835,-5.612534721934984,5.447968438430911,9.48271539332234,15.421349192782769,-10.052815347799655
-0.9525369340004333,-5.458321230007156,5.542795592364134,9.382187239844344,32.72549295742638,-31.65423552732187
-1.0071201463005048,-5.1310663004328925,5.636617464762577,9.065644884571125,43.33530782948768,-43.933151406219174
-1.0584308093048338,-4.697713222138016,5.727273913608288,8.626313370508933,46.84018238712918,-46.506753489708835
-1.105407941526214,-4.229311398266724,5.813537047313377,8.161245835611846,45.86970350915848,-43.09365451393098
-1.1477010555088811,-3.770614363175139,5.895149505669496,7.730309290472536,43.02874246758503,-37.2819806472421
-1.1854071991406325,-3.3403269384992886,5.972452598574221,7.357489484000115,39.82181631416285,-31.100950993093495
-1.2188104685256254,-2.94210877535766,6.046027493414222,7.04647997406918,36.89575508533212,-25.395424981106476
-1.248231556279202,-2.573151224504339,6.116492293154914,6.792525724258115,34.45349285872344,-20.410433192273548
-1.2739630685242453,-2.2286162959171043,6.1844175503974945,6.58842139233538,32.50958721045388,-16.1447619873855
-1.2962492314834164,-1.9035204238125654,6.250301764320849,6.426973772461524,31.011322657640367,-12.515663314590189
-1.315284435721542,-1.5934071972361616,6.314571502045464,6.301817139315623,29.88912799259402,-9.425957177935683
-1.3312185076939036,-1.2945159173102214,6.37758967343862,6.207557567536266,29.07530450590407,-6.788084530418246
-1.3441636668670058,-1.0037628722511807,6.4396652491139825,6.139676722232084,28.509645355883286,-4.530703555519809
-1.3542012955895177,-0.7186664186923477,6.501062016336303,6.0943696866768855,28.140011890511317,-2.5987533564162693
-1.3613879597764411,-0.4372662997872345,6.562005713203072,6.068382153112723,27.921209509372844,-0.9514028672900607
-1.3657606227743135,-0.15805420469350606,6.622689534734199,6.058868124439822,27.813495604859476,0.44043049376481286
-1.3673411648212486,0.12008075135508872,6.683278215978597,6.063272429377471,27.781220771206442,1.5964200671767295
-1.3661403573076978,0.39789295906715316,6.743910940272372,6.079236630049238,27.791769699447446,2.528890024292879
-1.3621614277170262,0.6758106560616277,6.804703306572864,6.104525530292167,27.8148383911444,3.2446156726887794
-1.3554033211564098,0.9539590399730717,6.865748561875786,6.136971687019055,27.822036297591875,3.7464261181166862
-1.3458637307566792,1.2321794029489905,6.927118278745977,6.174435948200222,27.78678382261739,4.034668240302911
-1.3335419367271892,1.5100472411751644,6.988862638227979,6.214782630603251,27.68446576758539,4.1085697138660855
-1.3184414643154376,1.7868918988510183,7.051010464534012,6.255868327741912,27.492791489260068,3.967511339618696
-1.3005725453269275,2.061819813743619,7.113569147811431,6.295543441138099,27.19230076405504,3.6121911790120276
-1.2799543471894912,2.3337428213841696,7.176524582222812,6.331665352928219,26.76694185370437,3.0456391119941166
-1.2566169189756495,2.6014122399212134,7.2398412357520945,6.36212174404816,26.204638118516392,2.274024362499474
-1.2306027965764375,2.8634586211063775,7.3034624531925765,6.384861987673155,25.497755572855688,1.3071938467662356
-1.2019682103653737,3.1184361768349342,7.367311073069308,6.3979339261408175,24.64338956338036,0.15888842071558956
-1.1707838485970243,3.364870072468738,7.431290412330716,6.399522810347974,23.64340635048805,-1.1533923551304015
-1.137135147872337,3.6013041359736184,7.495285640434195,6.38798888679667,22.504204407202554,-2.6088709837672934
-1.101122106512601,3.826346180045644,7.559165529302162,6.361900176958997,21.23619741048984,-4.184270886982517
-1.0628586447121444,4.038708154150543,7.622784531071752,6.320057468089172,19.85306031151021,-5.854806126239458
-1.022471563170639,4.2372387572656445,7.685985105752644,6.261509406826778,18.37081432774642,-7.595265122806885
-0.9800991755979824,4.420946900543108,7.7486001998209115,6.185556755598709,16.80684949085884,-9.38105875073638
-0.9358897065925513,4.589015395451697,7.810455767376899,6.091746168091345,15.178990118690177,-11.189110516457516
-0.8899995526380343,4.740805296638599,7.871373229057813,5.97985506292677,13.504698363963357,-12.998492768627473
-0.8425914996716484,4.875852280278233,7.93117177968708,5.849870135240495,11.800486541199728,-14.790752804714403
-0.793832976868866,4.99385714569023,7.989670481039485,5.701962607193352,10.081575624260761,-16.54991874540675
-0.7438944054119637,5.094672901932838,8.046690107111418,5.536463419739284,8.361801581515845,-18.262219188808814
-0.6929476763926353,5.178290917747996,8.10205474130881,5.353841227851196,6.653738944918675,-19.91558649034977
-0.6411647672151554,5.244828307197183,8.155593153587322,5.154685362947698,4.9689863499654034,-21.499037144755942
-0.5887164841431836,5.294518170696837,8.207140007216799,4.939694991500139,3.3185437774944786,-23.00203292008275
-0.5357713024362152,5.327703608471782,8.2565369571318,4.709674662299312,1.7132060735504133,-24.413923874284784
-0.48249426635149734,5.344835669207286,8.303633703754793,4.465535423556464,0.16390102581345767,-25.723561034085215
-0.42904590965942446,5.3464746794654205,8.348289057990357,4.2082998132156115,-1.3180886673618344,-26.919144511521385
-0.3755811628647703,5.333293792791802,8.390372056122512,3.9391083681003978,-2.7210633424157673,-27.988344289625417
-0.32224822493685223,5.3060831593676445,8.429763139803516,3.6592249252041436,-4.0330268788790065,-28.918697947880254
-0.26918739334317576,5.265752890578854,8.466355389055558,3.370037945725341,-5.241988572629862,-29.698254721155656
-0.21652986443738723,5.213333004852555,8.50005576851281,3.0730553985137847,-6.336420667736298,-30.316401758401124
-0.16439653438886168,5.149968798175192,8.530786322497947,2.7698913809297734,-7.3058232924655,-30.76478039591321
-0.11289684640710976,5.076910565250537,8.558485236307245,2.4622435769706414,-8.141331064788746,-31.038182257006095
-0.06212774075460439,4.9954972546026495,8.58310767207695,2.1518617544005805,-8.836286314901926,-31.135311102139752
-0.012172768208577892,4.9071343914536305,8.604626289620956,1.840508643379183,-9.386705003775335,-31.059308881269207
0.03689857570595841,4.8132673414158775,8.623031376054747,1.5299155545664909,-9.791573640032636,-30.817972793927723
0.0850312491201172,4.7153516050155515,8.638330531600412,1.2217358266272136,-10.052937279729306,-30.42363038941289
0.13218476517027272,4.614822232218258,8.650547889866683,0.9174995227330847,-10.175766391908857,-29.89268504466916
0.1783329874924553,4.5130645682991695,8.659722885094014,0.6185726722863931,-10.167618977485276,-29.244886400246425
0.22346363317544699,4.411388378524316,8.665908611816878,0.32612380828392884,-10.038138688389742,-28.502412059816386
0.26757751696069015,4.311006991640419,8.669169849899717,0.041099687685764996,-9.798445808753865,-27.68886316914487
0.31068758687709436,4.21302253355288,8.669580846776574,-0.23578894400568373,-9.460483898962467,-26.82827611269031
0.35281781221262315,4.118417694563255,8.667222957336516,-0.5040717051325869,-9.03638105479694,-25.944237792845467
0.3940019891582557,4.028053884015286,8.66218224028519,-0.7635140830610416,-8.537873380973046,-25.059167600015932
0.43428252799840855,3.9426751502055555,8.65454709945458,-1.0141057590612008,-7.975822737224009,-24.19380101070324
0.4737092795004641,3.8629169228333153,8.644406041863968,-1.2560437691682331,-7.359844482550238,-23.366882989247767
0.5123384487287973,3.789318478007813,8.631845604172286,-1.4897125990607107,-6.698046559216914,-22.59505767569167
0.5502316335088754,3.7223380124156438,8.616948478181678,-1.7156631758176275,-5.996870538662283,-21.89292593291437
0.5874550136330319,3.662369307029021,8.599791846423502,-1.9345924351467711,-5.261018890855482,-21.27323414065969
0.6240787067033221,3.6097591181204662,8.580445922072034,-2.147324776553368,-4.493450671611004,-20.747154803002154
0.6601762978845268,3.5648246114043562,8.558972674306501,-2.35479632458339,-3.695429611087975,-20.32461994979327
0.6958245439985704,3.5278703152934763,8.535424711060667,-2.5580425240813227,-2.866613826374672,-20.01466944831122
0.7311032471515052,3.4992041770297297,8.509844285819854,-2.7581892185644348,-2.0051850800176023,-19.825775430962256
0.7660952889218025,3.4791523262295536,8.48226239363421,-2.9564469728740574,-1.108028459277328,-19.76609788498693
0.800886812184098,3.4680720416367805,8.45269792390547,-3.1541079517239266,-0.17099257594116934,-19.843610871970625
0.8355675326004658,3.4663621158773688,8.42115684438823,-3.3525440604436327,0.81071026735978,-20.06600778070635
0.8702311537592394,3.4744692185509667,8.387631403783795,-3.5532041382506963,1.8418584611913362,-20.440238086025413
0.9049758459447491,3.49288780316288,8.352099362401288,-3.7576065191109502,2.92615131264378,-20.97143270185317
0.9399047239763779,3.5221493162893176,8.31452329721018,-3.967320846129482,4.064420326394937,-21.660818446241514
0.9751262171392711,3.562793519553267,8.274850088748885,-4.183929030591897,5.251647216497554,-22.501975442193167
1.0107541523348038,3.6153099917182425,8.233010798442965,-4.408948785013829,6.4720517987520205,-23.47442639758029
1.0469072522519862,3.680030509705763,8.188921310592827,-4.643693048989632,7.69117368237402,-24.533070113584532
1.0837075573490438,3.756942246529503,8.14248438010293,-4.889023750125477,8.843561789480246,-25.59152644692361
1.1212769798143387,3.8453778644243055,8.093594142601676,-5.144939014594713,9.814798183061836,-26.497586109603166
1.1597307584585819,3.943525846254924,8.042144752455728,-5.4099148756907445,10.418188396159287,-27.001137905622997
1.1991660169211311,4.0477077302165165,7.988045603698821,-5.679926254746975,10.371857575266807,-26.722386604824674
1.2396430942232963,4.151426305969185,7.931246341151351,-5.9471501207952215,9.29463497957784,-25.145670635133342
1.2811573572829882,4.2443726557649635,7.8717748399433995,-6.198606827146555,6.759494458677041,-21.6924838441114
1.3236010838406378,4.311967600351734,7.809788771671934,-6.415531665587669,2.4550968120512846,-15.943680555222604
1.366720759844155,4.336518568472247,7.745633455016057,-6.574968471139895,-3.5417786884843485,-8.014413452124314
1.4100859455288774,4.301100781587404,7.679883770304658,-6.655112605661138,-10.535105658281042,1.1299600675403132
1.4530969533447515,4.195749725004593,7.613332644248047,-6.643813004985735,-17.314287988790326,9.824982582761338
1.4950544505947974,4.02260684511669,7.546894514198189,-6.545563179158122,-22.693106985529962,16.457177402442834
1.5352805190459642,3.7956757752613903,7.481438882406608,-6.380991405133694,-26.08189882976584,20.251012936121082
1.573237276798578,3.534856786963732,7.417628968355271,-6.178481275772483,-27.601336430082057,21.413349712907245
1.6085858446682153,3.2588434226629115,7.355844155597547,-5.96434777864341,-27.770604409316874,20.691009030310713
1.6411742788948445,2.9811373785697426,7.296200677811113,-5.757437688340303,-27.15252185868075,18.87737339637736
1.670985652680542,2.7096121599829353,7.238626300927709,-5.56866395437653,-26.17548760088557,16.56977435631726
1.6980817742803713,2.4478572839740798,7.182939661383944,-5.402966210813357,-25.1082590829351,14.139499802563362
1.722560347120112,2.1967746931447287,7.128909999275811,-5.261571212787723,-24.097525430316157,11.787329321463554
1.7445280940515593,1.9557994388415672,7.076294287147934,-5.143697919573088,-23.212549990656395,9.607258049011142
1.764086088439975,1.7236739389350033,7.024857307952203,-5.047625339082977,-22.478488770122937,7.633492708192157
1.781322827829325,1.498889051233774,6.974381054561373,-4.971290412001055,-21.897273248026657,5.869692192280749
1.7963117183416626,1.2799163187535074,6.924668150441363,-4.9125934900782475,-21.45954784824729,4.305594360297258
1.8091108815291976,1.0653208402710346,6.87554221554058,-4.869537546475275,-21.151086084699767,2.9259226625743953
1.819764089931908,0.8538099794240369,6.826846840075827,-4.840278319849531,-20.956047533933585,1.7149071036424197
1.8283021897261484,0.644249504084701,6.778444056877332,-4.823129248813107,-20.85850742789283,0.6584218364182577
1.8347446847669955,0.4356644298057727,6.730212764389201,-4.816545030448924,-20.843074935501416,-0.25513108679291374
1.8391013290650533,0.22723368045075854,6.682047314084712,-4.819096341316853,-20.89505045392303,-1.0345776394315063
1.841373665869561,0.018283175911528227,6.633856350671543,-4.829442117711168,-21.00036601445319,-1.6860427312778707
1.8415564976286762,-0.19172048423300367,6.585561929494432,-4.8463025450239465,-21.145439890028417,-2.2131696955670863
1.8396392927863463,-0.40317488313328786,6.537098904044193,-4.868434241979617,-21.317015620049975,-2.6174069790382672
1.8356075439550135,-0.6163450393337876,6.4884145616243964,-4.89460831177,-21.502023258796108,-2.898325525666785
1.8294440935616756,-0.8313652719217487,6.439468478506696,-4.9235915670266674,-21.68748346219025,-3.0539532769618765
1.821130440842458,-1.0482401065436513,6.390232562836429,-4.954131099796286,-21.86046573880634,-3.0811240883962214
1.8106480397770215,-1.2668447639317146,6.340691251838466,-4.984942340680249,-22.008106777143603,-2.9758424874180496
1.7979795921377044,-1.4869258317031506,6.290841828431664,-5.014700765554429,-22.117691016290006,-2.733665936093036
1.7831103338206729,-1.7081027418660506,6.2406948207761195,-5.0420374249153594,-22.17679237912848,-2.3501042104481806
1.7660293064020123,-1.9298706656573354,6.190274446526966,-5.065538467019842,-22.17347278622705,-1.8210321557411524
1.746730599745439,-2.151605393519606,6.139619061856767,-5.083748788577253,-22.096529572541257,-1.1431081477678
1.725214545810243,-2.3725706892450185,6.088781573970995,-5.095179870054931,-21.935780385052375,-0.31418672460241526
1.701488838917793,-2.5919284930955424,6.0378297752704455,-5.098321737300955,-21.6823708979245,0.666289335715379
1.6755695539868374,-2.8087522020747873,5.986846557897436,-5.091658843943801,-21.329088209169477,1.7969341630668578
1.6474820319660894,-3.022043084166482,5.935929969457998,-5.073689502313132,-20.870661556220778,3.0741181079007456
1.6172616011244245,-3.2307496997286895,5.885193074434866,-5.042948321234125,-20.304032372757565,4.491736543630508
1.5849541041271376,-3.433790023456265,5.834763591222525,-4.9980309557978195,-19.62857783829609,6.041060119916018
1.5506162038925748,-3.630075801839226,5.784783281664547,-4.93762035459866,-18.846275754670643,7.710673831725352
1.5143154458741825,-3.8185385593859325,5.73540707811856,-4.860513616281406,-17.96180327889975,9.4865073060142
1.4761300602803231,-3.99815659217493,5.686801941955746,-4.765648543221264,-16.98256692369439,11.351954446906294
1.4361484943585738,-4.167982261411874,5.639145456523534,-4.652128998752201,-15.91866535359459,13.288078048760765
1.394468671744455,-4.32716891494782,5.5926241665360115,-4.519248218264593,-14.782789014761335,15.273894868879003
