th1 (rad),w1 (rad/s),th2 (rad),w2 (rad/s),a1 (rad/s^2),a2 (rad/s^2)
0.22142434270440373,2.699937146042043,3.781042457979952,-1.0273116545701357,2.846933050542148,11.409266573874401
0.24842371416482417,2.7284064765474647,3.7707693414342507,-0.9132189888313917,2.4543390109416032,10.812080364586178
0.2757077789302988,2.7529498666568806,3.7616371515459366,-0.80509818518553,1.987463304651694,10.123668946283871
0.3032372775968676,2.7728244997033977,3.7535861696940813,-0.7038614957226913,1.452306032325736,9.350084314232932
0.33096552259390155,2.7873475600266553,3.7465475547368543,-0.610360652580362,0.8567058743877608,8.500428315389629
0.3588389981941681,2.795914618770533,3.7404439482110505,-0.5253563694264657,0.210078141343462,7.586505525171112
0.38679814438187343,2.7980154001839677,3.7351903845167858,-0.4494913141747546,-0.47693933878369726,6.622318673759613
0.4147782983837131,2.7932460067961307,3.7306954713750384,-0.38326812743715843,-1.1929030452745126,5.62344706275481
0.4427107584516744,2.7813169763433856,3.726862790100667,-0.32703365680961033,-1.926009520205722,4.6063579525286364
0.47052392821510824,2.762056881141328,3.7235924535325706,-0.280970077284324,-2.6645364161576266,3.5877036954356547
0.4981444970265215,2.735411516979752,3.7207827527597273,-0.24509304032996745,-3.397249259196563,2.583653791141658
0.525498612196319,2.701439024387786,3.7183318223564275,-0.21925650241855088,-4.1137511463427305,1.6093024708349053
0.5525130024401969,2.660301512924359,3.716139257332242,-0.20316347771020182,-4.804760678277083,0.6781808903602626
0.5791160175694404,2.6122539061415884,3.7141076225551397,-0.19638166880659919,-5.4623114377816915,-0.19810939649959589
0.6052385566308564,2.5576307917637715,3.7121438058670737,-0.19836276277159515,-6.079873250782289,-1.0101365870705281
0.6308148645484941,2.4968320592559485,3.7101601782393576,-0.20846412864230043,-6.652400750233445,-1.750756909255996
0.6557831851410536,2.430308051753614,3.7080755369529346,-0.2259716977348604,-7.176318267455515,-2.4151226577341545
0.6800862656585898,2.3585448690790587,3.705815819975586,-0.25012292431220196,-7.64945197395863,-3.0005962253181675
0.7036717143493804,2.2820503493394724,3.703314590732464,-0.28012888656538365,-8.07092082790004,-3.50658877744822
0.7264922178427751,2.201341141060472,3.70051330186681,-0.31519477433986587,-8.440997620701019,-3.934342874043923
0.7485056292533798,2.1169311648534617,3.6973613541234114,-0.3545382030803051,-8.760950602557408,-4.286677708725265
0.7696749409019145,2.0293216588278877,3.6938159720926085,-0.39740498016755776,-9.032875037240848,-4.567714112051646
0.7899681574901933,1.9389929084554793,3.689841922290933,-0.4430821212880742,-9.259522756239965,-4.78259436798977
0.8093580865747482,1.8463976808930798,3.685411101078052,-0.4909080649679719,-9.444136441851802,-4.937209457686398
0.8278220633836789,1.7519563164745617,3.680502020428372,-0.5402801595448359,-9.590294019174706,-5.037943750902371
0.8453416265484245,1.6560533762828147,3.6750992188329237,-0.5906595970538596,-9.70176721119801,-5.091444556200225
0.8619021603112527,1.5590357041708345,3.669192622862385,-0.6415740426158618,-9.782397039596278,-5.104421436802039
0.877492517352961,1.4612117337748718,3.6627768824362263,-0.6926182569838822,-9.835987869617155,-5.083477902874314
0.8921046346907097,1.3628518550787003,3.6558506998663876,-0.7434530360126254,-9.866220535584873,-5.034976086191379
0.9057331532414966,1.2641896497228515,3.648416169506261,-0.7938027968745391,-9.876584175977795,-4.964933348819055
0.9183750497387251,1.1654238079630737,3.640478141537516,-0.8434521303627297,-9.87032567730889,-4.878948504761349
0.9300292878183558,1.0667205511899849,3.6320436202338886,-0.8922416154103432,-9.850415085410068,-4.782154444638445
0.9406964933302556,0.9682164003358842,3.6231212040797853,-0.9400631598567276,-9.819524988869237,-4.6791934244346765
0.9503786573336145,0.8700211504471919,3.6137205724812183,-0.9868550941010744,-9.78002169750598,-4.574211065668742
0.9590788688380864,0.772220933472132,3.6038520215402077,-1.0325972047577618,-9.73396600458319,-4.470865158320723
0.9668010781728077,0.6748812734263001,3.59352604949263,-1.077305856340969,-9.683121404905368,-4.372345596251775
0.9735498909070707,0.5780500593772464,3.5827529909292206,-1.1210293123034867,-9.628967810140812,-4.281402145529305
0.9793303915008431,0.4817603812758383,3.5715426978061857,-1.1638433337587797,-9.572719027087535,-4.200377193025431
0.9841479953136015,0.38603319100496297,3.559904264468598,-1.205847105689034,-9.515342517342665,-4.131241099182493
0.9880083272236512,0.2908797658315363,3.5478457934117076,-1.2471595166808591,-9.45758021612666,-4.0756282488865185
0.9909171248819665,0.1963039636702697,3.535374198244899,-1.2879157991697243,-9.399969437533635,-4.034872332495331
0.9928801645186692,0.10230426929493334,3.522495040253202,-1.3282645224946776,-9.34286312216322,-4.010039779296756
0.9939032072116185,0.008875638073301148,3.509212395028255,-1.3683649202876451,-9.286448884471113,-4.001960599993955
0.9939919635923515,-0.08398885077140998,3.495528745825379,-1.4083845262875847,-9.230766488502962,-4.01125617128182
0.9931520750846374,-0.1762965156564396,3.481444900562503,-1.4484970880004029,-9.175723521976176,-4.038363716557471
0.991389109928073,-0.26805375087620137,3.466959929682499,-1.4888807251659777,-9.121109151880853,-4.083557407435231
0.9887085724193111,-0.3592648423950099,3.4520711224308394,-1.52971629924033,-9.066605932980485,-4.146966137657557
0.985115923995361,-0.44993090172481476,3.436773959438436,-1.5711859606169054,-9.011799707477849,-4.228588111420631
0.9806166149781128,-0.5400488987995933,3.421062099832267,-1.6134718417311118,-8.956187683485268,-4.32830244918181
0.9752161259901169,-0.629610775634446,3.404927381414956,-1.65675486622293,-8.89918481546279,-4.445878052282024
0.9689200182337724,-0.7186026237890739,3.3883598327527267,-1.7012136467457502,-8.840128634789805,-4.580979989044663
0.9617339919958816,-0.8070039101369719,3.371347696285269,-1.7470234466361967,-8.778282696013068,-4.733173674398114
0.9536639528945119,-0.8947867370971027,3.3538774618189073,-1.7943551833801779,-8.712838816503034,-4.901927116655388
0.9447160855235409,-0.981915125262133,3.3359339099851057,-1.8433744545467317,-8.642918296233296,-5.0866115022180045
0.9348969342709196,-1.068344308224466,3.3175001654396383,-1.8942405695689117,-8.567572311737468,-5.286500384288461
0.9242134911886749,-1.1540200313418405,3.2985577597439493,-1.9471055734117964,-8.485781685181594,-5.5007677372032315
0.9126732908752565,-1.2388778481936564,3.2790867040098313,-2.002113250783829,-8.396456236780928,-5.728485135251084
0.90028451239332,-1.3228424105614658,3.259065571501993,-2.0593981021363397,-8.29843393707172,-5.968618314917358
0.8870560882877053,-1.405826749932183,3.2384715904806294,-2.1190842852855134,-8.190480085167893,-6.220023383152864
0.8729978207883835,-1.487731550783862,3.217280747627774,-2.181284519117042,-8.07128675023017,-6.481442941994412
0.8581205052805448,-1.5684444182861637,3.1954679024366035,-2.246098948536986,-7.9394727259076365,-6.7515024119309315
0.8424360610976832,-1.6478391455452401,3.1730069129512337,-2.3136139726562956,-7.793584261261093,-7.0287068528992
0.8259576696422308,-1.725774988157851,3.149870773224671,-2.3839010411852875,-7.632096846246146,-7.311438602624314
0.8086999197606524,-1.8020959566203125,3.126031762812818,-2.4570154272115308,-7.4534183446263365,-7.597956076945199
0.7906789601944493,-1.876630140066576,3.1014616085407027,-2.5329949879809828,-7.255893781370988,-7.886394105347556
0.7719126587937836,-1.9491890778802858,3.076131658660893,-2.6118589290344585,-7.03781210404657,-8.174766206493242
0.7524207680149807,-2.0195671989207513,3.0500130693705487,-2.6936065910993907,-6.797415246945481,-8.460969242099553
0.7322250960257732,-2.087541351390206,3.0230770034595547,-2.7782162835203863,-6.532909830763348,-8.742790921674558
0.7113496825118711,-2.1528704496978395,2.995294840624351,-2.8656441927371317,-6.242481827018743,-9.017920663382615
0.6898209780148927,-2.215295267968027,2.9666383986969795,-2.9558233993709577,-5.924314501909812,-9.283964344988922
0.6676680253352124,-2.274538412987125,2.93708016470327,-3.0486630428208468,-5.576609924940781,-9.538463499784678
0.6449226412053412,-2.330304512236533,2.9065935342750615,-3.1440476778186937,-5.197614278600097,-9.77891952089532
0.6216195960829758,-2.382280655022534,2.8751530574968744,-3.241836873027647,-4.78564713096454,-10.002823427453425
0.5977967895327504,-2.4301371263321796,2.842734688766598,-3.3418651073021812,-4.339134726962023,-10.207691710524859
0.5734954182694286,-2.4735284736018,2.809316037693576,-3.4439420244074297,-3.856647209366427,-10.391108707003285
0.5487601335334106,-2.5120949456954644,2.774876617449502,-3.5478531114774627,-3.3369394907746655,-10.550775836743973
0.5236391840764559,-2.545464340603211,2.7393980863347274,-3.6533608698449025,-2.778995257158375,-10.684567872736906
0.49818454067042384,-2.5732542931747946,2.7028644776362785,-3.7602065485722718,-2.182073288563325,-10.790596187942116
0.4724519977386759,-2.595075026060428,2.6652624121505557,-3.868112510451693,-1.5457549332569425,-10.867278630043588
0.44650124747807163,-2.6105325753929973,2.6265812870460388,-3.9767852967521287,-0.8699911735869227,-10.913415316120881
0.42039592172414164,-2.6192324871288664,2.5868134340785174,-4.085919449913337,-0.15514728770887243,-10.928269219622583
0.394203596852853,-2.620783960005955,2.545954239579384,-4.195202142109563,0.5979573372898072,-10.911649958394152
0.36799575725279343,-2.614804386633057,2.504002218158288,-4.304318641693505,1.3880171170733595,-10.863998713334338
0.34184771338646286,-2.6009242154623236,2.460959031741353,-4.412958628826848,2.2132191563245946,-10.786471754644321
0.3158384712318396,-2.578792023899078,2.4168294454530845,-4.520823346373291,3.0712366253720043,-10.681019682438862
0.2900505509928488,-2.5480796576453577,2.3716212119893516,-4.627633543197679,3.959240247580902,-10.550459268284046
0.26456975441639524,-2.5084872551695487,2.325344876557375,-4.73313813588052,4.873931409076073,-10.39853478872689
0.23948488186469974,-2.459747941078788,2.2780134951985698,-4.837123483767789,5.811600037972198,-10.229966045603197
0.21488740245391186,-2.401631940699066,2.229642260360892,-4.93942314422382,6.768209758028656,-10.05048093544926
0.19087108304692119,-2.3339498431187793,2.180248028918654,-5.039927953578313,7.739511908929058,-9.866831505326507
0.1675315846157334,-2.2565547240294888,2.129848749382871,-5.138596268631578,8.721188887568035,-9.686793926785683
0.1449660373754385,-2.169342835153808,2.078462786696555,-5.235464207899435,9.70902598932202,-9.519154705806667
0.12327260902390041,-2.072252575260588,2.026108144617561,-5.330655754957502,10.699109642950432,-9.373687653560218
0.10255008327129453,-1.9652614788310836,1.9728015870679858,-5.424392631493104,11.68804879534534,-9.261128559876683
0.0828974684829837,-1.8483809908776303,1.9185576607530548,-5.517003917091871,12.673215381995176,-9.19315699664837
0.06441365857420739,-1.7216488370576786,1.8633876215821361,-5.608935487058354,13.652999468671547,-9.182397072398127
0.0471971702036306,-1.585118842370963,1.8072982667115525,-5.700759457782335,14.627074870111194,-9.242451094957548
0.03134598177992097,-1.4388480936698511,1.750290672133729,-5.793183968731911,15.596671845162192,-9.38798179965413
0.016957500843222457,-1.282881375218229,1.6923588324464098,-5.887063786728452,16.564854679436255,-9.634859844585934
0.004128687091040166,-1.1172328284238666,1.6334881945791253,-5.983412385174311,17.53680319070329,-10.000393301650588
-0.0070436411931985,-0.9418647965168337,1.5736540707273823,-6.0834163181908165,18.520097616463723,-10.503654170693853
-0.01646228915836684,-0.7566638203521965,1.512819907545474,-6.188452859897755,19.52500445014221,-11.16591202776145
-0.024028927361888802,-0.5614137758507745,1.4509353789464965,-6.3001119801753696,20.5647537789304,-12.011173693517284
-0.029643065120396547,-0.35576623806147045,1.3879342591447428,-6.4202237171105425,21.65578130524307,-13.066803956614569
-0.03320072750101125,-0.13920842500903974,1.3237320219736373,-6.550891756676688,22.81787057037497,-14.36415321009935
-0.03459281175110165,0.08897028069470997,1.2582231044068704,-6.694533288777682,24.074053870673385,-15.93901809845937
-0.03370310894415455,0.32971081940144387,1.1912777715190934,-6.853923469762275,25.44997712462951,-17.83156106371912
-0.03040600075014011,0.584210590647739,1.1227385368214706,-7.032239080399466,26.97213348178205,-20.084916439528676
-0.02456389484366272,0.8539319254655595,1.052416146017476,-7.233088244794753,28.663787651070585,-22.740926665654186
-0.016024575589007124,1.1405698019762653,0.9800852635695284,-7.460497511451295,30.53629977963074,-25.82993358131138
-0.00461887756924447,1.4459327997725726,0.9054802884550155,-7.718796847264409,32.57149600876405,-29.348699823610417
0.009840450428481256,1.7716477598602132,0.8282923199823714,-8.012283845500514,34.687162368008686,-33.21553060395931
0.027556928027083386,2.1185193835403,0.7481694815273663,-8.344439151540108,36.672492753085926,-37.18416223471694
0.04874212186248639,2.4852443110711593,0.6647250900119652,-8.716280773887277,38.07613117520894,-40.691529313429456
0.07359456497319798,2.866005622823249,0.5775622822730925,-9.123196067021572,38.04022987448053,-42.62802034625168
0.10225462120143047,3.2464079215680544,0.48633032160287676,-9.549476270484089,35.143185528754344,-41.11225562314622
0.134718700417111,3.5978397768555976,0.3908355588980359,-9.96059882671555,27.51871265549038,-33.63366363204491
0.17069709818566697,3.8730269034105014,0.2912295706308804,-10.296935463036,13.803776056368656,-18.32115562902745
0.20942736721977198,4.011064663974188,0.1882602160005204,-10.480147019326274,-4.904116190631228,3.4094715108768434
0.24953801385951385,3.9620235020678756,0.08345874580725765,-10.446052304217506,-23.978076462288673,25.42628647836749
0.2891582488801926,3.7222427374449887,-0.021001777234917418,-10.191789439433832,-37.97712836298941,40.59956871379665
0.3263806762546425,3.3424714538150946,-0.12291967162925574,-9.785793752295865,-44.86611751835662,46.467236625306604
0.35980539079279344,2.8938102786315283,-0.2207776091522144,-9.3211213860428,-46.271213960079905,45.42874963109975
0.38874349357910876,2.431098139030729,-0.3139888230126424,-8.8668338897318,-44.766825732609156,41.0072251471894
0.41305447496941605,1.9834298817046376,-0.4026571619099604,-8.456761638259907,-42.17647084358756,35.61071725580254
0.4328887737864624,1.561665173268762,-0.4872247782925595,-8.100654465701881,-39.427699979672624,30.41113174024749
0.44850542551915,1.1673881734720357,-0.5682313229495783,-7.796543148299406,-36.89455340223126,25.84454874881448
0.46017930725387035,0.798442639449723,-0.6461967544325724,-7.538097660811261,-34.68262702162719,22.005605204171996
0.4681637336483676,0.4516163692334511,-0.721577731040685,-7.3180416087695415,-32.784655536627554,18.855523375070376
0.4726798973407021,0.12376981386717556,-0.7947581471283804,-7.129486375018837,-31.152866698371792,16.31501974251781
0.47391759547937384,-0.1877588531165424,-0.8660530108785688,-6.966336177593659,-29.72978536508751,14.301364053792263
0.4720400069482084,-0.48505670676741747,-0.9357163726545054,-6.823322537055736,-28.460304247478913,12.741033940014088
0.46718943988053424,-0.7696597492422066,-1.0039495980250628,-6.695912197655595,-27.295786467922483,11.572424828605227
0.45949284238811217,-1.0426176139214314,-1.0709087200016187,-6.5801879493695425,-26.194972316162225,10.74485382665707
0.44906666624889785,-1.3045673370830535,-1.1367105994953142,-6.472739411102972,-25.123728314085707,10.216440484658131
0.43602099287806734,-1.5558046202239106,-1.201437993606344,-6.370575006256391,-24.054471256456026,9.951884133567487
0.42046294667582823,-1.796349332788471,-1.265143743668908,-6.271056164920716,-22.965577760423027,9.920506978561548
0.4024994533479435,-2.0260051103927013,-1.327854305318115,-6.171851095135101,-21.84086833405813,10.094670148235025
0.3822394022440165,-2.2444137937332824,-1.389572816269466,-6.070904393652751,-20.669165528273393,10.44856965964524
0.3597952643066836,-2.4511054490160165,-1.4502818602059935,-5.966418697056299,-19.443894713171176,10.957383825483802
0.33528420981652346,-2.645544396147728,-1.5099460471765564,-5.856844858801461,-18.1626911144109,11.59673220079375
0.30882876585504615,-2.827171307291837,-1.5685144957645711,-5.740877536793524,-16.826983495842924,12.342402293643515
0.2805570527821278,-2.9954411422502663,-1.6259232711325065,-5.617453513857089,-15.441536420837572,13.170298107306653
0.2506026413596251,-3.149856506458642,-1.6820978062710774,-5.485750532784023,-14.01394571166549,14.056562853962177
0.2191040762950387,-3.2899959635752967,-1.7369553115989176,-5.345184904244401,-12.554093311991744,14.977827362558303
0.1862041166592857,-3.415536896695214,-1.7904071606413616,-5.195406630618818,-11.073576775743499,15.911536687621053
0.15204874769233356,-3.526272664452649,-1.8423612269475498,-5.036291263742608,-9.585134208082346,16.836310836972444
0.11678602104780708,-3.6221240065334723,-1.8927241395849759,-4.8679281553728835,-8.102087428014373,17.732301445380013
0.08056478098247236,-3.7031448808136163,-1.9414034211387048,-4.690605140919083,-6.637824737224221,18.58151411787441
0.04353333217433619,-3.7695231281858583,-1.9883094725478956,-4.504789999740339,-5.205340753859002,19.36807511486491
0.0058381008924776115,-3.821576535724448,-2.033357372545299,-4.3111092485916895,-3.816845355565809,20.078429944808093
-0.03237766446476687,-3.8597449892801063,-2.076468465031216,-4.1103249491436085,-2.4834479618247176,20.701469262058826
-0.07097511435756793,-3.8845794688983535,-2.117571714522652,-3.90331025652302,-1.2149180902286572,21.228583540690178
-0.10982090904655145,-3.89672864980064,-2.1566048170878824,-3.691024421116118,-0.019518955334322477,21.653652027729887
-0.14878819554455786,-3.8969238393539833,-2.1935150612990437,-3.4744879008388194,1.0960919035787002,21.972973594697063
-0.18775743393809768,-3.8859629203181965,-2.228259940307432,-3.254758164891849,2.1269024423588476,22.185147729923038
-0.22661706314127966,-3.8646938958946078,-2.2608075219563504,-3.0329066875926185,3.06953428541239,22.29091362014775
-0.2652640021002257,-3.833998553040484,-2.2911365888322766,-2.809997551391141,3.9221869410996026,22.292954624641116
-0.30360398763063057,-3.794776683629488,-2.319236564346188,-2.5870680051447295,4.684545257052976,22.195674884808252
-0.34155175446692543,-3.747931231058958,-2.3451072443976355,-2.3651112562966468,5.3576568317333555,22.004954576769528
-0.379031066777515,-3.6943546627416244,-2.368758356960602,-2.1450617105289513,5.943785776856046,21.727890440719154
-0.41597461340493125,-3.634916804973064,-2.390208974065892,-1.9277828061217597,6.446249086709755,21.372528584856948
-0.4523237814546619,-3.5704543141059664,-2.4094868021271094,-1.7140575202731902,6.869241841969847,20.947596948503502
-0.48802832459572154,-3.501761895686268,-2.4266273773298415,-1.5045815507881553,7.217657435309046,20.462244989624974
-0.5230459435525843,-3.4295853213331773,-2.441673192837723,-1.2999591008919056,7.49690882976844,19.92579795719535
-0.557341796765916,-3.3546162330354927,-2.454672783846642,-1.100701121319952,7.712756458552215,19.34753242869663
-0.5908879590962709,-3.2774886684499704,-2.4656797950598413,-0.9072257970329857,7.871147710786917,18.736478648276524
-0.6236628457807706,-3.1987771913421015,-2.474752053030171,-0.7198610105502204,7.978072042742507,18.101253689550383
-0.6556506176941916,-3.1189964709146762,-2.4819506631356734,-0.5388484736547166,8.039434674837898,17.449927744192415
-0.6868405824033385,-3.0386021241662973,-2.4873391478722207,-0.3643491962127924,8.060950675371492,16.789924080333417
-0.7172266036450015,-2.9579926174125823,-2.4909826398343484,-0.1964499554094582,8.048060092752316,16.127951588738018
-0.7468065298191273,-2.8775120164850594,-2.492947139388443,-0.03517043952207802,8.00586376829359,15.469967469123354
