th1 (rad),w1 (rad/s),th2 (rad),w2 (rad/s),a1 (rad/s^2),a2 (rad/s^2)
4.01675227454928,2.1339700940418647,4.777814221667687,-0.09636013736199767,6.942892974029108,1.610923114787431
4.0380919754896984,2.203399023782156,4.776850620294067,-0.08025090621412335,7.225392564728987,1.1686844125486973
4.06012596572752,2.2756529494294457,4.776048111231926,-0.06856406208863638,7.523884458265976,0.7046839899706381
4.082882495221815,2.3508917940121057,4.77536247061104,-0.06151722218893001,7.838398277800211,0.21912848178198097
4.106391413161936,2.429275776790108,4.774747298389151,-0.0593259373711102,8.168799465528942,-0.28732599908671186
4.130684170929837,2.510963771445397,4.77415403901544,-0.06219919736197732,8.51469912396112,-0.8134119355483345
4.155793808644291,2.5961107626850084,4.7735320470418205,-0.07033331671746067,8.875330818914152,-1.3570375065386757
4.181754916271141,2.68486407087415,4.772828713874646,-0.08390369178284743,9.249384820635912,-1.915009226850235
4.208603556979883,2.777357919080509,4.771989676956817,-0.10305378405134978,9.634788722509633,-2.48267477000917
4.236377136170688,2.873705806305605,4.770959139116304,-0.12788053175144148,10.028422541979543,-3.053469933257886
4.265114194233744,2.9739900317254007,4.76968033379879,-0.15841523108402034,10.425757268560876,-3.6183556993410595
4.294854094550998,3.0782476044110094,4.768096181487949,-0.19459878807743092,10.82041006109857,-4.165138522412293
4.325636570595108,3.186451705021995,4.766150193607174,-0.23625017330155385,11.203619550306273,-4.677683191739967
4.357501087645328,3.298487900525058,4.763787691874159,-0.2830270052189535,11.563664748296558,-5.13505839875888
4.390485966650579,3.4141245480080236,4.760957421821969,-0.3343775892065423,11.885285605147827,-5.510707214889202
4.424627212130659,3.5329774040595017,4.757613645929903,-0.38948466135543436,12.149216715819913,-5.7718143338244
4.459956986171254,3.654469571217701,4.753718799316349,-0.44720280469367835,12.332019095652813,-5.879150283173818
4.496501681883431,3.777789762174229,4.749246771269412,-0.5059943075254165,12.40647976682553,-5.787796921510113
4.534279579505173,3.901854559842484,4.744186828194158,-0.5638722767405177,12.342917678661228,-5.4492578564534755
4.573298125103598,4.025283736629096,4.738548105426752,-0.6183648553050524,12.111731611789658,-4.815450488127454
4.613550962469889,4.1464010527469926,4.732364456873702,-0.6665193601863268,11.687368576480349,-3.84484265517569
4.655014972997359,4.263274738511796,4.725699263271839,-0.7049677867380837,11.053500132626432,-2.510420181132641
4.697647720382476,4.37380973983806,4.7186495854044574,-0.7300719885494101,10.208566824344373,-0.8082481620153804
4.7413858177808565,4.475895408081503,4.711348865518963,-0.7381544701695639,9.170163968971762,1.2356261633888679
4.786144771861672,4.567597047771221,4.703967320817267,-0.7257982085356752,7.976390393656337,3.5627141847177297
4.831820742339384,4.6473609517077845,4.69670933873191,-0.6901710666884979,6.682724208652755,6.086236128250388
4.878294351856462,4.714188193794312,4.689807628065025,-0.629308705405994,5.354372621246869,8.702049630318243
4.925436233794405,4.7677319200067805,4.683514541010965,-0.5422882091028116,4.055863553399393,11.303863163292142
4.973113552994472,4.808290555540775,4.678091658919937,-0.4292495774698902,2.8408957101661807,13.798369884060639
5.02119645854988,4.836699512642436,4.673799163145238,-0.29126587862928377,1.745333309522273,16.1160463512291
5.069563453676304,4.8541528457376595,4.670886504358945,-0.13010541511699275,0.7848019163693007,18.215371595843862
5.118104982133681,4.862000864901352,4.669585450207776,0.05204830084144588,-0.043478639301476975,20.080851021417995
5.166724990782694,4.861566078508337,4.67010593321619,0.25285681105562585,-0.7562149380967773,21.717051913362162
5.215340651567778,4.854003929127369,4.672634501326747,0.47002733018924747,-1.3787510499295532,23.141284833486065
5.263880690859051,4.840216418628073,4.67733477462864,0.7014401785241081,-1.9403286848160761,24.376934671709904
5.312282855045332,4.8208131317799126,4.684349176413881,0.9452095252412072,-2.4705484509846225,25.44845510860569
5.360490986363131,4.796107647270066,4.693801271666293,1.199694076327264,-2.9971128944373864,26.378217120660572
5.408452062835832,4.766136518325692,4.705798212429565,1.4634762475338698,-3.5446188907810012,27.184934437130124
5.456113428019089,4.730690329417882,4.720432974904904,1.735325591905171,-4.134071926003735,27.883229746474235
5.503420331313268,4.689349610157845,4.737786230823956,2.0141578893699137,-4.782825582062113,28.483928785434227
5.550313827414846,4.641521354337224,4.757927809717655,2.298997177224256,-5.504728028702564,28.994765178257765
5.596729040958218,4.586474074050198,4.780917781489897,2.5889448290068335,-6.31033802290319,29.421281478203525
5.64259378169872,4.523370693821166,4.806807229779966,2.8831576437888686,-7.207137042340712,29.76779339524582
5.687827488636931,4.451299323397759,4.835638806217855,3.180835577741327,-8.199708169961218,30.03833886922781
5.732340481870909,4.369302241698147,4.867447161995268,3.481218966433605,-9.289878965739215,30.237565305962036
5.7760335042878905,4.276403452040755,4.9022593516596045,3.783594619493225,-10.476838915901789,30.371523260609006
5.818797538808298,4.171635062881737,4.940095297854537,4.087309852099315,-11.75724545572562,30.448338707234406
5.860513889437116,4.0540626083244815,4.9809683963755305,4.391793239171659,-13.125327923832682,30.478732486472687
5.901054515520361,3.9228093290861548,5.024886328767247,4.6965805640363865,-14.572986590334455,30.476346132612093
5.940282608811223,3.7770794631828104,5.07185213440761,5.001344025362507,-16.08986320201562,30.457817301391536
5.978053403443051,3.616180831162654,5.121865574661236,5.305922198376423,-17.663327931816102,30.442522042642228
6.014215211754677,3.4395475518444933,5.174924796645,5.610347418802845,-19.278281002676934,30.45185840646641
6.048610687273122,3.246764741817724,5.231028270833028,5.914866002867509,-20.91659891560454,30.507875124362304
6.081078334691299,3.0375987526616783,5.290176930861703,6.219944754111132,-22.555955408033874,30.630933635730553
6.1114543222179165,2.8120391985813398,5.352376378402814,6.526254090468437,-24.167603544451183,30.835909400316414
6.13957471420373,2.570363163136828,5.417638919307499,6.834613184471601,-25.71250673043463,31.12616673415656
6.165278345835098,2.3132380958324816,5.485985051152214,7.145874851813167,-27.134958945034345,31.484177269687127
6.188410726793423,2.041888506382138,5.557443799670346,7.460716624510038,-28.35260522603148,31.857270324433618
6.208829611857245,1.7583624541218232,5.632050965915447,7.779289327754374,-29.241798991507867,32.13690284506907
6.226413236398463,1.4659444642067445,5.709843859192991,8.100658356205065,-29.618146188652652,32.13085272429739
6.24107268104053,1.169763002320218,5.790850442755041,8.42196688344804,-29.215279310744044,31.53175612402959
6.252770311063732,0.8776102092127774,5.875070111589522,8.737284444688335,-27.67272568006157,29.89568114874072
6.26154641315586,0.6008829524121617,5.962442956036405,9.036241256175742,-24.558118653463534,26.663812513425075
6.267555242679982,0.3553017658775264,6.052805368598162,9.302879381309992,-19.46508116941984,21.282669855012895
6.271108260338757,0.16065095418332798,6.145834162411262,9.515706079860122,-12.220761748908686,13.470030893180459
6.27271476988059,0.03844333669424112,6.240991223209863,9.650406388791927,-3.158750844563548,3.57058773476063
6.273099203247533,0.006855828248605637,6.3374952870977825,9.686112266139533,6.738172661842222,-7.2561855952915915
6.2731677615300185,0.07423755486702785,6.434356409759178,9.613550410186617,16.072618502233592,-17.34099769511947
6.273910137078689,0.23496373988936378,6.530491913861044,9.440140433235422,23.61074191767223,-25.25078495644996
6.276259774477582,0.4710711590660861,6.624893318193399,9.187632583670922,28.772172827778775,-30.40100604712019
6.280970486068243,0.7587928873438738,6.716769644030108,8.88362252319972,31.66744673034046,-33.067872421690495
6.288558414941682,1.0754673546472784,6.805605869262105,8.552943798982815,32.790731238987554,-33.966144822023765
6.299313088488155,1.4033746670371539,6.891135307251933,8.213282350762578,32.69804627659717,-33.83327591119625
6.3133468351585265,1.7303551298031254,6.973268130759559,7.874949591650615,31.83983632425592,-33.22901476611391
6.330650386456558,2.0487534930456848,7.052017626676065,7.542659443989476,30.526254213897353,-32.508183365990156
6.351137921387014,2.3540160351846584,7.12744422111596,7.217577610329574,28.95229624395612,-31.865511589113684
6.37467808173886,2.6435389976242196,7.199619997219256,6.8989224944384375,27.234813739473307,-31.390177194982755
6.401113471715103,2.9158871350189526,7.26860922216364,6.58502072248861,25.442954776422958,-31.10818190980623
6.430272343065292,3.170316682783182,7.334459429388526,6.273938903390548,23.618820349498,-31.010290268338075
6.461975509893124,3.406504886278162,7.3971988184224315,5.963836000707167,21.79016245416617,-31.06907846900541
6.496040558755905,3.624406510819824,7.456837178429503,5.653145216017113,19.97767019514781,-31.248973875004634
6.532284623864103,3.824183212771302,7.5133686305896745,5.340655477267067,18.19885804132038,-31.51210524154641
6.570526455991816,4.006171793184506,7.566775185362345,5.025534424851602,16.469911789475844,-31.82172972189263
6.610588173923661,4.170870911079264,7.617030529610861,4.707317127632676,14.80634863106417,-32.14425917253804
6.652296883034454,4.318934397389906,7.664103700887187,4.385874535907296,13.223020627265178,-32.45044744762406
6.695486227008353,4.4511646036625585,7.707962446246261,4.061370061431055,11.733787514181273,-32.71603445945167
6.739997873044979,4.568502478804371,7.748576146860571,3.7342097168365385,10.351058786383604,-32.92199772099149
6.785682897833023,4.672013066668207,7.785918244028936,3.4049897396266235,9.085324471904237,-33.054487699403225
6.832403028499705,4.762866311387249,7.8199681414252025,3.0744448626325913,7.944739487222283,-33.10448805349096
6.880031691613578,4.842313706259472,7.850712590051528,2.7433999820976815,6.9347869735308,-33.067226339449164
6.9284548286761725,4.91166157599478,7.878146589872505,2.4127277187031897,6.058015660724741,-32.94135324856226
6.97757144443612,4.972241732602027,7.902273867059536,2.0833141862175673,5.31382198734715,-32.72790186078497
7.02729386176214,5.0253799524754985,7.923107008921712,1.7560351676097175,4.698227835994679,-32.42902900204516
7.0775476612868955,5.072362230835445,7.94066736059781,1.4317448775892658,4.203588719775354,-32.046527488207744
7.12827128359525,5.114398118033199,7.954984809373703,1.1112796027071883,3.818155644215531,-31.5800825824827
7.1794152647755825,5.152579674475354,7.966097605400774,0.7954787768823612,3.525409416327789,-31.025234145306317
7.230941061520336,5.187833768638632,7.974052393169598,0.48522643542929805,3.3030958701317976,-30.371010011098182
7.282819399206723,5.22086472733995,7.97890465752389,0.18151633531831624,3.1219289661141283,-29.597239272452438
7.335028046480122,5.252084017001091,7.9807198208770735,-0.11445605740620812,2.944022837391098,-28.671676407068354
7.3875488866501335,5.281524245375002,7.979575260303012,-0.40117282147689165,2.7213062746870977,-27.547329977442725
7.440364129103884,5.308737308121874,7.975563532088243,-0.6766461212513188,2.394518064698261,-26.160868965963527
7.493451502185103,5.332682488768857,7.96879707087573,-0.9382548109109541,1.8939152290898356,-24.43372352312196
7.546778327072791,5.351621641059755,7.95941452276662,-1.1825920461421737,1.143481719886085,-22.278403390151784
7.600294543483388,5.363056458258616,7.947588602305198,-1.4053760800436916,0.07086617719113238,-19.613139954566417
7.653925108065974,5.363765120030528,7.933534841504762,-1.6015074795893558,-1.375292315606675,-16.38707942380542
7.707562759266279,5.350012196874461,7.917519766708868,-1.76537827382741,-3.201739222886119,-12.614263416810397
7.761062881235024,5.3179948046456,7.899865983970594,-1.891520907995514,-5.347257614365689,-8.406763403362827
7.81424282928148,5.264522228501943,7.880950774890639,-1.9755885420291421,-7.672279465194638,-3.9886738952511775
7.8668880515665,5.187799433849997,7.861194889470347,-2.015475280981654,-9.974802604458043,0.3281166447318896
7.9187660459049996,5.088051407805416,7.8410401366605305,-2.012194114534335,-12.035211405856334,4.209859760983978
7.969646559983054,4.967699293746853,7.820918195515187,-1.9700955169244951,-13.673848044498353,7.3850567314835445
8.019323552920522,4.8309608133018695,7.801217240345942,-1.8962449496096596,-14.793880951918323,9.706980962715772
8.067633161053541,4.683022003782686,7.782254790849845,-1.799175139982502,-15.390656804130732,11.167324315870323
8.114463381091367,4.529115435741379,7.76426303945002,-1.6875018968237987,-15.530152916278944,11.86463459226107
8.159754535448782,4.373813906578589,7.7473880204817815,-1.568855550901188,-15.314215280400074,11.953116206350636
8.203492674514568,4.220671753774589,7.7316994649727695,-1.4493243888376814,-14.849855211147194,11.596972549324201
8.245699392052314,4.072173201663117,7.717206221084393,-1.3333546633444395,-14.230502138101478,10.942013897823735
8.286421124068946,3.929868180282102,7.703872674450948,-1.223934524366202,-13.528687295400378,10.104014646839099
8.325719805871767,3.794581307328098,7.691633329207286,-1.122894377897811,-12.79609454668739,9.168048188959416
8.363665618945047,3.666620361861224,7.680404385428307,-1.031213896008217,-12.0670146719035,8.193055071062629
8.40033182256366,3.545950215142189,7.670092246468225,-0.9492833452975906,-11.362639678290675,7.217866432343682
8.435791324715082,3.432323818359282,7.660599413015249,-0.8771046809741538,-10.694949191007472,6.266796716174099
8.470114562898674,3.3253743264492073,7.651828366205508,-0.8144367138124129,-10.069771899506323,5.35413510068205
8.503368306163166,3.224676607454144,7.643683999067384,-0.7608953628055924,-9.489014539043257,4.487477453918086
8.535615072237707,3.1297864620637115,7.636075045439328,-0.7160205882664116,-8.95220396453066,3.670079806291073
8.566912936858344,3.0402644224184048,7.628914839556663,-0.6793197902035009,-8.457515181959323,2.9024667604900043
8.597315581082528,2.9556892705988114,7.622121641654628,-0.6502951225986008,-8.00243595748741,2.1835044586242747
8.626872473788517,2.875664911023937,7.615618690428642,-0.628460078012358,-7.584183763341843,1.5111022819261737
8.655629122898755,2.799823073390519,7.609334089648518,-0.6133490551930963,-7.199958299879225,0.8826631524303963
8.68362735363266,2.7278234903917267,7.603200599096588,-0.6045224236687924,-6.847087110602491,0.29536645651223714
8.710905588536578,2.6593526192857015,7.5971553748598994,-0.60156875910367,-6.523103020729481,-0.2536589962056982
8.737499114729435,2.594121589078407,7.591139687268862,-0.604105349065727,-6.225779014544652,-0.7672333942644215
8.763440330620218,2.53186379893296,7.585098633778205,-0.6117776830083712,-5.953137260006524,-1.2480700940108174
8.788758968609548,2.472332426332895,7.578980856948122,-0.6242583839484794,-5.703443047617577,-1.6987486583622524
8.813482292872877,2.415297995856719,7.572738273108637,-0.6412458705321019,-5.4751904952319554,-2.1217057334331995
8.837635272831443,2.3605460909043994,7.566325814403316,-0.6624629278664339,-5.26708431336084,-2.5192366086663367
8.861240733740487,2.307875247770791,7.559701185124652,-0.6876552939530973,-5.078020267710772,-2.893502861863584
8.884319486218196,2.2570950450936835,7.552824632185121,-0.7165903225717332,-4.907065908338292,-3.246543167243486
8.906890436669133,2.2080243860103006,7.545658728959404,-0.749055754244168,-4.753442452780123,-3.5802854391805288
8.928970680529236,2.1604899614824995,7.538168171416963,-0.7848586086359733,-4.616508278636269,-3.8965591942448436
8.950575580144061,2.1143248786961366,7.530319585330603,-0.8238242005784218,-4.495744210692098,-4.197107470487355
8.971718828931023,2.0693674365892156,7.522081343324819,-0.8657952752832954,-4.390740620788742,-4.483597932056895
8.992412503296915,2.0254600303813284,7.513423390571987,-0.9106312546038643,-4.30118625741536,-4.757632966125733
9.012667103600728,1.9824481678071748,7.504317078025948,-0.9582075842651216,-4.226858661648982,-5.020758685117919
9.0324915852788,1.940179581190685,7.494735002183297,-1.0084151711163007,-4.1676159903830055,-5.274472804808585
9.051893381090707,1.898503421286855,7.484650850472134,-1.0611598991643867,-4.123390046060747,-5.520231393819691
9.070878415303575,1.8572695208262475,7.47403925148049,-1.1163622131025837,-4.094180297207484,-5.75945449247762
9.089451110511838,1.8163277178541726,7.4628756293494645,-1.1739567580273598,-4.080048661025669,-5.993530585174159
9.10761438769038,1.7755272312439159,7.451136061769191,-1.2338920638791013,-4.081114804672001,-6.223819883933516
9.125369660002818,1.734716083197196,7.4387971411304,-1.2961302627184366,-4.097551702890443,-6.451656343689606
9.14271682083479,1.6937405661682916,7.4258358385032155,-1.3606468261553326,-4.129581164211828,-6.678348282415681
9.159654226496473,1.6524447545261733,7.412229370241662,-1.4274303089794893,-4.177469003939719,-6.905177421414364
9.176178674041735,1.6106700644867762,7.397955067151868,-1.496482083193633,-4.24151949768168,-7.133396091800532
9.192285374686602,1.5682548695099594,7.382990246319931,-1.5678160441116382,-4.322068692296953,-7.364222271047843
9.207967923381702,1.52503418258699,7.367312085878814,-1.6414582668221167,-4.419476079833362,-7.598832016673391
9.223218265207572,1.4808394217886565,7.350897503210593,-1.7174465869888507,-4.534114052379304,-7.83834875084314
9.23802665942546,1.4354982812648633,7.333723037340705,-1.7958300744972822,-4.666354450023684,-8.083828718186787
9.252381642238108,1.3888347367646265,7.315764736595732,-1.87666836167915,-4.81655138906031,-8.336241788245813
9.266269989605753,1.3406692228740233,7.29699805297894,-1.960030779561608,-4.985019412928162,-8.59644660369072
9.279676681834493,1.2908190287447416,7.277397745183324,-2.0459952455985153,-5.1720058455864715,-8.865158887653774
9.29258487212194,1.2390989702888768,7.256937792727339,-2.134646834475053,-5.377656050314394,-9.14291152337663
9.304975861824829,1.1853224097857329,7.235591324382588,-2.2260759497088194,-5.601970114875827,-9.430004817019379
9.316829085922686,1.1293027086369747,7.213330564885499,-2.320375997879013,-5.844749311695093,-9.726445167556701
9.328122113009055,1.0708552155200237,7.1901268049067095,-2.4176404495545802,-6.1055305436987215,-10.031870224672256
9.338830665164256,1.0097999100830366,7.165950400411163,-2.517959151801303,-6.383506920628298,-10.345458560121758
9.348928664265086,0.9459648408767536,7.1407708088931505,-2.6214137374025204,-6.677432672809804,-10.665821974447946
9.358388312673855,0.8791905141486556,7.114556671519125,-2.728071957147,-6.985510879063384,-10.990878900368198
9.36718021781534,0.8093354053580217,7.087275951947655,-2.8379807461506816,-7.305263071524134,-11.317708071194643
9.37527357186892,0.7362827746427804,7.058896144486148,-2.951157826862628,-7.633380825670038,-11.6423828605972
9.382636399615349,0.65994896638608,7.029384566217522,-3.0675816554686,-7.965561127573683,-11.959788672380348
9.38923588927921,0.5802933551103432,6.998708749662836,-3.1871795421924034,-8.296329841096496,-12.263428702448198
9.395038822830314,0.49733005669937824,6.966836954240913,-3.3098138292168855,-8.618861195336587,-12.54522755734359
9.400012123397307,0.4111414447460124,6.933738815948744,-3.4352661047903212,-8.924806067478091,-12.795347805325965
9.404123537844766,0.32189338407123147,6.899386154900841,-3.563219582843581,-9.20414803609208,-13.002041645382336
9.407342471685478,0.22985190371031067,6.8637539590724055,-3.6932399992974045,-9.445113594392332,-13.15156833826372
9.40964099072258,0.13540076776638735,6.8268215590794314,-3.824755682680042,-9.63417102902451,-13.228217235481349
9.410994998400245,0.03905905747614226,6.788574002252631,-3.9570378550348555,-9.75616018903889,-13.214484868711867
9.411385588975007,-0.058502544414246654,6.749003623702282,-4.089182703721974,-9.79460080312973,-13.091460409022845
