th1 (rad),w1 (rad/s),th2 (rad),w2 (rad/s),a1 (rad/s^2),a2 (rad/s^2)
2.9655971835678345,0.03140076182338968,5.084618660685384,-1.2020225448988742,1.4803913207091197,9.899582597080485
2.9659111911860685,0.04620467503048088,5.072598435236395,-1.1030267189280694,1.3237155562532326,9.845128759556152
2.966373237936373,0.05944183059301321,5.061568168047114,-1.004575431332508,1.1810161447017704,9.796875139577736
2.9669676562423035,0.07125199204003091,5.051522413733789,-0.9066066799367306,1.0522216021202242,9.754521352550569
2.9676801761627036,0.08177420806123314,5.042456346934421,-0.8090614664112249,0.9372566652286626,9.717760123257412
2.9684979182433158,0.09114677471351977,5.034365732270309,-0.7118838651786508,0.8360467094400652,9.686286066174237
2.969409385990451,0.09950724180792042,5.027246893618522,-0.6150210045169084,0.7485211064167124,9.659803220781196
2.97040445840853,0.10699245287208754,5.0210966835733535,-0.5184229723090965,0.6746157135099278,9.638031479790365
2.971474382937251,0.11373861000718682,5.015912453850262,-0.42204265751119285,0.6142746627583758,9.620712026139266
2.972611769037323,0.11988135663477058,5.01169202727515,-0.3258355372498002,0.5674515938293591,9.607611874385533
2.9738105826036705,0.12555587257306416,5.008433671902652,-0.22975941850594483,0.5341104534908248,9.598527594012882
2.975066141329401,0.1308969771079724,5.006136077717592,-0.133774142565816,0.5142259638673139,9.593288276172645
2.976375111100481,0.13603923674664556,5.004798336291934,-0.03784125980408953,0.5077838427488822,9.591757791460838
2.9777355034679474,0.14111707517413438,5.004419923693893,0.058076318110518846,0.5147808414299925,9.593836374297657
2.9791466742196886,0.1462648835884343,5.0050006868749986,0.15401468185349543,0.5352246487745616,9.599461559101911
2.980609323055573,0.15161713007617994,5.006540833693533,0.25000929744451456,0.5691336942456926,9.608608484462335
2.9821254943563344,0.15730846701863688,5.0090409266679785,0.34609538228913794,0.6165368673195553,9.621289573603123
2.983698579026521,0.16347383569183244,5.01250188049087,0.44230827802516914,0.6774731558476084,9.637553592313147
2.9853333173834393,0.1702485672503085,5.016924963271122,0.5386838139483006,0.7519911913789401,9.657484078850835
2.9870358030559423,0.1777684791640979,5.022311801410605,0.6352586547368089,0.8401486750604107,9.68119713385531
2.988813487847583,0.18616996591470203,5.028664387957972,0.732070626075362,0.9420116433719596,9.708838551719644
2.99067518750673,0.19559008234842162,5.035985094218726,0.8291590115925584,1.0576535185253775,9.740580267980166
2.9926310883302145,0.2061666175336754,5.044276684334652,0.9265648142723601,1.1871538737836942,9.776616089862761
2.994692754505551,0.21803815627151235,5.053542332477376,1.0243309751709877,1.330596829207313,9.817156669084511
2.9968731360682663,0.23134412456358547,5.063785642229085,1.1225025418618328,1.4880689784135068,9.862423667303544
2.9991865773139024,0.24622481434772053,5.075010667647703,1.2211267785348683,1.6596567319239954,9.912643055315371
3.0016488254573797,0.2628213816669605,5.0872219354330515,1.320253209088022,1.845442947736511,9.968037477420804
3.0042770392740494,0.2812758111443256,5.100424467523932,1.41993358386223,2.045502705174146,10.02881760271779
3.007089797385493,0.30173083819606705,5.114623803362554,1.5202217598894079,2.259898064283386,10.095172375987186
3.0101071057674536,0.3243298188389009,5.129826020961448,1.6211734836492797,2.4886716407169795,10.167258073196262
3.0133504039558425,0.34921653524607066,5.146037755797941,1.7228460643812422,2.7318388160651756,10.245186061592245
3.016842569308303,0.3765349234067224,5.1632662164417535,1.8252979249971646,2.989378397236711,10.329009163430309
3.02060791854237,0.40642870737908954,5.181519195691725,1.9285880166314677,3.261221537397659,10.418706527542316
3.0246722056161612,0.4390409227530661,5.20080507585804,2.032775081906891,3.5472387373026835,10.514166926669153
3.029062614843692,0.47451331012609294,5.221132826677109,2.1379167511735826,3.8472247623223264,10.615170423769504
3.033807747944953,0.5129855577493162,5.2425119941888445,2.2440684554112775,4.1608813404450915,10.72136839098922
3.038937603522446,0.5545943711537671,5.264952678742957,2.3512821393211696,4.487797554056789,10.832261924817168
3.0444835472339835,0.599472346694335,5.2884655001361685,2.4596047585693412,4.827427908083634,10.947178784870284
3.050478270700927,0.6477466257751714,5.313061547721862,2.569076546418044,5.179068154413467,11.065249096791062
3.056955736958679,0.6995373073193061,5.338752313186042,2.679729037385955,5.541829083018241,11.185380206991432
3.063951110031872,0.7549555981494885,5.365549603559901,2.7915828394558693,5.914608659481444,11.30623126305665
3.071500666013367,0.814101684744303,5.39346543195446,2.904645152086436,6.296063101598068,11.426188321929185
3.07964168286081,0.8770623157602837,5.422511883475324,3.0189070353057277,6.684577747659196,11.543341059641564
3.088412306018413,0.9439080932368756,5.452700953828382,3.1343404459021436,7.078238876352725,11.655462468782208
3.097851386950782,1.0146904820004028,5.484044358287403,3.2508950705899657,7.474807988726747,11.759993275026655
3.107998291770786,1.0894385618876703,5.516553308993303,3.3684950033402323,7.8717004455864235,11.854033166395805
3.118892677389663,1.1681555663435346,5.550238259026705,3.4870353350041903,8.265970749354986,11.934341283137915
3.1305742330530983,1.2508152738370844,5.5851086123767475,3.6063787478355693,8.654307136972525,11.997348725233662
3.143082385791469,1.3373583452068096,5.621172399855103,3.726352235087906,9.03303846592125,12.039186048307558
3.156455969243537,1.4276887298660221,5.658435922205983,3.8467440955709815,9.398156571135887,12.055728773821986
3.1707328565421973,1.521670295577381,5.6969033631616925,3.9673013833092012,9.74535727567925,12.042663761482348
3.185949559497971,1.6191238683341735,5.736576376994784,4.0877280209240245,10.070102972914926,11.99557880090483
3.2021407981813126,1.7198248980633228,5.777453657204024,4.207683808933073,10.367709081434635,11.910076899930074
3.2193390471619456,1.8235019888776691,5.819530495293355,4.326784577932374,10.633455635988218,11.781915420850337
3.2375740670507223,1.9298365452375512,5.862798341072679,4.444603732140878,10.862723775426963,11.60716842219792
3.2568724325030978,2.038463782991821,5.907244378394088,4.560675416362857,11.051154927016858,11.38240833906235
3.277257070333016,2.1489753322619896,5.952851132557717,4.67449949975348,11.19482813824395,11.104900593014808
3.2987468236556357,2.260923613644429,5.999596127555251,4.785548505683629,11.290448429779804,10.772802068521592
3.32135605979208,2.3738280979422273,6.047451612612088,4.893276526368845,11.335536484932499,10.385351922979202
3.345094340771502,2.487183462791552,6.0963843778757765,4.997130045598636,11.328607780926749,9.943041282291073
3.3699661753994175,2.6004695406008196,6.146355678331763,5.096560458421547,11.269327784359623,9.44774741457668
3.3959708708054257,2.713162818444416,6.197321282915978,5.191037932567314,11.158629450999717,8.902818338766082
3.42310249898987,2.824749112954413,6.249231662241652,5.280066115954974,10.998780285973487,8.313095766129264
3.451349990119414,2.934736915814148,6.3020323234012015,5.363197073616266,10.79338877772557,7.684867850837369
3.4806973592775554,3.042670803591404,6.355664294137364,5.44004575212464,10.547344043153949,7.025748247163035
3.5111240673134696,3.1481442440229435,6.41006475165861,5.510303234596271,10.26668768784668,6.344483973562052
3.542605509753699,3.2508111209014103,6.465167784004573,5.573748074331891,9.958422639159204,5.650700877697452
3.575113620962713,3.3503953472930026,6.520905264747892,5.630255083108866,9.630269337906876,4.954601264164407
3.608617574435643,3.4466980406720715,6.577207815578981,5.67980109575051,9.290384424168211,4.266632686363765
3.6430845548423636,3.5396018849137536,6.634005826536486,5.722467422614148,8.947060271044927,3.5971493830880963
3.678480573691501,3.629072487624203,6.691230500762627,5.758438916445029,8.608424979655851,2.956088022142627
3.714771298567743,3.7151567374207617,6.748814889927077,5.787999796666456,8.282161628008197,2.352677322330906
3.7519228659419506,3.797978353700844,6.806694887893742,5.8115265698897645,7.975262866067837,1.7951971348446512
3.789902649478959,3.877730982361522,6.864810153592639,5.829478541238211,7.693832838510594,1.290797312036929
3.8286799593025744,3.954669310746628,6.923104939005022,5.84238651435858,7.442943529141973,0.845380941201292
3.8682266524100406,4.029098746038048,6.981528804148607,5.850840323770593,7.226547628931319,0.46355102134587517
3.908517639870421,4.101364222327361,7.040037207386313,5.855475833984052,7.047445526102084,0.14861501911804265
3.9495312820936945,4.171838677588382,7.098591965726154,5.856961984175232,6.907300432332022,-0.0973616542892446
3.991249668869578,4.240911681911702,7.1571615855679065,5.85598836763234,6.806693224067508,-0.27346419924726245
4.033658785688695,4.308978614152377,7.2157214692442295,5.853253725639867,6.745207328310661,-0.37981062921275305
4.076748571830219,4.376430687435484,7.2742540065006285,5.849455619347739,6.721533798592566,-0.4174187662493795
4.120512878704574,4.443646025421409,7.332748562694106,5.845281431685246,6.733587389597698,-0.3880678929950931
4.164949338958788,4.510981899317386,7.391201377010958,5.841400752755295,6.778625684941546,-0.29416313507630615
4.210059157951962,4.578768156166801,7.449615384538511,5.838459121404532,6.853364902574176,-0.13860864852565574
4.25584683951363,4.647301805192543,7.507999975752556,5.837073034919276,6.95408767292158,0.07530629049837718
4.302319857565555,4.716842681921759,7.566370706101749,5.8378260978242595,7.07673968574307,0.3440059876033906
4.349488284384773,4.787610078779189,7.6247489670799915,5.841266157700294,7.217013518809116,0.6637110255710681
4.397364385172565,4.85978021396728,7.683161628656994,5.847903267956005,7.370419131987417,1.0305053383462075
4.4459621873122375,4.933484405287154,7.741640661336554,5.8582083213394665,7.53234141199034,1.4403889061825683
4.495297031365109,5.008807819407058,7.800222744549949,5.872612210401292,7.698085792519085,1.8893178715255132
4.545385109559179,5.085788677332249,7.858948866653962,5.891505389116547,7.862913376144594,2.373234170138455
4.596242996332502,5.164417811093695,7.917863920545127,5.915237730817932,8.022067180855736,2.888086846991492
4.647887174443439,5.244638482902252,7.977016297853306,5.9441185992878465,8.170791160615163,3.4298471211353037
4.700333559272462,5.326346394508403,8.036457483846185,5.9784170704992,8.304343538159662,3.994519011849757
4.753597023217546,5.409389829889999,8.096241654551177,6.018362260617697,8.41800576812969,4.578146966436635
4.807690921516446,5.493569887571296,8.156425277157354,6.064143730282063,8.507088143287687,5.176821458391984
4.8626266203921595,5.578640769004173,8.217066714460174,6.115911944865982,8.566932686168352,5.786682969041985
4.918413028082202,5.664310095865857,8.278225833908834,6.173778774556403,8.592913550906141,6.403924139742583
4.97505612904086,5.750239231374918,8.339963621654398,6.237818015953828,8.58043471307117,7.024789200102476
5.032558521354609,5.836043578505629,8.402341801813936,6.308065907954853,8.52492426939486,7.645569059334619
5.090918957139666,5.921292821199578,8.465422460893485,6.384521598548199,8.421824229623939,8.262589719373516
5.150131885351661,6.005511063495817,8.529267676878968,6.467147495741934,8.266574292598643,8.872190967605567
5.21018699598662,6.088176806421803,8.593939151836388,6.55586940541799,8.054587801964978,9.470691686570179
5.271068764050837,6.168722684441453,8.659497845890568,6.650576322283692,7.781217931453919,10.054337649145776
5.332755990895252,6.246534863755992,8.726003609113405,6.75111969877515,7.441712230067218,10.619227444816856
5.395221339532812,6.320951986056664,8.793514806101157,6.857311973223318,7.031154058454812,11.161212327426602
5.458430859393379,6.391263526641212,8.862087925833391,6.9689240964975845,6.5443902864395795,11.675766441473176
5.522343494659791,6.456707429505608,8.931777166798367,7.085681760912316,5.975946038849781,12.15782526327859
5.586910568954846,6.516466889894105,9.00263398440749,7.207260013545103,5.319929434772862,12.601592414896846
5.652075237853787,6.569666184241834,9.074706584542941,7.333275937694071,4.569932338924906,13.000318537853323
5.7177718996962055,6.615365507631083,9.148039343919882,7.4632791230726045,3.71893730016959,13.346060937683227
5.783925554772516,6.6525548806327786,9.222672135150608,7.596739732449437,2.759246211049482,13.629439502761329
5.850451103578844,6.680147342743274,9.298639532475102,7.73303412747705,1.682452786940125,13.839413155054856
5.917252577006277,6.696971870612675,9.375969873749872,7.871428259027598,0.4794885118101229,13.9631117996822
5.984222295712404,6.701766755730776,9.454684156340148,8.01105937702442,-0.8592203773497963,13.985771012358322
6.051239963269712,6.693174551957278,9.534794750110393,8.150917087148004,-2.3434401924462085,13.890829497322454
6.118171708789284,6.669740150032816,9.616303920981872,8.28982538212123,-3.9826124486668784,13.66026064359496
6.184869110289613,6.629914025546148,9.699202174803085,8.42642798855718,-5.785084553858581,13.275215974669468
6.251168250545074,6.572063180007562,9.783466454688657,8.559180148303874,-7.757052755071013,12.717055091006388
6.31688888234515,6.494492652456851,9.869058256171696,8.686350699213937,-9.901207705875212,11.968817695568049
6.381833808869719,6.395480575398099,9.955921763163836,8.806038876169618,-12.21511802104786,11.017151927401798
6.4457886146237,6.273329395187621,10.043982151925531,8.916210395443636,-14.689452948732086,9.854644587451038
6.508521908575576,6.1264348657003,10.133144255879968,9.014756841318146,-17.30622853850634,8.482402882456679
6.569786257232579,5.953372580315237,10.223291824293149,9.099580870142713,-20.037350858185647,6.91262292941356
6.629319983035732,5.75299907173338,10.314287632994576,9.16870709943685,-22.8438030808141,5.17076872369486
6.686849973753065,5.5245610409252395,10.405974703988944,9.220414786673798,-25.675849846794808,3.2969105546441284
6.742095584162318,5.267802542457291,10.498178851855682,9.253383892220238,-28.474579329792352,1.3457749543775437
6.7947736095868905,4.983056749159368,10.590712690777885,9.266841641764014,-31.174948867898646,-0.6148260021255308
6.844604177078484,4.671307260480381,10.683381107195524,9.260693381742758,-33.710248616733125,-2.5072797248609096
6.891317249683287,4.33420477431305,10.775988041012951,9.23562058449415,-36.01759244977446,-4.2489356496543556
6.934659297426418,3.9740288498153054,10.868344246857893,9.193131227997606,-38.04376512807052,-5.757760906626611
6.974399585924571,3.5935911985346003,10.96027555913787,9.13555361893134,-39.75059253760538,-6.958041283832193
7.010335497909917,3.1960852731585465,11.051631095327183,9.065973206093018,-41.119028374324095,-7.785191115773665
7.042296350641503,2.7848949894153057,11.142290827388113,8.988121294935281,-42.15138026216312,-8.188862177718333
7.070145300535656,2.3633811867936743,11.232172040337465,8.906232673158097,-42.871475534390505,-8.133850211460613
7.093779112403593,1.9346664314497692,11.321234367069046,8.824894171043491,-43.322985487001944,-7.598692545430684
7.11312577671809,1.5014365765797497,11.40948330877948,8.748907245589184,-43.56647201758515,-6.572211390353061
7.128140142483887,1.0657718564038983,11.496972381235372,8.683185131685653,-43.67591291312438,-5.04848768179744
7.138797861047926,0.6290127272726544,11.583804232552229,8.632700254867679,-43.73548132623122,-3.020807862469262
7.145087988320652,0.1916579140103422,11.670131235100905,8.602492176242986,-43.83723359181361,-0.4750300504892993
7.147004567460756,-0.24671442190779386,11.756156156863335,8.597741875738093,-44.080152998432716,2.6173664508136056
7.144537423241678,-0.687515951892121,11.842133575620716,8.623915540246228,-44.57074320980159,6.3064520771034
7.137662263722756,-1.133223383990137,11.928372731023178,8.686980061017262,-45.42503529914563,10.671144410455145
7.126330029882855,-1.5874737369815932,12.01524253163335,8.793691505121814,-46.77129611667789,15.826090212017343
7.110455292513039,-2.055186698148372,12.103179446684567,8.951952407241986,-48.751420884981385,21.926032667400907
7.0899034255315545,-2.542700906998186,12.192698970756988,9.171212733915995,-51.51574328509662,29.16125380006208
7.064476416461573,-3.057858339849152,12.284411098096149,9.462825271916616,-55.197814258585424,37.72651311848689
7.033897833063081,-3.609836482435006,12.379039350815315,9.840090403101485,-59.83552949869531,47.7180342302787
6.997799468238731,-4.208191777421959,12.47744025484633,10.317270745404272,-65.15811916007702,58.84773027262244
6.955717550464511,-4.859772969022729,12.580612962300373,10.905748048130496,-70.06657043687842,69.73415375094058
6.907119820774284,-5.560438673391514,12.689670442781678,11.603089585639902,-71.54969468426559,76.40402766065094
6.851515434040369,-6.275935620234169,12.805701338638077,12.367129862246411,-63.21158817584081,70.22410149683111
6.788756077838027,-6.908051501992578,12.92937263726054,13.069370877214723,-36.29641000897249,39.228874607573005
6.719675562818101,-7.2710156020823025,13.060066346032688,13.461659623290453,9.697275926469866,-17.348142744138507
6.646965406797278,-7.174042842817604,13.194682942265592,13.288178195849069,54.04678674433306,-71.38343048539127
6.575224978369103,-6.633574975374273,13.327564724224082,12.574343890995156,74.40994441693181,-93.02569614579208
6.5088892286153595,-5.889475531204955,13.453308163134034,11.644086929537234,73.83687351706092,-87.17135304229896
6.44999447330331,-5.1511067960343455,13.569749032429407,10.772373399114246,65.51912923591348,-71.86037415076082
6.398483405342966,-4.495915503675211,13.677472766420548,10.053769657606637,56.66469860174953,-56.56140563956509
6.353524250306214,-3.929268517657716,13.778010462996615,9.488155601210986,49.34670630031115,-43.760168802229664
6.314231565129637,-3.4358014546546043,13.872892019008725,9.05055391318869,43.752217097534405,-33.48741239488277
6.2798735505830905,-2.99827928367926,13.963397558140612,8.715679789239863,39.60344900214239,-25.229872105733143
6.249890757746298,-2.602244793657836,14.050554356033011,8.463381068182532,36.582029843027804,-18.474877348945444
6.22386830980972,-2.236424495227558,14.135188166714837,8.278632294693077,34.42517408177174,-12.820558881956417
6.201504064857444,-1.8921727544098406,14.217974489661767,8.150426705873512,32.9318336474513,-7.9736399337177
6.182582337313345,-1.5628544179353276,14.299478756720502,8.070690306536335,31.948882206468788,-3.7263772626265674
6.166953793133992,-1.2433655958706398,14.380185659785866,8.033426533910069,31.355859228601265,0.06455377320636697
6.154520137175285,-0.9298070035846271,14.460519925124967,8.034072071642132,31.052209537276774,3.4932113086295122
6.145222067139438,-0.6192849082118593,14.540860645841388,8.069004184728428,30.947173527721038,6.614159403121911
6.13902921805732,-0.30981317293464894,14.621550687688671,8.135145778759647,30.951772467710587,9.448267749102174
6.1359310863279735,-0.0002954482575430739,14.702902145476267,8.22962845625067,30.972468585389095,11.985918872326932
6.135928131845398,0.3094292375963479,14.785198430038774,8.349487644973939,30.90644410958084,14.188921287804266
6.139022424221362,0.6184936786921562,14.868693306488513,8.491376857851982,30.638872499183098,15.992472064125655
6.145207361008284,0.9248824036839872,14.953607075067033,8.65130157849324,30.042980624156936,17.308665856447767
6.154456185045124,1.2253122099255567,15.040120090851966,8.824388237057716,28.98402329268709,18.033182296369898
6.166709307144379,1.5151524428524277,15.128363973222543,9.004720060021416,27.32832716003348,18.056668386082734
6.181860831572903,1.7884357144527625,15.218411173822757,9.185286743882244,24.958044502591903,17.281654314403195
6.199745188717431,2.0380161594786816,15.31026404126158,9.358103287026276,21.790940300727414,15.644321839766363
6.220125350312218,2.255925562485956,15.403845074131842,9.51454650542394,17.802413020628688,13.138096114459962
