th1 (rad),w1 (rad/s),th2 (rad),w2 (rad/s),a1 (rad/s^2),a2 (rad/s^2)
3.9470206041787166,-2.05615392979157,2.1870085928288656,-1.8923100178621124,5.036044183821143,-2.897984824781519
3.926459064880801,-2.0057934879533588,2.1680854926502446,-1.9212898661099276,4.809276033072794,-3.253793714254796
3.9064011300012673,-1.9577007276226308,2.1488725939891453,-1.9538278032524756,4.576537390505086,-3.5920543895861377
3.886824122725041,-1.91193535371758,2.1293343159566205,-1.989748347148337,4.337431711357737,-3.913651055615779
3.867704769187865,-1.8685610366040026,2.109436832485137,-2.0288848577044947,4.091552950026721,-4.219478290016195
3.849019158821825,-1.8276455071037354,2.089147983908092,-2.0710796406046565,3.838490617710398,-4.510438097751466
3.8307427037507877,-1.7892606009266314,2.0684371875020453,-2.1161840215821712,3.5778338834323127,-4.787437009655866
3.8128500977415216,-1.7534822620923083,2.0472753472862237,-2.1640583916787297,3.309174852576572,-5.05138305717796
3.7953152751205987,-1.7203905135665425,2.0256347633694363,-2.214572222250509,3.0321111590567074,-5.303182478947133
3.7781113699849334,-1.6900694019759754,2.0034890411469313,-2.2676040470399803,2.746248010078596,-5.543736035692478
3.7612106759651738,-1.6626069218751895,1.9808130006765314,-2.323041407396905,2.4511998261426493,-5.773934827990576
3.7445846067464217,-1.638094923613763,1.9575825866025625,-2.3807807556768106,2.1465916233847864,-5.994655526255942
3.728203657510284,-1.616629007379915,1.9337747790457944,-2.44072731093937,1.832060290450173,-6.206754934336354
3.712037367436485,-1.5983084044754132,1.9093675059364008,-2.5027948602827337,1.5072559176494609,-6.411063817159433
3.6960542833917307,-1.5832358452989186,1.8843395573335735,-2.566905498454328,1.1718433419360883,-6.608379929335594
3.6802219249387416,-1.5715174118795576,1.8586705023490302,-2.6329892977476836,0.8255040769793127,-6.7994601858207995
3.664506750819946,-1.5632623711097644,1.8323406093715533,-2.7009838996058915,0.4679388029352,-6.985011918190774
3.6488741271088485,-1.5585829830804123,1.8053307703754944,-2.770834018787799,0.09887059499000955,-7.165683161452008
3.6332882972780443,-1.5575942771305122,1.7776224301876165,-2.842490850402319,-0.281950927196468,-7.34205191747952
3.617712354506739,-1.560413786402477,1.7491975216835933,-2.915911369577114,-0.6747443460993101,-7.514614343205141
3.6021082166427143,-1.56716122986347,1.7200384079878221,-2.9910575130091654,-1.0796899080514395,-7.68377181589784
3.5864366043440796,-1.5779581289439844,1.6901278328577305,-3.0678952311681438,-1.4969215254129022,-7.849816835848996
3.5706570230546397,-1.5929273441981133,1.659448880546049,-3.1463933995266338,-1.9265171563349932,-8.012917740335247
3.554727749612659,-1.6121925157614632,1.6279849465507827,-3.226522576929986,-2.368487418319705,-8.173102223976429
3.5386058244550442,-1.6358773899446601,1.5957197207814828,-3.3082535991697504,-2.822762320064115,-8.330239691868782
3.5222470505555976,-1.6641050131453012,1.5626371847897853,-3.3915559960884383,-3.289176035916464,-8.484022515665501
3.5056060004241445,-1.696996773504466,1.5287216248289008,-3.476396221245093,-3.767449701231137,-8.633946321683927
3.4886360326891,-1.7346712705167773,1.49395766261645,-3.5627356844619325,-4.257172277732525,-8.779289516635888
3.4712893199839323,-1.7772429932941025,1.4583303057718306,-3.650528579628291,-4.757779628411406,-8.919092352862856
3.453516890050991,-1.8248207895782165,1.4218250199755478,-3.7397195031569197,-5.268532053924274,-9.05213595248336
3.435268682155209,-1.8775061101174593,1.3844278249439785,-3.8302408626817535,-5.788490678707897,-9.176921848950268
3.4164936210540344,-1.9353910169045383,1.346125416317161,-3.922010081171256,-6.316493235602953,-9.291652763752255
3.3971397108849892,-1.9985559492605678,1.3069053155054484,-4.0149266088087785,-6.85112998134306,-9.394215511496554
3.3771541513923835,-2.0670672490739985,1.2667560494173606,-4.108868763923744,-7.390720677717711,-9.482167111219436
3.3564834789016436,-2.140974455851176,1.2256673617781233,-4.203690435035939,-7.933293786803831,-9.552725364188177
3.3350737343431316,-2.220307393719214,1.1836304574277638,-4.29921768867782,-8.476569241001627,-9.602765322457307
3.3128706604059395,-2.3050730861292306,1.1406382805409856,-4.395245341902394,-9.01794634186009,-9.628823196317109
3.289819929544647,-2.3952525495478314,1.0966858271219617,-4.491533573865564,-9.554498491994732,-9.627109305258717
3.265867404049169,-2.4907975344677786,1.0517704913833061,-4.587804666918151,-10.082976542011801,-9.593531634042826
3.240959428704491,-2.5916272998878966,1.0058924447141246,-4.6837399832585795,-10.599822504545314,-9.523731377692409
3.215043155705612,-2.6976255249333496,0.9590550448815388,-4.778977297035504,-11.101195212900054,-9.413131511691295
3.1880669004562785,-2.80863747706235,0.9112652719111838,-4.873108612152417,-11.5830091461826,-9.256998876390412
3.159980525685655,-2.924467568524176,0.8625341857896596,-4.965678600916321,-12.040987076810794,-9.050519499315419
3.130735850000413,-3.044877439292284,0.8128773997804963,-5.056183795909475,-12.470726404606598,-8.78888589712769
3.1002870756074903,-3.1695847033383497,0.7623155618214016,-5.144072654880752,-12.86777803140901,-8.467393930060913
3.068591228574107,-3.2982624836524397,0.7108748352725941,-5.228746594181361,-13.227735439206402,-8.081545491417689
3.0356086037375825,-3.4305398380445036,0.6585873693307804,-5.309562049095538,-13.54633033866253,-7.627152009951128
3.0013032053571376,-3.566003141431129,0.605491748839825,-5.385833569195049,-13.819529969710215,-7.1004325716815275
2.9656431739428264,-3.704198441128231,0.5516334131478745,-5.456837894911865,-14.043630015538593,-6.498099612140404
2.9286011895315442,-3.8446347412836173,0.49706503419875586,-5.521818891033269,-14.215336317063983,-5.81742479109005
2.890154842118708,-3.986788104454257,0.44184684528842316,-5.57999313894417,-14.331828336650704,-5.056278034891587
2.8502869610741652,-4.1301063878207644,0.3860469138989815,-5.630555919293085,-14.390797789732185,-4.213133976256657
2.8089858971959574,-4.274014365718086,0.32974135470605065,-5.672687259055652,-14.390457165798537,-3.2870422275107547
2.7662457535387763,-4.417918937376071,0.2730144821154941,-5.70555768133076,-14.329515044150114,-2.277561084028136
2.7220665641650155,-4.561214087817572,0.21595890530218653,-5.728333292171041,-14.20711812484844,-1.184658244610149
2.67645442328684,-4.703285269066057,0.1586755723804761,-5.740179874617143,-14.022763584467821,-0.008586710544294805
2.6294215705961794,-4.843512904910735,0.10127377363430468,-5.7402657417225855,-13.776189473052696,1.25025116611794
2.580986441547072,-4.9812747996412625,0.04387111621707882,-5.727763230061406,-13.467255059637823,2.591433901325089
2.5311736935506595,-5.115947350237641,-0.013406516083535235,-5.701848891048155,-13.09582693043378,4.014623837679266
2.480014220048283,-5.2469056195419785,-0.0704250049940168,-5.661702652671362,-12.661689855109593,5.519618533044529
2.427545163852863,-5.373522518093075,-0.12704203152073043,-5.606506467340917,-12.164503579535905,7.1063251429059635
2.3738099386719322,-5.495167553888433,-0.1831070961941396,-5.535443215911857,-11.603827404931218,8.774633401798
2.318858263133048,-5.611205827937745,-0.23846152835325818,-5.447696881893878,-10.979233291794415,10.524166572451824
2.2627462048536704,-5.7209981608556895,-0.29293849717219694,-5.342455216169359,-10.290524861534482,12.353896838090268
2.2055362232451134,-5.8239034094710345,-0.3463630493338905,-5.2189162477884565,-9.538073580422978,14.261622739900098
2.147297189150403,-5.919284145275264,-0.3985522118117751,-5.076300020389455,-8.723274088950904,16.243322040287637
2.08810434769765,-6.006516886164773,-0.44931521201566965,-4.913866799986579,-7.8491076572866865,18.292414174166407
2.0280391788360026,-6.08500796273764,-0.4984538800155354,-4.730942658244914,-6.920785999675556,20.3989918948709
1.9671890992086263,-6.154215822734395,-0.5457633065979846,-4.526952739296205,-5.946427764066747,22.549110225355687
1.9056469409812824,-6.213680100375062,-0.5910328339909466,-4.301461637042649,-4.937698699469659,24.724248896885175
1.8435101399775318,-6.263057087369758,-0.6340474503613731,-4.054219148073797,-3.9103271722245707,26.901086273347943
1.7808795691038342,-6.302160359092004,-0.6745896418421111,-3.785208285340317,-2.8843944892450524,29.05173029475479
1.717857965512914,-6.331004303984455,-0.7124417246955143,-3.494690982392769,-1.8843008162529318,31.144536158676683
1.6545479224730695,-6.349847312146984,-0.7473886345194419,-3.1832456208060025,-0.9383286900581065,33.145593685407015
1.5910494493515996,-6.3592305990475655,-0.7792210907275019,-2.8517896839519326,-0.07777114031951554,35.020887141282216
1.527457143361124,-6.360008310450761,-0.8077389875670212,-2.5015808125391104,0.6643410382580935,36.73902339456776
1.4638570602566163,-6.35336490006818,-0.8327547956924123,-2.134190578593433,1.2547969830831225,38.274308766774695
1.4003234112559346,-6.340816930237349,-0.8540967014783466,-1.751447490925686,1.6618535382542934,39.60985893451913
1.336915241953561,-6.324198394854806,-0.8716111763876034,-1.3553489015804947,1.8567218623590365,40.7403813082621
1.273673258005013,-6.305631176231215,-0.8851646654034084,-0.9479450884978737,1.814626047796304,41.6742998697522
1.2106169462427008,-6.287484915753252,-0.8946441162883871,-0.5312020898003518,1.5152005269273814,42.43500485898026
1.1477420970851682,-6.2723329104839785,-0.8999561371863907,-0.1068520412105492,0.9420693548947164,43.061186622445476
1.0850187679803285,-6.262912216935031,-0.9010246575984961,0.32375982501390554,0.08154849249542644,43.60641683653481
1.0223896458109782,-6.262096732010076,-0.8977870593483571,0.7598239933792537,-1.0794970644725248,44.13832578703361
0.9597686784908774,-6.2728917026548014,-0.8901888194145646,1.2012072512495897,-2.5565527580440834,44.73785366798234
0.8970397614643294,-6.298457230235242,-0.8781767469020687,1.648585787929413,-4.371013470378563,45.49910740726039
0.834055189161977,-6.342167364939028,-0.8616908890227746,2.1035768620020168,-6.554338642318166,46.530329115256265
0.7706335155125866,-6.40771075136221,-0.8406551204027544,2.5688801531545793,-9.152782238173213,47.956371370644035
0.7065564079989646,-6.499238573743941,-0.8149663188712085,3.0484438668610196,-12.232647048800702,49.922822461496814
0.6415640222615252,-6.621565044231948,-0.7844818802025983,3.5476720914759876,-15.885729923280808,52.60132714919572
0.5753483718192057,-6.780422343464756,-0.7490051592878385,4.073685362967945,-20.23364562097892,56.194119074246885
0.5075441483845582,-6.982758799674545,-0.708268305658159,4.635626553710414,-25.426923045978906,60.931764378421185
0.43771656038781276,-7.237028030134334,-0.6619120401210549,5.244944197494625,-31.62730116574535,67.0476055616319
0.3653462800864694,-7.553301041791787,-0.6094625981461086,5.915420253110945,-38.94238384791476,74.68538880001289
0.28981326966855153,-7.9427248802709345,-0.5503083956149991,6.662274141111074,-47.23444253606574,83.63019891993275
0.21038602086584218,-8.415069305631592,-0.48368565420388837,7.4985761303104015,-55.62232571550596,92.60877934813234
0.12623532780952626,-8.971292562786651,-0.40869989290078435,8.424663923791725,-61.3534744432708,97.70678557239393
0.03652240218165975,-9.58482730721936,-0.3244532536628671,9.401731779515664,-57.9808141846646,89.81517682808827
-0.059325870890533844,-10.164635449066006,-0.23043593586771044,10.299883547796547,-35.41686945848944,54.73090971631242
-0.1609722253811939,-10.5188041436509,-0.12743710038974498,10.847192644959671,9.538695904793915,-11.997633343486864
-0.2661602668177029,-10.423417184602961,-0.018965173940148267,10.727216311524803,55.58059336680241,-80.28971251146803
-0.3703944386637325,-9.867611250934937,0.08830698917509976,9.924319186410122,75.36223697879792,-111.5499763322503
-0.4690705511730819,-9.113988881146957,0.18755018103920096,8.808819423087618,71.27690980253767,-108.98918118527898
-0.5602104399845514,-8.401219783121581,0.2756383752700772,7.718927611234828,59.02849048956778,-94.60989465600849
-0.6442226378157673,-7.810934878225903,0.35282765138242544,6.772828664674743,46.87981579268669,-80.07321717477208
-0.7223319865980263,-7.342136720299036,0.4205559380291729,5.972096492927022,36.886656384455925,-68.35432094598633
-0.7957533538010166,-6.973270156454477,0.4802769029584431,5.288553283467159,29.023520707152553,-59.488882530170514
-0.8654860553655614,-6.683034949382952,0.5331624357931147,4.693664458165454,22.84485066966522,-52.89703640016257
-0.9323164048593909,-6.4545864426863,0.5800990803747693,4.164694094163829,17.927572465705982,-48.00818715255676
-0.9968622692862539,-6.27531071802924,0.6217460213164077,3.684612222638261,13.94974245624325,-44.37587437168117
-1.0596153764665464,-6.135813293466807,0.6585921435427903,3.2408534789214496,10.681751012605034,-41.66862263781877
-1.1209735094012143,-6.028995783340757,0.6910006783320047,2.824167252543262,7.96370245791654,-39.64028041487506
-1.1812634672346218,-5.9493587587615915,0.7192423508574374,2.4277644483945116,5.685714876415784,-38.10390822685409
-1.2407570548222377,-5.892501609997433,0.7435199953413825,2.046725366125971,3.773347188100724,-36.912839452500755
-1.299682070922212,-5.854768138116426,0.7639872490026421,1.677596971600963,2.1771691546096466,-35.94795907697271
-1.3582297523033764,-5.83299644657033,0.7807632187186517,1.318117380831236,0.8651612999831894,-35.10967322171476
-1.4165597167690798,-5.824344833570498,0.7939443925269641,0.9670206486140884,-0.1830768778987403,-34.31331212420794
-1.4748031651047848,-5.826175602349485,0.8036145990131051,0.623887527372009,-0.9809780869229796,-33.48702170791315
-1.5330649211282796,-5.8359853832187145,0.8098534742868252,0.2890173102928775,-1.5388849717326003,-32.571392408059495
-1.5914247749604669,-5.85137423293604,0.812743647389754,-0.036696613787717436,-1.8672885214250392,-31.520157375187146
-1.6499385172898273,-5.870047118150291,0.8123766812518769,-0.3518981875395889,-1.9793973247594006,-30.301319193101325
-1.7086389884713302,-5.8898410913978845,0.808857699376481,-0.6549113794706021,-1.8929193223678202,-28.89809626253655
-1.7675373993853092,-5.908770284621562,0.802308585581775,-0.9438923420959676,-1.6309306429196528,-27.309167790401588
-1.8266251022315247,-5.925079591050759,0.7928696621608153,-1.2169840199999835,-1.2217755396095824,-25.547864345255082
-1.8858758981420323,-5.937297346446854,0.7806998219608156,-1.4724626634525344,-0.69806412196244,-23.640187197373553
-1.9452488716065008,-5.944277987666479,0.7659751953262902,-1.70886453542627,-0.09497076178635362,-21.621797996070324
-2.0046916514831654,-5.945227695284342,0.7488865499720275,-1.9250825153869733,0.5518589156328946,-19.534337569667805
-2.064143928436009,-5.939709106128014,0.7296357248181577,-2.1204258910836513,1.2084440580447977,-17.42155434126891
-2.123541019497289,-5.927624665547565,0.7084314659073212,-2.2946414344963406,1.8443332159461885,-15.32572538058014
-2.1828172661527647,-5.909181333388103,0.6854850515623578,-2.447898688302142,2.4339762945569743,-13.284750964874013
-2.241909079486646,-5.884841570442533,0.6610060646793364,-2.580746197950882,2.9575032174846085,-11.330139770173218
-2.300757495191071,-5.855266538267687,0.6351986026998276,-2.694047595652614,3.4009230249547073,-9.485928433271173
-2.359310160573748,-5.82125730801814,0.6082581267433015,-2.788906879985326,3.755840824766012,-7.768438210925455
-2.417522733653929,-5.78369889977048,0.5803690579434482,-2.8665912620945804,4.018833459018493,-6.186684572083203
-2.4753597226516337,-5.743510565180295,0.5517031453225024,-2.9284581078154126,4.190631361520123,-4.743224249993933
-2.5327948283034365,-5.701604251565094,0.5224185642443483,-2.975890350315352,4.27523485031955,-3.4352363657926244
-2.5898108708190875,-5.6588519030618984,0.49265966074119477,-3.010242713973278,4.279060797948658,-2.2556722723760614
-2.6463993898497065,-5.616061295082412,0.462557233601462,-3.0327994366970388,4.210180833439921,-1.1943565795982523
-2.7025600028005305,-5.573959486748013,0.43222923923449164,-3.0447430024930213,4.077681722364942,-0.23896783359958346
-2.7582995976680107,-5.533182669524363,0.4017818092095614,-3.047132680829017,3.891155427367624,0.6241348390137227
-2.8136314243632543,-5.494271115250687,0.37131048240127124,-3.0408913324388798,3.6603109792314084,1.4092453126770264
-2.868574135515761,-5.457668005458372,0.34090156907688246,-3.0267988793121097,3.3946915840240672,2.1307927766775383
-2.9231508155703447,-5.423721089618132,0.31063358028376137,-3.005490951545334,3.1034766756622156,2.8029515827444076
-2.9773880264665262,-5.39268632286151,0.280578670768308,-2.97746143571789,2.795348229806682,3.4393535227885543
-3.031314889695141,-5.364732840563444,0.25080405641112913,-2.9430679004900044,2.4784022216418196,4.052877355393671
-3.0849622181007756,-5.339948818347025,0.2213733774062291,-2.902539126936068,2.160088660564194,4.65549261312501
-3.138361706284246,-5.318347931741384,0.1923479861368684,-2.855984200804818,1.8471665502310217,5.258138161776228
-3.19154518560166,-5.299876266239074,0.16378814412882023,-2.8034028191870557,1.5456630654317594,5.8706199868985065
-3.2445439482640506,-5.284419635584756,0.13575411593694967,-2.744696619318071,1.2608290675828824,6.501516895785127
-3.297388144619898,-5.271811344908928,0.10830714974376895,-2.6796814503602198,0.9970857796224308,7.158087087922473
-3.3501062580689873,-5.261840487112703,0.08151033524016676,-2.608100579480995,0.7579600498310832,7.8461728146873835
-3.4027246629401144,-5.254260886614393,0.05542932944535681,-2.5296388513341213,0.5460082043801827,8.570104600556103
-3.4552672718062585,-5.248800804570591,0.0301329409320156,-2.4439378053285603,0.36273104309013043,9.332610680509333
-3.5077552798519642,-5.2451734941396895,0.005693562878729998,-2.350611698523467,0.20848503438614754,10.134741285959844
-3.5602070147933613,-5.243088643795828,-0.01781255410650467,-2.2492642856638683,0.08239709257287517,10.975820933177033
-3.6126379012313197,-5.2422646728701,-0.04030519696314336,-2.139506076332098,-0.017707742605062922,11.853444557617497
-3.6650605479600205,-5.24244175029615,-0.06170025772646434,-2.020971630755923,-0.09535516142518581,12.763534716129577
-3.717484965462982,-5.243395301910402,-0.08190997403402357,-1.893336283594627,-0.155436223741311,13.700476628803873
-3.7699189184820856,-5.244949664147815,-0.10084333686996984,-1.7563315173065883,-0.2041782546105753,14.657345103537452
-3.822368415123564,-5.2469914466939205,-0.11840665204303572,-1.6097580662712139,-0.24906536800671547,15.626232141172055
-3.8748383295905033,-5.249482100373988,-0.13450423270574785,-1.4534957448594934,-0.29870664157169824,16.59867638694752
-3.9273331505942433,-5.252469166789704,-0.14903919015434278,-1.2875089809900182,-0.36265615696949005,17.566186198788564
-3.9798578422621405,-5.2560957283594,-0.16191427996424296,-1.1118471190021326,-0.45119630946978373,18.520838107993868
-4.032418799545734,-5.260607691454098,-0.17303275115426428,-0.926638737922194,-0.5751031281278641,19.455923473029543
-4.085024876460276,-5.266358722735377,-0.18229913853348623,-0.7320795031918985,-0.7454188040667796,20.366610016551366
-4.137688463687629,-5.273812910776044,-0.1896199335654052,-0.5284134030263848,-0.9732612008318658,21.250583403706724
-4.19042659279539,-5.283545522784363,-0.19490406759566906,-0.3159075689893176,-1.2697021135566389,22.108638254338832
-4.243262048023234,-5.296242543919929,-0.19806314328556224,-0.09482118644592927,-1.6457452832365533,22.945198326262236
-4.296224473462433,-5.312699996752294,-0.19901135515002152,0.1346307968166931,-2.112432166142519,23.768761437592225
-4.349351473429956,-5.333824318413719,-0.1976650471818546,0.37231841119261533,-2.6810993807224324,24.592284566581917
-4.402689716614093,-5.360635312220944,-0.19394186306992844,0.6182412568584346,-3.3638082763609702,25.43354660090142
-4.456296069736302,-5.394273394984554,-0.1877594505013441,0.8725767228674488,-4.173966068787025,26.315548625136337
-4.510238803686148,-5.436013055672424,-0.1790336832726696,1.1357322091188122,-5.127161209701484,27.267033224670072
