th1 (rad),w1 (rad/s),th2 (rad),w2 (rad/s)
2.803253322553705,-3.10139445354406,4.858891528608885,1.3574056277167428
2.772239378018264,-3.1256442083634632,4.8724655848860525,1.357952919573507
2.7409829359346296,-3.153477455256026,4.886045114081788,1.3563216666334421
2.7094481613820696,-3.1850982892584145,4.899608330748122,1.352178197649575
2.6775971784894854,-3.220731235533888,4.913130112724618,1.3451759246243051
2.6453898661341464,-3.2606188342756286,4.9265818719708605,1.3349586567613256
2.61278367779139,-3.3050177036559094,4.9399314585384735,1.3211663434847176
2.579733500754831,-3.3541925668845676,4.953143121973321,1.3034440233512419
2.5461915750859854,-3.408407636147828,4.966177562206833,1.281454902735458
2.512107498724507,-3.467914670818444,4.978992111234188,1.2548986100174777
2.4774283520163225,-3.532936997138095,4.991541097334363,1.2235357266065203
2.4420989820449415,-3.603648832180246,5.003776454600428,1.1872196237602501
2.406062493723139,-3.6801494514446733,5.01564865083803,1.145936349075651
2.3692609992086924,-3.7624321438912762,5.027108014328787,1.0998527043855533
2.3316366777697795,-3.850348579483789,5.038106541372643,1.0493716279164849
2.2931331919749414,-3.9435702223168536,5.048600257651808,0.9951924540833412
2.2536974897517728,-4.041549754012495,5.058552182192641,0.9383715683186318
2.213281992211648,-4.143487026312899,5.067935897875827,0.8803765442812072
2.171847121948519,-4.248305596065913,5.076739663318639,0.8231244092998362
2.12936406598786,-4.3546470068301275,5.084970907411638,0.7689928516658596
2.0858175959195586,-4.460890143171969,5.092660835928296,0.720792791976052
2.041208694487839,-4.565201669432695,5.099868763848057,0.6816926545769709
1.9955566777935119,-4.665620448080646,5.106685690393826,0.65508947924393
1.9489004733127053,-4.760174013891275,5.113236585186265,0.6444296432707503
1.9012987331737925,-4.8470193297236035,5.119680881618973,0.6529914396447445
1.8528285398765565,-4.924594361929743,5.12621079601542,0.6836511993176834
1.8035825962572591,-4.99176292944698,5.133047308008597,0.7386616740764687
1.7536649669627893,-5.047934058851411,5.140433924749361,0.8194738167555691
1.703185626374275,-5.093139380215216,5.148628662916917,0.926629632684336
1.652254232572123,-5.128057753478897,5.157894959243761,1.0597445719535346
1.6009736550373341,-5.153984322679423,5.168492404963296,1.217584629875982
1.54943381181054,-5.172749951900182,5.180668251262056,1.398228720848039
1.4977063122915382,-5.186604668524049,5.194650538470537,1.599294248251408
1.4458402656062976,-5.198083721469824,5.210643480953051,1.8181959512040031
1.3938594283915995,-5.2098762261433516,5.228825440465091,2.052406662105757
1.341760666130166,-5.224714148498378,5.249349507086149,2.2996934298427045
1.289513524645182,-5.2452945551244925,5.272346441384576,2.5583118185829394
1.237060579093937,-5.274242189756056,5.297929559570405,2.8271524351121085
1.1843181571963766,-5.314114142776586,5.326201083921526,3.1058442763617498
1.1311770157686107,-5.367444846065909,5.3572595266851435,3.394827589144409
1.0775025673079517,-5.436828389695588,5.391207802576588,3.695414059126694
1.0231342834109958,-5.5250361719356205,5.428161943167855,4.0098548024492
0.9678839216916396,-5.635170750159218,5.468260491192347,4.34143791289677
0.9115322141900475,-5.770860885889065,5.511674870321315,4.694638342004338
0.8538236053311569,-5.936507410076464,5.558621253741358,5.075344193820726
0.7944585312303922,-6.137593163777001,5.609374695679565,5.491184036640448
0.7330825995926222,-6.381068828657339,5.66428653604597,5.951974421822608
0.6692719113060488,-6.675808248744323,5.7238062802641965,6.470279296212953
0.6025138288186056,-7.033058422798175,5.788509073226326,7.061976728528897
0.5321832445906238,-7.466596648931133,5.859128840511615,7.746431888249113
0.4575172781013125,-7.991692405042119,5.936593159394106,8.545017651381148
0.3776003540508913,-8.620296329415224,6.0220433359079175,9.474383080588863
0.2913973907567391,-9.34583052754199,6.116787166713806,10.525200516789877
0.1979390854813192,-10.104420790683744,6.222039171881705,11.607948036826546
0.09689487757448176,-10.707240801902515,6.33811865224997,12.458212156998606
-0.010177530444543392,-10.833762323179636,6.4627007738199564,12.627334231344957
-0.11851515367633976,-10.315031427304426,6.588974116133406,11.87909946818016
-0.22166546794938402,-9.434135081778066,6.707765110815208,10.608779721920035
-0.3160068187671647,-8.567463968627314,6.813852908034408,9.340533172000775
-0.40168145845343783,-7.855435160829097,6.907258239754416,8.269394546025408
-0.4802358100617288,-7.2982302486450905,6.98995218521467,7.395576279185373
-0.5532181125481797,-6.864597346056049,7.063907948006523,6.675674928131842
-0.6218640860087401,-6.525328877505048,7.130664697287842,6.069024238159233
-0.6871173747837906,-6.258480500852036,7.191354939669434,5.544926169139514
-0.749702179792311,-6.04831044654427,7.246804201360829,5.081243394193178
-0.8101852842577537,-5.883516234037861,7.297616635302761,4.6620561982769155
-0.8690204465981324,-5.7558225166996815,7.344237197285531,4.27583407114855
-0.9265786717651292,-5.658977532968616,7.3869955379970165,3.9142009644938347
-0.9831684470948153,-5.588050567069154,7.426137547641955,3.571145908768388
-1.039048952765507,-5.538930232903264,7.461849006729638,3.2425374139830097
-1.0944382550945395,-5.507955720689917,7.494274380869468,2.925837330182842
-1.1495178123014387,-5.49164152179186,7.523532754171296,2.6199379882261256
-1.2044342275193574,-5.486477441713981,7.549732134053557,2.3250621699284437
-1.2592990019364971,-5.488800888773905,7.572982755752841,2.0426728650650587
-1.3141870108242362,-5.494747788199843,7.593409484403492,1.7753443914308744
-1.3691344887062347,-5.500291123053937,7.611162928317801,1.5265540285311807
-1.4241373999367741,-5.501370838861218,7.6264284686031125,1.3003687129388348
-1.4791511083253863,-5.494105740182002,7.639432155732501,1.1010265955560634
-1.5340921657272064,-5.475059943174517,7.650442421688061,0.9324454265434292
-1.5888427651589516,-5.441519455821074,7.659766875953496,0.7977203488002088
-1.6432579597171624,-5.391725885135456,7.667744079441498,0.6986914092612765
-1.697175218568517,-5.325019271196504,7.67473099353411,0.6356572097732455
-1.750425411280482,-5.241860473352235,7.6810875656318425,0.6072847611336382
-1.8028440160140045,-5.143729595574175,7.687160413243179,0.6107250670454153
-1.8542813119697463,-5.032922091395684,7.693267663913633,0.6419027718095944
-1.904610532883703,-4.9122812474890525,7.699686691631729,0.6959186709761037
-1.9537333453585937,-4.784911554550802,7.706645878341489,0.7674923237633032
-2.0015824609041015,-4.653913024825359,7.714320801579122,0.8513778215422512
-2.048121591152355,-4.5221653136821995,7.722834579794545,0.9427036211314032
-2.0933432442891773,-4.392176680775718,7.732261616005859,1.0372102703897432
-2.1372650110969347,-4.265999868225232,7.742633718709756,1.1313816519171211
-2.179925009779187,-4.14520714219383,7.753947535228927,1.2224819417198265
-2.2213770812011253,-4.030910985487776,7.766172354646125,1.3085201148423034
-2.261686191056003,-3.923815063401338,7.779257555794548,1.3881668676886796
-2.3009243416900165,-3.824281188487883,7.793139224471434,1.4606469124813062
-2.3391671535748952,-3.7324008606381462,7.807745693596248,1.525624847806659
-2.3764911621812765,-3.64806342290867,7.823001942074314,1.5830971306493116
-2.412971796410363,-3.5710161327463936,7.8388329133808075,1.6332974077809397
-2.448681957737827,-3.5009140575948323,7.855165887458617,1.676618306094881
-2.483691098313775,-3.4373595294117365,7.871932070519566,1.7135499172207729
-2.5180646936078928,-3.379932000026945,7.8890675696917745,1.7446335089294922
-2.5518640136081623,-3.3282096871736204,7.906513904781069,1.7704281823380459
-2.5851461104798985,-3.2817845654957596,7.92421818660445,1.791487979414942
-2.617963956134856,-3.2402721901181484,7.9421330663986,1.8083470844743705
-2.6503666780360375,-3.2033176559122962,7.960216537243343,1.8215110768334621
-2.6823998545951606,-3.170598768610558,7.978431648011678,1.831452562811344
-2.714105842281266,-3.1418272788341453,7.996746173639791,1.83860987624705
-2.7455241150696077,-3.116748829533246,8.015132272402262,1.8433878544010907
-2.7766916033649403,-3.095142099991423,8.033566150946273,1.8461599586167616
-2.8076430243648547,-3.0768174961058326,8.05202775053244,1.8472712166451977
-2.838411199325913,-3.061615633758747,8.070500462698892,1.8470416221296966
-2.8690273556635004,-3.0494057847805927,8.088970878920188,1.8457697445489043
-2.8995214135113065,-3.0400843980661696,8.107428576365677,1.8437363881251105
-2.929922257491968,-3.0335737670664216,8.125865940246928,1.8412081980498867
-2.960257995162632,-3.0298208850367954,8.144278022227427,1.838441152772569
-2.990556204013,-3.0287965076737873,8.162662433755152,1.8356839065655168
-3.020844169089738,-3.0304944263039513,8.181019272820807,1.8331809603634557
-3.0511491133527775,-3.0349309412387906,8.19935108242444,1.831175643054727
-3.0814984227651654,-3.0421445121790693,8.217662838854988,1.8299128810159282
-3.111919867886956,-3.0521955486347676,8.235961967665148,1.8296417207809297
-3.1424418233733036,-3.065166286110365,8.254258384872957,1.8306175473899313
-3.173093486234407,-3.081160670874118,8.272564560346856,1.8331039071931772
-3.2039050929431485,-3.100304144554986,8.290895599418787,1.837373795528376
-3.2349081343886983,-3.1227431759363973,8.30926933737407,1.8437102022483622
-3.2661355661480624,-3.1486443265798254,8.327706439396554,1.8524056155536364
-3.297622009413861,-3.178192553773259,8.34623049555209,1.8637600594968
-3.3294039349515936,-3.211588342449663,8.364868096147058,1.8780770742810002
-3.3615198183760904,-3.2490431108868707,8.383648866889867,1.8956568326308827
-3.394010249484959,-3.2907721489543205,8.402605435216175,1.9167853147567802
-3.426917970974502,-3.336984124433192,8.421773288363744,1.9417181427106665
-3.460287812218834,-3.3878659487559166,8.44119046979085,1.9706573270119112
-3.4941664717063934,-3.4435615728002715,8.46089704306097,2.0037188699197226
-3.528602087434396,-3.5041431808340726,8.480934231760166,2.040889038804386
-3.5636435192427367,-3.5695734421286143,8.50134312214821,2.0819674243198816
-3.5993392536640227,-3.6396582553326726,8.52216279639141,2.1264960497192904
-3.6357358362173495,-3.7139911983089884,8.543427756888603,2.173676399583118
-3.6728757482004393,-3.7918941609112706,8.565164520884434,2.2222809821783676
-3.710794689809552,-3.872363712518404,8.587387330706218,2.2705733867524662
-3.7495183269347363,-3.9540392876169745,8.610093064573743,2.3162602325624166
-3.7890587198109063,-4.0352154372143545,8.633255666899366,2.3565073085823527
-3.8294108741830497,-4.113922204065151,8.65682073998519,2.388054852468382
-3.870550096223701,-4.1880894784135005,8.680701288509873,2.4074551993458795
-3.9124309910078363,-4.255788779995872,8.704775840503332,2.4114238954616103
-3.954988878807795,-4.315512314123611,8.72889007945795,2.397247062485221
-3.998144001949031,-4.366418853639418,8.752862550082801,2.3631439541729655
-4.041808190485425,-4.408470204420117,8.77649398962453,2.308474611545114
-4.0858928925296265,-4.442412747913774,8.799578735739981,2.233725753647285
-4.130317020008764,-4.46961402737672,8.821915993276454,2.140287113988972
-4.175013160282531,-4.491813702430539,8.843318864416343,2.0301015377308964
-4.219931297306837,-4.510865338854864,8.863619879793651,1.905297826619008
-4.265039950695385,-4.528528279864545,8.882672858059841,1.7678919420270085
-4.310325233494031,-4.546335391069303,8.900351777480111,1.619595133340228
-4.355788587404724,-4.565533090430237,8.916547728813514,1.461725696610058
-4.401443918309027,-4.5870744683460885,8.931164985779615,1.2951984281871294
-4.447314662992487,-4.611643406978913,8.944116970061486,1.1205611978999235
-4.493431097062277,-4.63969179482611,8.955322582040486,0.9380536087365761
-4.539828015010538,-4.671478117155912,8.96470311812785,0.747671257694898
-4.586542796182097,-4.7071010924757495,8.9721798307048,0.5492266662434943
-4.633613807106855,-4.746525743656415,8.977672097367234,0.34240320694885346
-4.681079064543419,-4.789601468641913,8.981096129436724,0.12680144594453743
-4.728975079229838,-4.836072761013526,8.982364143896168,-0.09802114836895531
-4.777335806839973,-4.885583662240788,8.981383932412479,-0.33251561596512746
-4.826191643462381,-4.937677122510567,8.978058776252828,-0.5771104890268703
-4.8755684146874865,-4.99179040277246,8.97228767136256,-0.832183034001682
-4.925486318715211,-5.047247576008746,8.963965841022542,-1.0980317828135577
-4.975958794475298,-5.103250133467854,8.952985523194407,-1.374849772303877
-5.026991295809977,-5.158866691396052,8.939237025471368,-1.662698310222358
-5.078579962723937,-5.213022826574142,8.922610042369143,-1.9614814844686443
-5.130710190989679,-5.2644921346562805,8.902995227524457,-2.270922023570754
-5.183355112336241,-5.311889686832394,8.880286007288749,-2.590539492602427
-5.236474009204565,-5.353669135543033,8.854380612362725,-2.919632156403657
-5.2900107005599954,-5.388124762883847,8.825184290798688,-3.2572641408604808
-5.343891948188834,-5.413399747400522,8.792611649390084,-3.602259746826337
-5.398025945662839,-5.427501816779752,8.75658905192182,-3.953206889796311
-5.452300963830637,-5.428327227465738,8.717056983023857,-4.308471620780629
-5.506584236105295,-5.413693643662025,8.673972266816051,-4.666225502397941
-5.560721172541915,-5.381381961248777,8.627310011792071,-5.0244872491012185
-5.614534992154403,-5.329186432029207,8.577065139301059,-5.381179483782236
-5.667826856474695,-5.254971601603235,8.523253344463237,-5.7342007234918455
-5.720376572490728,-5.156733612536902,8.465911337228318,-6.081511815023182
-5.771943908616096,-5.032662402649478,8.405096219078086,-6.421235054426724
-5.822270532642591,-4.8812003365074395,8.340883868533819,-6.751763234315291
-5.871082536007665,-4.701091968032733,8.273366236190666,-7.0718749973914
-5.918093455687993,-4.4914190882322655,8.202647486216753,-7.380852296827206
-5.963007646570316,-4.251615113861832,8.12883896324848,-7.678595656544565
-6.005523797708934,-3.981453346001048,8.052053006683034,-7.965733457331823
-6.045338331168944,-3.681004743879334,7.972395672109715,-8.243722753769399
-6.082148378607737,-3.350562624087865,7.889958444572021,-8.514941120030038
-6.115654004848616,-2.990534083148104,7.804809033371721,-8.782771459998749
-6.1455593456800965,-2.6013010297570385,7.716981318771734,-9.051683934872132
-6.171572355977667,-2.1830579947185313,7.626464479423013,-9.327319794123618
-6.193402935924852,-1.7356409225135392,7.533191281481777,-9.616578179901724
-6.210759345149987,-1.258374916462097,7.437025499682759,-9.927693114280931
-6.223343094314608,-0.7499986382845034,7.33774856853995,-10.27025128545882
-6.230843080697453,-0.20878916034641792,7.235046055685362,-10.655014278336767
-6.232930972300918,0.36684331693415306,7.128495912901994,-11.09321222304112
-6.229262539131576,0.9767130288318491,7.017563790671582,-11.594552289574633
-6.219495408843257,1.614996781666961,6.901618267775836,-12.162355581256527
-6.203345441026587,2.262108476061236,6.779994711963271,-12.782978195304876
-6.180724356265975,2.87017278172864,6.652164930010222,-13.406376847728463
-6.152022628448688,3.345544188824065,6.518101161532937,-13.922006198449957
-6.118567186560448,3.5526422507400772,6.378881099548438,-14.162393099220521
-6.083040764053047,3.383862987208491,6.237257168556233,-13.994686446823176
-6.0492021341809625,2.867058728185148,6.097310304088001,-13.461057598206372
-6.020531546899111,2.1542886043471947,5.962699728105937,-12.758575458459026
-5.998988660855639,1.3912945783636606,5.835113973521347,-12.06524727462132
-5.985075715072003,0.6522508986284218,5.714461500775133,-11.460252391320916
-5.978553206085718,-0.04030945288256638,5.599858976861924,-10.955975517119066
-5.978956300614544,-0.6855502921036578,5.490299221690734,-10.538949435315889
-5.98581180353558,-1.288743108613004,5.384909727337575,-10.18979808907172
-5.998699234621711,-1.8554285979476304,5.283011746446857,-9.890044724738132
-6.017253520601187,-2.3896946209975054,5.184111299199476,-9.623749368814527
-6.041150466811162,-2.8939191353519034,5.0878738055113315,-9.377517023459099
-6.070089658164681,-3.3689798775962143,4.994098635276741,-9.140132786210627
-6.103779456940644,-3.81458877609021,4.902697307414634,-8.90221158050762
-6.141925344701546,-4.229642075056386,4.8136751916095575,-8.655953629905879
-6.18422176545211,-4.612553744242539,4.727115655310499,-8.395002417362448
-6.230347302894535,-4.961561603434043,4.643165631136874,-8.114375493518812
-6.2799629189288755,-5.274999632011078,4.562021876201686,-7.81043457577954
-6.332712915248986,-5.551529507974585,4.4839175304438905,-7.480865025710148
-6.388228210328732,-5.790324240438538,4.409108880186789,-7.124641230556944
-6.446131452733117,-5.991198174462662,4.337862467881219,-6.741961930341242
-6.506043434477744,-6.154680581326681,4.270442848577807,-6.334147185692893
-6.56759024029101,-6.2820338339671675,4.207101376720878,-5.903495721857202
-6.6304105786306815,-6.375221009220401,4.148066419502306,-5.453107223163773
-6.694162788722886,-6.436831004959523,4.093535347270668,-4.986678447439523
-6.7585310987724805,-6.46997152937878,4.043668562796273,-4.508284698561362
-6.823230814066268,-6.4781414901344165,3.9985857158106595,-4.022159338511391
-6.888012228967613,-6.465094436435357,3.9583641224255457,-3.5324838163158785
-6.952663173331966,-6.434703922564545,3.923039284262387,-3.0431993282966334
-7.0170102125576115,-6.39084012882422,3.892607290979421,-2.5578489001181897
-7.080918613845854,-6.337264976827117,3.867028801978239,-2.0794556482336954
-7.144291263614125,-6.277550524176596,3.8462342454959018,-1.6104395797526652
-7.207066768855891,-6.215022866564761,3.830129849698375,-1.152571949115655
-7.269216997521538,-6.152731366666781,3.8186041302072185,-0.7069633484064487
-7.330744311188206,-6.093440976299426,3.811534496723154,-0.2740797404328333
-7.391678720951201,-6.039643826502675,3.8087936993188256,0.14622020174631734
-7.4520751592162275,-5.99358509112408,3.810255901336289,0.5546326886865978
-7.512011010127468,-5.957297177633309,3.8158022282231547,0.9523458860966849
-7.571583981903801,-5.93263517393061,3.8253256870841215,1.3409678922277624
-7.630910333643107,-5.921304571030102,3.838735366006399,1.722442152068454
-7.690123379353408,-5.924868680915934,3.855959787527084,2.0989393485139156
-7.749372066162567,-5.944716554906523,3.876949181012223,2.4727032357913123
-7.808819231711633,-5.981960771633841,3.9016762133701364,2.8458099355461894
-7.868638839427971,-6.037216218902366,3.930134312725598,3.21977328054762
-7.9290110016169955,-6.1101855088662385,3.9623320455310744,3.5948923976252223
-7.990112856705657,-6.1989508972061635,3.9982809695073267,3.9692018222008674
-8.052102365677719,-6.298876206986707,4.0379729877293356,4.336891022670202
-8.115091127747586,-6.401137882181358,4.081341897956038,4.686225703101529
-8.1791025065694,-6.491294146676729,4.128204154987053,4.997555598326155
-8.244015448036167,-6.54911162863692,4.178179710970315,5.2431361551574005
-8.309506564322536,-6.551730673624709,4.230611072521889,5.391697920688862
-8.375023871058783,-6.481475072453145,4.284528051728778,5.419579277932919
-8.439838621783315,-6.335280518076307,4.338723844508107,5.3240963817193485
-8.503191426964078,-6.128020814303682,4.391964808325301,5.128195557024256
-8.564471635107115,-5.885530587316316,4.4432467638955435,4.870451073062599
-8.623326940980277,-5.633285009760867,4.491951274626169,4.588882979906221
-8.679659791077887,-5.38935102545449,4.537840104425231,4.3108392915146805
-8.733553301332432,-5.163521018540823,4.580948497340378,4.051686994860406
-8.78518851151784,-4.959558588929265,4.621465367288982,3.817971771598253
-8.834784097407132,-4.7777415527346365,4.659645085004964,3.6110411903852926
-8.882561512934478,-4.616664888362762,4.695755496908817,3.429638293164344
-8.928728161818105,-4.474284737683075,4.7300518798404605,3.2714225452481305
-8.973471009194936,-4.348451408513904,4.7627661052929415,3.133761776030063
-9.016955523280075,-4.2371515206658925,4.794103723053242,3.014104774942849
