th1 (rad),w1 (rad/s),th2 (rad),w2 (rad/s)
6.206348846808911,1.2867070368501712,0.5888546374797199,-0.43381637435478
6.219215917177413,1.335249460436397,0.5845164737361721,-0.5366497123923701
6.232568411781777,1.3835716571643377,0.5791499766122484,-0.6400068044626771
6.24640412835342,1.4316741391911085,0.5727499085676216,-0.7437924041398253
6.260720869745332,1.4795314445763246,0.5653119845262234,-0.8478761590081278
6.275516184191095,1.5270858615775709,0.5568332229361421,-0.9520847023859715
6.290787042806871,1.5742401094993856,0.5473123759122824,-1.0561922948506774
6.306529443901865,1.6208489640749235,0.5367504529637757,-1.159909997179585
6.322737933542614,1.6667099206233855,0.5251513529919798,-1.2628735027703477
6.339405032748847,1.7115531556076051,0.5125226179642763,-1.3646299901542498
6.356520564304923,1.7550312946464084,0.49887631806273386,-1.4646246996984928
6.374070877251388,1.796709836027619,0.48423007106574895,-1.5621884116435387
6.392037975611664,1.8360595128625823,0.46860818694931355,-1.6565276043623092
6.4103985707402895,1.8724523747391661,0.4520429109056905,-1.7467197607674867
6.429123094487681,1.9051638528359374,0.43457571329801564,-1.8317169577301673
6.448174733016041,1.9333833948558692,0.41625854372071397,-1.9103613141943858
6.467508566964599,1.9562361979374132,0.3971549305787701,-1.9814157816765041
6.487070928943973,1.9728178632271833,0.37734077276200506,-2.043612766058382
6.506799107576246,1.982242218132684,0.3569046451014212,-2.0957208573086388
6.5266215297575725,1.98370006062704,0.3359474365283348,-2.1366264607591936
6.546458530363843,1.976523491365158,0.31458117192074286,-2.165422817720525
6.566223765277495,1.9602475824296433,0.2929269437435376,-2.181494853379375
6.585826241101791,1.9346594853368169,0.2711119952097439,-2.1845860339239995
6.605172835955159,1.899825727706131,0.2492661348705039,-2.174834377133999
6.624171093232221,1.8560917615948673,0.2275177910991639,-2.1527694520261864
6.642732010848169,1.8040531312564019,0.20599009657890202,-2.1192696622104576
6.660772542160733,1.7445033170310236,0.18479739995679745,-2.0754870726965393
6.678217575331043,1.6783675326833918,0.16404252922983206,-2.0227529151802077
6.695001250657877,1.6066332803354895,0.14381500007803,-1.9624789861044598
6.711067583461232,1.5302872110868795,0.1241902102169854,-1.8960683272996015
6.726370455572101,1.4502647127891317,0.10522952694398938,-1.8248441451445077
6.740873102699992,1.367414967465816,0.0869810854925443,-1.750000737197272
6.754547252374651,1.2824810913260256,0.06948107812057158,-1.6725757997271775
6.767372063287911,1.1960929510283522,0.05275532012329981,-1.593440666173969
6.779332992798194,1.108769378432275,0.03682091346156012,-1.5133038206228449
6.790420686582517,1.02092650547286,0.02168787525533167,-1.4327230472334653
6.800629951637246,0.9328894436417,0.0073606447829970174,-1.352122297230286
6.8099588460736635,0.8449052259579539,-0.0061605781893058435,-1.2718103391933004
6.818407898333243,0.7571556087932517,-0.01887868158123885,-1.1919992191599986
6.825979454421176,0.6697688944844894,-0.030798673772838837,-1.1128213521007768
6.832677143366021,0.5828303534322619,-0.0419268872938466,-1.0343446546075246
6.838505446900343,0.4963911067285931,-0.05227033383992185,-0.9565855255020445
6.843469357967629,0.41047550442209246,-0.0618361890949423,-0.8795197251929325
6.8475741130118495,0.3250871302103048,-0.07063138634687162,-0.8030913383355983
6.850824984313952,0.2402136066535883,-0.0786622997302276,-0.7272200644157351
6.853227120380488,0.15583038590926962,-0.08593450037438495,-0.6518070954526527
6.854785424239581,0.07190370360878137,-0.09245257132891148,-0.5767398289909355
6.855504461275669,-0.01160714280827671,-0.09821996961882083,-0.5018956410671338
6.855388389847587,-0.09474804939776905,-0.10323892602949217,-0.4271449160995955
6.854440909353609,-0.17756877183316938,-0.10751037519048812,-0.35235350345752114
6.852665221635277,-0.26012189642659034,-0.11103391022506333,-0.2773847464326756
6.850064002671012,-0.34246202392574504,-0.11380775768939008,-0.20210120974454682
6.846639382431754,-0.4246450842771353,-0.11582876978683555,-0.12636621708558415
6.842392931588983,-0.5067277072641003,-0.1170924319576914,-0.05004530070801458
6.837325654516342,-0.5887665770449815,-0.11759288496477154,0.026992339329448167
6.8314379887458925,-0.6708176981351055,-0.11732296157147705,0.10487226791097147
6.824729811764541,-0.7529354962654294,-0.11627423889236733,0.18371303539729067
6.817200456801887,-0.8351716697385014,-0.11443710853839442,0.26362407063541604
6.8088487401045015,-0.9175736953072302,-0.11180086783204027,0.34470311471569903
6.799673003151429,-1.0001828772094146,-0.10835383668488328,0.4270330420099452
6.789671174379334,-1.0830318089945035,-0.10408350626478383,0.510677888277155
6.778840856289389,-1.1661410958145808,-0.09897672738201227,0.5956778748084066
6.7671794453312435,-1.2495151613702116,-0.0930199486339282,0.6820431848012661
6.754684293717541,-1.333136941538386,-0.08619951678591554,0.7697462174717565
6.7413529243021575,-1.4169612509136984,-0.07850205461119798,0.8587120240271761
6.727183311793021,-1.5009066074778257,-0.06991493437092622,0.9488066294866008
6.712174245718242,-1.5848453276207264,-0.06042686807606021,1.0398229842149127
6.696325792442035,-1.6685917784869952,-0.050028638233911085,1.1314643968176605
6.679639874657165,-1.751888824656187,-0.03871399426573448,1.2233255146248538
6.662120986410604,-1.8343927668845201,-0.026480739119485938,1.3148712892880456
6.643777058741758,-1.9156574820331227,-0.013332026226605481,1.4054149493273493
6.624620483921427,-1.995119070288853,0.0007221232666680122,1.494096847754732
6.604669293218538,-2.072083107898947,0.015663091744215332,1.5798671741440717
6.583948462139548,-2.145717540668528,0.03146176348565605,1.6614768450888
6.562491286732863,-2.215055177896285,0.04807653193654404,1.7374821915654903
6.5403407349539,-2.2790103460503564,0.06545135385219894,1.8062699044308264
6.517550631493396,-2.3364140566159994,0.08351405289650721,1.8661084016730103
6.494186490927236,-2.3860704655075717,0.10217513691323732,1.9152295404770556
6.47032578627216,-2.4268340275722697,0.12132743231800788,1.9519398130575327
6.446057445996438,-2.457701678118247,0.1408468304485832,1.9747529768089829
6.421480429215255,-2.4779086082817035,0.16059436021667303,1.9825278946950171
6.396701343132438,-2.4870117111525585,0.1804196391636232,1.9745889828777552
6.3718312260209125,-2.4849438993708253,0.20016552899240075,1.9508053868896713
6.346981787027204,-2.4720267148189494,0.21967358286129746,1.9116109384577722
6.322261519879015,-2.448937387115,0.23878969224587518,1.8579592764950774
6.297772146007865,-2.4166369093614244,0.25736928501082595,1.7912232475966194
6.27360577691425,-2.376273954655257,0.27528151748679214,1.7130594234715466
6.249843037367698,-2.3290827549118567,0.2924121117215076,1.6252633188409031
6.226552209818579,-2.276290995937355,0.30866474490991663,1.5296380640454323
6.2037892998592055,-2.219048151376141,0.32396112555037093,1.427891403339525
6.181598818345444,-2.1583781515962484,0.3382400395837662,1.3215667065966894
6.160015036829481,-2.0951549941525065,0.3514557066497331,1.2120062092957566
6.139063486887956,-2.030096791432116,0.36357576874269065,1.1003402721544842
6.118762518973635,-1.9637727086236205,0.37457917146423547,0.9874949365605693
6.099124791887399,-1.8966176219013808,0.38445412082984115,0.8742105404204842
6.080158615668386,-1.828950402815292,0.393196226234046,0.7610656424574148
6.061869111640233,-1.7609929710287648,0.40080688265862013,0.6485022228687027
6.044259181929945,-1.6928883501147443,0.40729190488730715,0.5368496555321847
6.027330298428797,-1.6247167934973539,0.412660401442629,0.42634611496429636
6.011083130493824,-1.5565096155804334,0.416923862592272,0.317156881524791
5.995518034338019,-1.4882607132973082,0.42009543140751987,0.2093895045976053
5.980635427205046,-1.419935955123065,0.42218932645349594,0.10310605779243
5.966436067653815,-1.3514807014130632,0.42322038703142023,-0.001667153144748565
5.952921260639684,-1.2828257428173873,0.42320371549997277,-0.10493203279782444
5.94009300321151,-1.2138919310513878,0.42215439517199455,-0.206712906225837
5.927954083900996,-1.1445937469264857,0.4200872661097362,-0.3070521528662295
5.916508146431731,-1.074842015377499,0.4170167445810739,-0.4060069679551461
5.905759726277956,-1.0045459424678642,0.41295667490152244,-0.5036470030113445
5.895714266853277,-0.9336146181328149,0.407920204871409,-0.6000526803486537
5.886378120671949,-0.861958102031373,0.40191967806792245,-0.6953140137133492
5.877758539651635,-0.7894881886203773,0.39496653793078895,-0.7895297974783452
5.869863657765432,-0.7161189312501238,0.3870712399560055,-0.8828070505483535
5.86270246845293,-0.6417669933431209,0.378243169450522,-0.9752606186835776
5.856284798519499,-0.5663518871824427,0.36849056326368623,-1.0670128507912724
5.850621279647674,-0.489796157227105,0.3578204347557735,-1.1581932711937397
5.845723318075403,-0.41202556506258686,0.3462385020438361,-1.2489381710796823
5.8416030624247774,-0.3329693371418434,0.3337491203330393,-1.3393900381509627
5.838273369053359,-0.25256054463489686,0.32035521995152966,-1.4296967334732156
5.835747763607009,-0.17073669745486664,0.3060582526167975,-1.5200103080106364
5.83404039663246,-0.08744065254717448,0.2908581495366911,-1.6104853272554602
5.8331659901069886,-0.0026219606834123055,0.27475329626413647,-1.7012765394632998
5.833139770500154,0.0837611927294039,0.2577405308695035,-1.7925356798125591
5.833977382427449,0.1717392580007163,0.2398151740713779,-1.8844071478946405
5.835694775007456,0.26132755992919005,0.2209711025924315,-1.9770222283583547
5.838308050606748,0.3525212061302365,0.20120088030884795,-2.070491444598904
5.84183326266805,0.44528830409013104,0.1804959658628589,-2.1648945461067743
5.846286145708952,0.5395610643684482,0.15884702040179116,-2.2602675395220406
5.851681756352636,0.6352243182332256,0.13624434500657076,-2.356586098393252
5.858033999534968,0.7321009642167307,0.11267848402263825,-2.4537446582719795
5.865355009177136,0.829933918095013,0.08814103743991845,-2.55153057520164
5.873654348358086,0.9283643352331101,0.06262573168790206,-2.6495929810456613
5.882937991710417,1.0269062912891933,0.036129801877445446,-2.7474065315393035
5.893207054623309,1.1249188622607624,0.008655736562052409,-2.844231274344725
5.9044562432459164,1.221577764019758,-0.01978657618139484,-2.9390715435335144
5.916672020886114,1.3158504836439024,-0.049177291616729985,-3.0306392429543063
5.929830525722553,1.4064811108451452,-0.07948368404627304,-3.11733005378513
5.943895336831005,1.4919935071126489,-0.11065698458412435,-3.1972245140262863
5.9588152719021314,1.5707231869346177,-0.1426292297243872,-3.268128403073406
5.974522503771477,1.6408878898181896,-0.17531051375512127,-3.327666424810299
5.990931382669659,1.7007025083560112,-0.20858717800322427,-3.373437327743803
6.007938407753219,1.7485345550282043,-0.2423215512806623,-3.4032255672973255
6.025423753303501,1.783082477587648,-0.27635380695363554,-3.41524544859352
6.043254578079377,1.803544996010111,-0.3105062614395707,-3.40837408224537
6.061290028039479,1.809742243018585,-0.3445900022620244,-3.3823191527681216
6.079387450469665,1.8021553115548499,-0.3784131937897056,-3.337675414785507
6.097409003585213,1.781870705336413,-0.4117899479375607,-3.275851202771864
6.115227710638577,1.7504428812293404,-0.4445484599652793,-3.198883003050446
6.13273213945087,1.7097096165443912,-0.47653728999578376,-3.1091857648395447
6.1498292356163144,1.6616022847894671,-0.5076291476441792,-3.009296643361652
6.1664452584642095,1.6079855387484616,-0.5377221140777957,-2.9016593091040397
6.182525113851694,1.5505449172846166,-0.5667387071688361,-2.7884739061727193
6.198030563024541,1.4907248472298094,-0.5946234462305633,-2.671615712383644
6.212937811496839,1.4297087415029772,-0.6213396033543997,-2.552610865064407
6.227234898911869,1.3684284985878057,-0.6468657120050438,-2.4326516230751203
6.240919183897747,1.307591039358214,-0.671192228235795,-2.312634218551177
6.253995094291329,1.2477122143109194,-0.6943185704213068,-2.193206139315086
6.266472216434439,1.189151643267724,-0.7162506318144577,-2.074814152683297
6.278363732867116,1.132144822359312,-0.7369987733412907,-1.957748188516689
6.289685181090709,1.0768308247110552,-0.7565762552264576,-1.842178913318644
6.300453489337819,1.023275172409552,-0.774998044359644,-1.7281885166089737
6.310686241061915,0.9714881457903563,-0.7922799295257338,-1.6157951478292716
6.320401122519819,0.921439111177373,-0.8084378810040265,-1.5049718505919671
6.329615513631593,0.8730675410886467,-0.8234875995099461,-1.3956609499744095
6.338346189042479,0.8262913757276322,-0.8374442090096902,-1.2877848005099286
6.346609102799755,0.7810132960576412,-0.8503220570147895,-1.1812536855798237
6.354419235760331,0.7371253837501919,-0.8621345938705877,-1.0759715226354845
6.361790489597833,0.6945125507810521,-0.8728943090969425,-0.9718398982143174
6.368735615105644,0.6530550398295855,-0.8826127080790858,-0.868760842860087
6.375266165503939,0.6126302285268882,-0.8913003165076866,-0.7666386618409846
6.381392467789208,0.5731139156975543,-0.8989667031260964,-0.6653810621653803
6.387123606946184,0.5343812244889082,-0.9056205137477502,-0.5648997574057619
6.392467419191073,0.4963072237376945,-0.9112695113218078,-0.46511068640159603
6.39743049142845,0.4587673431928711,-0.9159206181858237,-0.36593394729812845
6.402018164860379,0.42163763863034487,-0.919579957658805,-0.2672935222281252
6.406234541246682,0.38479494808157383,-0.9222528928810863,-0.16911684831519447
6.410082490727498,0.34811696924936786,-0.9239440613642382,-0.0713342760271248
6.4135636604199915,0.31148227983970317,-0.9246574041245095,0.0261215549628198
6.416678483218388,0.2747703163383906,-0.9243961885748813,0.123316400253492
6.419426186381772,0.2378613222095582,-0.9231630245723463,0.22031513920408485
6.421804799603867,0.20063627322274125,-0.9209598731803055,0.3171825352548606
6.4238111623360945,0.1629767853642187,-0.9177880478277569,0.41398401873960244
6.425440930189737,0.12476500937720451,-0.9136482076403609,0.5107864846205737
6.426688580283509,0.08588351529556523,-0.9085403427941552,0.607659098434219
6.4275474154364645,0.04621517033919365,-0.902463751809813,0.7046741037474467
6.428009567139856,0.005643014236075147,-0.8954170107723385,0.8019076235799367
6.428065997282217,-0.035949862504450265,-0.8873979345365391,0.8994404464569787
6.427706498657172,-0.07868042948616308,-0.8784035300719694,0.9973587848399438
6.426919694362311,-0.12266580514149411,-0.86842994222357,1.09575498935128
6.4256930363108955,-0.16802330703883514,-0.8574723923300571,1.1947281960489118
6.424012803240507,-0.21487044082245077,-0.845525110369568,1.2943848754219929
6.421864098832283,-0.26332479565994205,-0.8325812616153481,1.3948392399657994
6.4192308508756835,-0.3135038016763194,-0.8186328692156901,1.4962134510494283
6.41609581285892,-0.3655242881688323,-0.8036707347051958,1.5986375438431721
6.412440569977232,-0.4195017590271318,-0.7876843592667641,1.70224895937217
6.40824555238696,-0.47554927191682816,-0.7706618696730424,1.8071915327621701
6.403490059667792,-0.5337757681156413,-0.7525899543454206,1.9136137331818135
6.398152301986635,-0.5942836475757727,-0.7334538170136025,2.02166587981038
6.392209465510877,-0.6571653154816028,-0.7132371582154987,2.131495964556679
6.3856378123560615,-0.7224983386746126,-0.6919221985699319,2.243243590942329
6.378412828969315,-0.7903387395935664,-0.6694897626605085,2.3570313846188258
6.37050944157338,-0.8607118203396993,-0.6459194488143203,2.472953041692695
6.361902323369983,-0.9335997530905291,-0.6211899183973933,2.591056959543774
6.352566325839078,-1.008925007737002,-0.5952793488019557,2.7113241569660294
6.342477075761708,-1.0865285436578096,-0.5681661072322953,2.8336389765147887
6.331611790325129,-1.1661416320320472,-0.5398297174671475,2.9577509556850474
6.319950374004809,-1.247350311963506,-0.510252207910297,3.0832264103760108
6.307476870885174,-1.3295520092150057,-0.4794199438065369,3.209388956846626
6.294181350793024,-1.411905051813029,-0.44732605423807065,3.3352498098231727
6.280062300274894,-1.4932740898182473,-0.41397355613983894,3.4594317741476597
6.265129559376711,-1.5721781698821031,-0.37937923839836235,3.580095961766047
6.24940777767789,-1.646753601439129,-0.3435782787807019,3.694887671330609
6.232940241663498,-1.7147502181470953,-0.3066294020673958,3.8009268123009115
6.215792739482027,-1.7735851329391956,-0.26862013394438666,3.894875929529611
6.198056888152635,-1.82047842915047,-0.22967137464909054,3.9731195299482414
6.179852103861131,-1.8526846185810688,-0.18994017934960813,4.032074002282865
6.16132525767532,-1.8678077778208064,-0.14961943932677949,4.068611911900157
6.142647179897112,-1.8641500626980505,-0.1089333202077779,4.080531984829776
6.124005679270131,-1.8410082149378806,-0.06812800035948015,4.0669579567012635
6.105595597120752,-1.7988248254572605,-0.027458420792467512,4.028538924706719
6.08760734886618,-1.7391366876870107,0.012826968454599685,3.9673731031985766
6.07021598198931,-1.6643311728204297,0.05250069948658545,3.8866713301944453
6.053572670261105,-1.577287115379686,0.0913674127885299,3.790266336009537
6.037799799107308,-1.4810036566643372,0.1292700761486253,3.682109803996016
6.022989762540664,-1.3783010152953947,0.16609117418858546,3.5658713608270536
6.00920675238771,-1.2716321892213558,0.201749887796856,3.4446912224844977
5.996490430495497,-1.1630022400044964,0.23619680002170096,3.3210801218502466
5.984860408095452,-1.0539678179981438,0.2694076012402034,3.1969277714743356
5.974320729915471,-0.945684218398733,0.30137687895494675,3.073574444851356
5.964863887731483,-0.8389729734891251,0.3321126234034603,2.9519086570480697
5.956474157996592,-0.7343921846356635,0.361631709973941,2.8324668610865706
5.949130236150236,-0.6323000251553383,0.3899563785848067,2.7155224719596003
5.942807235898682,-0.5329075792907574,0.4171116033044027,2.6011593753166804
5.9374781601057744,-0.4363205307661636,0.44312319705756953,2.489329591573728
5.933114954798113,-0.3425708445686591,0.46801649297330683,2.3798969105385224
5.929689246352426,-0.2516401711398877,0.49181546207869203,2.272669033194991
5.927172844641027,-0.16347673704083493,0.5145421524106419,2.167420741397152
5.925538077270619,-0.07800727715405802,0.5362163598246135,2.0639102837117336
5.924758004499078,0.004854720986635669,0.5568554626617308,1.9618907444354767
5.9248065517089445,0.08520346854785285,0.5764743701060856,1.8611177610699574
5.925658586394423,0.16313726976472354,0.5950855477167851,1.7613546149869275
5.927289959092071,0.23875629927856562,0.6126990938666544,1.6623754491519585
5.929677522084856,0.31216135119231636,0.629322848358174,1.563967159536794
5.932799135596779,0.3834532606453256,0.6449625199535419,1.4659303522729623
5.936633668203233,0.45273278170061476,0.6596218234762715,1.3680796453097768
5.941160996020239,0.5201007661303576,0.6733026199293692,1.2702435113788595
5.946362003681542,0.5856585318891901,0.6860050550431578,1.1722638003873607
5.9522185890004335,0.6495083420415113,0.6977276930470314,1.0739950377540506
5.958713672420848,0.7117539379433845,0.7084676434245719,0.9753035660129139
5.965831211800282,0.7725010869924616,0.718220679084701,0.8760665768192591
5.973556222670206,0.83185811700248,0.7269813448528936,0.7761710668315545
5.981874803840231,0.8899364174780711,0.7347430555212091,0.6755127420479373
5.990774168015012,0.9468508936261975,0.7414981829416885,0.5739948898214342
6.000242676951274,1.0027203624205698,0.7472381318399028,0.4715272351345754
6.010269880575479,1.0576678817916012,0.7519534041912486,0.3680247972623938
6.020846559393395,1.1118210042261591,0.7556336521638725,0.2634067644197702
6.031964769435657,1.165311944756442,0.7582677198080702,0.1575954073130043
6.0436178888832215,1.2182776503831718,0.7598436738812002,0.05051505783131638
6.0558006653870535,1.2708597531597852,0.7603488244595134,-0.05790881324285688
6.068509262918651,1.323204382049212,0.7597697363270848,-0.16775037509873167
6.0817413067391435,1.3754617986578406,0.7580922325760975,-0.2790840137050036
