th1 (rad),w1 (rad/s),th2 (rad),w2 (rad/s)
3.3777674100065087,-2.281381489927031,2.1193197808702724,2.4101882612660965
3.3549535951072382,-2.2808258868093154,2.1434216634829335,2.3759232735281755
3.332145336239145,-2.280563229402593,2.1671808962182153,2.3421641342924873
3.309339703945119,-2.280635669927789,2.19060253756114,2.308895474933925
3.2865333472458413,-2.2810905662205943,2.2136914923104793,2.2761113215285986
3.2637224415836354,-2.2819811839023827,2.2364526055257654,2.243815928819877
3.2409026297446117,-2.2833674449070545,2.2588907648139642,2.2120246575857108
3.218068955295541,-2.2853167020869147,2.2810110113898214,2.1807648738558894
3.195215788274672,-2.2879045127518878,2.30281866012838,2.1500768357633375
3.172336743147153,-2.2912153750120803,2.324319428486014,2.1200145186499846
3.1494245893970323,-2.295343379620878,2.345519573672514,2.090646311123205
3.1264711556008233,-2.3003927167120395,2.366426036783746,2.0620554940380136
3.103467228433703,-2.306477961670431,2.387046591724126,2.034340391180835
3.0804024488169985,-2.3137240479951253,2.4073899956359344,2.007614055589936
3.0572652083370473,-2.3222658185164446,2.4274661361918337,1.9820033305295395
3.0340425501518826,-2.3322470314822343,2.4472861694971293,1.957647101670528
3.01072007983706,-2.3438186874328277,2.4668626405138347,1.9346935407726615
2.987281892962732,-2.3571365400275472,2.486209575921561,1.9132961363089076
2.9637105275624567,-2.3723576637305674,2.5053425372846503,1.8936083197853122
2.939986950925151,-2.3896359791754507,2.5242786204825034,1.875776536214486
2.9160905911333965,-2.4091166894194185,2.543036385844648,1.85993168247042
2.891999424239202,-2.430929663326642,2.5616357026693524,1.846178957043363
2.8676901276059357,-2.4551819205259764,2.580097492239786,1.8345863356643262
2.843138308400676,-2.481949526428002,2.5984433555964292,1.8251721104291954
2.8183188131363957,-2.511269389340157,2.6166950767007213,1.8178921964413328
2.7932061192429942,-2.543131647960773,2.634873998665135,1.8126281955154766
2.7677748027633866,-2.577473516155951,2.6530002806202897,1.8091774676576302
2.7420000676018272,-2.614175568546581,2.671092055296866,1.807246634093523
2.7158583119163615,-2.653061450849716,2.6891645216378013,1.8064499425637992
2.6893276974078644,-2.6939018304324316,2.7072290210634393,1.8063136903751684
2.66238867910354,-2.7364230327033283,2.725292157967191,1.806287375949488
2.6350244487765067,-2.780320248036607,2.743355031726686,1.805761448850566
2.6072212462961404,-2.8252745121580656,2.7614126462151916,1.8040905507680782
2.57896850117456,-2.870971990827878,2.7794535517228725,1.8006201714087235
2.550258781266281,-2.9171236020587568,2.79745975343696,1.794713919225837
2.5210875452456936,-2.963482834940674,2.8154068926292184,1.7857783414231274
2.491452716896287,-3.0098598490223356,2.8332646760434494,1.77328253125707
2.4613541184060637,-3.0561305268247154,2.8509975013560203,1.7567705863365797
2.4307928131378165,-3.102239962535777,2.868565207219386,1.7358661301263547
2.3997704135124587,-3.148200701952095,2.8859238685206496,1.7102692964854007
2.3682884064929377,-3.1940867138503375,2.9030265614855035,1.6797475352464017
2.3363475393544344,-3.2400244539612126,2.9198240368379675,1.644122156801005
2.3039472948148223,-3.286182457544118,2.9362652584059776,1.6032526612640083
2.271085470239381,-3.3327607235937258,2.952297785018618,1.5570206733885326
2.2377578630034436,-3.3799808334864494,2.9678679917525033,1.5053148691200615
2.203958054668579,-3.4280773817892527,2.982921140443704,1.4480177783991761
2.1696772808506863,-3.4772909641461194,2.9974013182276957,1.3849948915662222
2.1349043712092253,-3.5278627089584176,3.011251267143358,1.3160861447103365
2.099625744119641,-3.5800301674555186,3.0244121285904613,1.2410996302016057
2.063825442445086,-3.6340242816858224,3.0368231248924773,1.1598072609512182
2.0274851996282277,-3.690067113235347,3.0484211975019897,1.0719420851586303
1.9905845284958743,-3.748370016775849,3.059140618353576,0.9771969742777555
1.9531008283281157,-3.8091319645044033,3.0689125880963535,0.8752244663335113
1.9150095086830716,-3.872537757532956,3.0776648327596887,0.7656376214760541
1.876284131107742,-3.93875589040183,3.0853212089744493,0.6480118248829408
1.8368965722037238,-4.007935861084704,3.0918013272232785,0.5218875468098085
1.7968172135928768,-4.080204739930764,3.0970202026913767,0.38677413702433217
1.7560151661935692,-4.15566282770359,3.10088794406162,0.24215478911300264
1.7144585379165334,-4.234378247256537,3.10330949195275,0.08749285794249725
1.672114755443968,-4.316380328307339,3.104184420532175,-0.07776025058143571
1.6289509521608945,-4.401651663695983,3.1034068180263605,-0.25415537656879594
1.5849344355239345,-4.4901187422884545,3.1008652642606727,-0.4422338446734919
1.54003324810105,-4.581641102419752,3.0964429258139377,-0.6425134158205135
1.4942168370768525,-4.6759990045585464,3.0900177916557325,-0.8554717675224065
1.447456847031267,-4.772879696495485,3.0814630739805087,-1.081527393925852
1.399728050066312,-4.871862441748153,3.0706478000412503,-1.321017929710387
1.3510094256488305,-4.97240260348786,3.0574376207441465,-1.5741760559183895
1.301285399613952,-5.0738152213067655,3.0416958601849626,-1.8411033417531377
1.2505472474008843,-5.175258682675251,3.0232848267674313,-2.121742611198092
1.1987946605741318,-5.27571926740699,3.0020674006554504,-2.4158496883637604
1.1460374679000618,-5.373997520325366,2.9779089037718127,-2.7229656558576436
1.092297492696808,-5.468697569516989,2.950679247213236,-3.0423910351845165
1.0376105170016383,-5.558220637576475,2.920255336861391,-3.3731635416296375
0.9820283106258736,-5.640764073122549,2.8865237014450944,-3.7140412511593697
0.9256206698946481,-5.714327243462021,2.8493832889335007,-4.0634931192801975
0.8684773974600278,-5.776725564272941,2.808748357740699,-4.419698794574008
0.8107101418172984,-5.825613790735968,2.7645513697949586,-4.780559566463834
0.7524540039099387,-5.858519451762712,2.7167457741303203,-5.143722082146117
0.6938688093923115,-5.872886968806102,2.665308553308859,-5.5066161724561375
0.6351399397042505,-5.866132550331841,2.610242391584298,-5.866507749148303
0.5764786142009322,-5.835709368041559,2.551577314092815,-6.220567271611509
0.5181215205205165,-5.779181765940606,2.4893716413767,-6.565953702649753
0.46032970286111047,-5.6943062916910705,2.4237121043502023,-6.899913133540455
0.40338663994419977,-5.579116155471902,2.3547129730147978,-7.219890307649495
0.34759547838948074,-5.432004351700919,2.2825140699383026,-7.523650090025912
0.29327543487247154,-5.251799246667829,2.2072775690380437,-7.809404575375909
0.24075744240579325,-5.037825168943879,2.1291835232842846,-8.075940175741597
0.19037919071635445,-4.78993975888717,2.048424121526869,-8.322737994104813
0.14247979312748274,-4.508539887204372,1.9651967415858207,-8.550080484593302
0.09739439425543903,-4.194529110406907,1.8796959367398878,-8.759138247544481
0.05544910315136996,-3.8492419578315658,1.792104554264443,-8.952033107009866
0.0169566835730543,-3.4743236036103755,1.7025842231943442,-9.13187740684065
-0.017786552463049457,-3.071567120522046,1.6112654491259377,-9.302794433117187
-0.04850222366826992,-2.6427138059264323,1.5182375047947658,-9.469930383860303
-0.07492936172753425,-2.1892243503092312,1.4235382009561628,-9.639473463445599
-0.09682160523062656,-1.7120296839736302,1.3271434663217068,-9.818699357128637
-0.11394190207036287,-1.211270997591503,1.2289564727504203,-10.016062927528912
-0.1260546120462779,-0.6860414650599391,1.1287958434751313,-10.241350292294069
-0.1329150266968773,-0.13415443878692246,1.0263823405521906,-10.505885786573453
-0.13425657108474653,0.4479996646927459,0.921323482686456,-10.822735067344817
-0.12977657443781906,1.065345311128095,0.8130961320130079,-11.206709464293425
-0.11912312132653811,1.7233492788052351,0.7010290373700736,-11.673637906107754
-0.10188962853848577,2.425575620322549,0.584292658308996,-12.237561533233173
-0.07763387233526027,3.1672780248097254,0.4619170429766643,-12.902729174313372
-0.045961092087163015,3.920622617182369,0.3328897512335306,-13.64426610043699
-0.006754865915339324,4.60686895560974,0.19644709022916068,-14.370726047039282
0.039313823640758076,5.066906948248334,0.05273982975876787,-14.883257048501976
0.08998289312324143,5.097549292692522,-0.0960927407262519,-14.922509567160404
0.14095838605016664,4.627569811354137,-0.24531783639785595,-14.403167122800662
0.18723408416370801,3.8342919323526417,-0.38934950762586257,-13.563861536939516
0.22557700348723442,2.957141214429478,-0.5249881229952578,-12.711171495168491
0.2551484156315292,2.1208057598077565,-0.6520998379469427,-11.990795243206495
0.27635647322960677,1.3552895754564749,-0.7720077903790077,-11.42439532959017
0.2899093689841715,0.6547775704858146,-0.8862517436749094,-10.99056704601471
0.2964571446890297,0.00590950672178836,-0.9961574141350565,-10.661216695519455
0.2965162397562476,-0.603449868201497,-1.1027695810902511,-10.411621455358155
0.29048174107423264,-1.1823423824699957,-1.2068857956438328,-10.221772166217324
0.27865831724953266,-1.7367891118288596,-1.309103517306006,-10.075572539021742
0.2612904261312441,-2.2702763128029377,-1.4098592426962233,-9.95979952916079
0.2385876630032147,-2.7842499320254213,-1.5094572379878313,-9.863276138221142
0.2107451636829605,-3.2785433475635037,-1.6080899993700426,-9.77630928028381
0.17795973020732547,-3.7517483560269,-1.7058530921728807,-9.69035194651005
0.14044224664705646,-4.201552708220043,-1.8027566116379812,-9.597835919378964
0.09842671956485602,-4.625060614974135,-1.898734970831771,-9.492125454578808
0.05217611341511467,-5.01910142472506,-1.993656225377559,-9.36754787121382
0.001985099167864074,-5.380521434663624,-2.087331704089697,-9.219461692628986
-0.05182011517877217,-5.706446812871787,-2.1795263210159868,-9.04432811459546
-0.10888458330749004,-5.994502980256632,-2.2699696021619413,-8.839758533441346
-0.16882961311005637,-6.242977665772249,-2.3583671874963548,-8.60452001763765
-0.23125938976777885,-6.450920317736281,-2.444412387672731,-8.33849108222348
-0.2957685929451417,-6.618177893145439,-2.5277972984949657,-8.04257018246709
-0.36195037187659607,-6.7453741831743015,-2.6082230003196365,-7.7185470924009545
-0.4294041137083391,-6.833845006545664,-2.685408471243646,-7.368951492194945
-0.4977425637737957,-6.885543870706877,-2.7590979861655955,-6.996893423091489
-0.5665980024808644,-6.902932094670678,-2.8290669203965106,-6.605907579443681
-0.6356273234275712,-6.888864704768747,-2.8951259961909472,-6.1998091242712965
-0.7045159704752587,-6.846479802732708,-2.95712408743366,-5.782564348400199
-0.7729807685025858,-6.779095638121638,-3.014949730917662,-5.358176180114353
-0.8407717248838021,-6.690117013547689,-3.0685314927188054,-4.930582829894951
-0.9076728950192791,-6.582951185091649,-3.117837321017755,-4.503567674084187
-0.9735024068701955,-6.460932982118437,-3.1628729977585968,-4.080679378369664
-1.03811173669138,-6.327259113444297,-3.203679791542293,-3.6651625925495286
-1.1013843278258229,-6.184932129099843,-3.2403314174677886,-3.2599007048255846
-1.1632336491168214,-6.036714906885219,-3.2729304245160447,-2.867372709588838
-1.2236007981856736,-5.885096609307657,-3.301604151611933,-2.4896260586792223
-1.28245176427875,-5.732270751820334,-3.326500412198725,-2.1282665192927346
-1.3397744717969533,-5.580125417417878,-3.3477830773916524,-1.7844648097029485
-1.395575725971132,-5.430244905939464,-3.365627725488682,-1.4589784509235635
-1.4498781750305267,-5.283921395188881,-3.3802175099979177,-1.1521861500782815
-1.5027173889824155,-5.142174655373952,-3.3917393714987005,-0.8641313117259259
-1.554139135536155,-5.005777574345766,-3.4003806846159597,-0.594571025394881
-1.6041969112796126,-4.87528522751525,-3.4063263948699083,-0.3430270608642753
-1.6529497635547652,-4.751065420325424,-3.409756665478551,-0.1088359059790397
-1.7004604177580194,-4.6333289719218715,-3.4108450245383417,0.10880443375117516
-1.7467937074772382,-4.522158419980808,-3.40975698020083,0.31079241908466115
-1.7920152916770462,-4.417534243114311,-3.4066490560099836,0.4980866032975286
-1.8361906341081893,-4.319358072380833,-3.4016681899770083,0.6716751837648534
-1.8793842148319977,-4.227472670881292,-3.3949514381393597,0.8325513235196378
-1.9216589415408105,-4.141678691016563,-3.3866259249041635,0.9816937863538895
-1.963075728450976,-4.061748375649892,-3.3768089870406244,1.120052248286171
-2.003693212207475,-3.9874364621717304,-3.365608464557763,1.2485365628495746
-2.0435675768291923,-3.9184885902973017,-3.353123098929267,1.3680092411184106
-2.082752462732165,-3.854647518488417,-3.339443006518083,1.4792804356035059
-2.1212989379170493,-3.795657431881995,-3.324650202162048,1.5831047704571353
-2.159255512235869,-3.741266586139996,-3.3088191544574768,1.6801794242462877
-2.196668178097269,-3.6912284842665892,-3.292017360215014,1.771142936192768
-2.233580462939935,-3.645301733153534,-3.274305930853086,1.856574267052199
-2.2700334802714703,-3.6032486786032654,-3.255740188182564,1.9369917006975117
-2.3060659670575028,-3.5648328772305593,-3.236370271175589,2.012851225151692
-2.3417142958298083,-3.529815437732026,-3.216241758924072,2.0845440900819145
-2.3770124502071286,-3.4979502620213623,-3.195396318023253,2.1523933149636885
-2.4119919528273424,-3.468978252150619,-3.1738723848736163,2.2166490382365005
-2.4466817353488484,-3.4426206401063864,-3.1517058944912515,2.2774827800816366
-2.4811079417499124,-3.418571767038729,-3.128931066690435,2.33498097329266
-2.5152936594203,-3.3964919091732644,-3.1055812569575085,2.389138531782756
-2.5492585785120325,-3.376001133059144,-3.0816898716396808,2.4398537946518264
-2.583018589842624,-3.356675648091999,-3.0572913336931626,2.4869268851415463
-2.6165853463235442,-3.3380486369863602,-3.032422064841747,2.5300642562892053
-2.649965832693408,-3.3196179205574374,-3.007121422278855,2.5688927265882464
-2.683162011898982,-3.3008627749339055,-2.9814324950129727,2.602986249055186
-2.716170639648321,-3.2812714104739302,-2.955402632522421,2.6319075036616417
-2.74898335375306,-3.260378739986751,-2.9290835574858045,2.6552637326833683
-2.7815871411529276,-3.237811115507941,-2.902530920158971,2.6727720653449856
-2.813965252308007,-3.2133313003652124,-2.875803199505521,2.6843247602358735
-2.8460985653116593,-3.1868743542839977,-2.8489599519031623,2.6900411563750257
-2.8779673088544993,-3.158564925344952,-2.822059540339412,2.6902929023096505
-2.9095529581079487,-3.1287096379278516,-2.7951566113163158,2.6856935977387173
-2.9408400544872273,-3.0977642900942097,-2.7682996753389286,2.6770525433370405
-2.9718176973881696,-3.066282238191065,-2.741529149905558,2.6653017431698847
-3.00248051977008,-3.034854893525494,-2.7148761324738593,2.6514117332466927
-3.032829068705335,-3.004055968274349,-2.6883620151413923,2.636312791393444
-3.0628696283880785,-2.974398223576205,-2.661998887227458,2.6208339634074935
-3.0926136106238404,-2.9463067673203214,-2.6357905475933827,2.6056656414137414
-3.1220766782970437,-2.9201084894853593,-2.6097338911792454,2.591345086403902
-3.151277763191897,-2.896034316378719,-2.5838204403152063,2.5782601529873057
-3.1802381063556844,-2.8742298739232868,-2.5580378387853333,2.566664921778949
-3.208980405094917,-2.854770424314379,-2.532371189567544,2.5567013342726717
-3.237528109338061,-2.8376769135735587,-2.506804176224817,2.548422309638098
-3.2659048784737967,-2.8229310938197543,-2.4813199531284362,2.5418134264009677
-3.294134189411994,-2.8104886502180664,-2.4559018188644264,2.5368116284687288
-3.3222390759141747,-2.800289955885518,-2.430533702579739,2.5333204034935215
-3.35024197547303,-2.7922685069313675,-2.405200498544804,2.5312214934390416
-3.3781646605423434,-2.7863573138107727,-2.3798882836104136,2.5303835167068143
-3.406028233680451,-2.782493611909306,-2.3545844484433456,2.530668004339867
-3.4338531697995442,-2.780622260002444,-2.329277768399947,2.531933359707808
-3.461659392399569,-2.7806981597629594,-2.303958434802869,2.534037198466113
-3.4894663739971983,-2.782687977908957,-2.278618062818208,2.536837449360164
-3.517293253776288,-2.7865713990778542,-2.253249688324606,2.5401925170107034
-3.5451589677670667,-2.792342089069822,-2.227847763154499,2.5439607353763027
-3.573082388657765,-2.8000085073935512,-2.202408155800736,2.547999279245699
-3.6010824737317004,-2.809594675342133,-2.176928163008279,2.55216265167622
-3.629178420485122,-2.821140980202466,-2.1514065364915167,2.5563008270379175
-3.6573898302871464,-2.834705076201419,-2.1258435282211376,2.56025710103182
-3.6857368810491606,-2.850362926753814,-2.1002409572108194,2.5638656796175034
-3.714240510316699,-2.8682100187467996,-2.0746023004146443,2.5669490275510953
-3.742922610504167,-2.8883627661072087,-2.0489328101391333,2.5693149942090043
-3.771806238165239,-2.91096010467377,-2.023239660197043,2.570753740413904
-3.8009158392119766,-2.9361652609765585,-1.997532122792904,2.5710345069942266
-3.830277491821742,-2.964167650862748,-1.9718217777229616,2.5699022969955228
-3.8599191683303697,-2.9951848261105667,-1.9461227547530064,2.567074593613317
-3.8898710165914756,-3.0294643332472897,-1.9204520088168733,2.562238311755044
-3.9201656599239487,-3.067285272404058,-1.894829625699323,2.555047291621578
-3.9508385126479895,-3.10895923745656,-1.8692791527831072,2.545120799138577
-3.981928105022555,-3.154830173029679,-1.8438279447917214,2.532043713750342
-4.013476406752852,-3.2052724901621845,-1.818507507654218,2.515369372843219
-4.045529131654473,-3.2606865337376965,-1.7933538139257859,2.4946264148468864
-4.0781359969918505,-3.321490191302325,-1.768407549777317,2.469331421113741
-4.111350898904874,-3.388105089928435,-1.7437142355661797,2.4390096792929445
-4.145231949804158,-3.460935489231002,-1.7193241387732503,2.4032269155726764
-4.179841304696468,-3.540337736180436,-1.6952918696175234,2.361635236588515
-4.215244682058272,-3.6265781640720562,-1.6716755172516382,2.314036543886252
-4.251510463698993,-3.7197778492636075,-1.6485351518127758,2.2604659545389323
-4.288708242191629,-3.819844033341853,-1.6259304922673865,2.2012957562509996
-4.326906682525047,-3.9263906646822178,-1.6039175347048764,2.1373565466418865
-4.36617058917187,-4.0386546940261425,-1.5825439692384575,2.070066000109041
-4.406557136112132,-4.155420367103138,-1.5618433092373671,2.0015472788923296
-4.448111339783163,-4.274969908539912,-1.541827836448444,1.9347097190396616
-4.490861038868562,-4.395083687594251,-1.5224807392580473,1.8732570262558474
-4.534811875744505,-4.5131131559126745,-1.5037481689954888,1.8215874056160217
-4.579943007303632,-4.626142359216799,-1.4855322949393286,1.7845607880034438
-4.6262044308957995,-4.7312371494156364,-1.4676866870592942,1.7671331893110616
-4.673516802389956,-4.82575766619324,-1.4500153551661836,1.7738941571220561
-4.721774379051888,-4.90768615655541,-1.432276413594963,1.8085799451852371
-4.770851240617442,-4.9759083767686025,-1.4141906141431106,1.873657701519877
-4.820610324385128,-5.030390397635694,-1.3954540371279118,1.9700721044354603
-4.870914228361485,-5.072214755615971,-1.3757533160835573,2.0972129042772765
-4.921636375917645,-5.1034736506091924,-1.3547811870407847,2.2531098001226533
-4.972671112423737,-5.12705039798546,-1.332250089039558,2.434808502847213
-5.023941616403592,-5.1463424589936295,-1.307902004011086,2.6388467145435186
-5.0754050409935285,-5.16498456084904,-1.281513536865651,2.861740541468259
-5.127054886602019,-5.1866202004838,-1.2528961314509683,3.100408637168089
-5.178921088606857,-5.214750772547097,-1.2218920450792874,3.3524928631502298
-5.231068596332328,-5.252671553792215,-1.1883671164477851,3.6165678821359264
-5.2835953118702506,-5.303488752406948,-1.1522014376264258,3.892258432307312
-5.33663019939432,-5.370204349210557,-1.1132788533033526,4.180298236955414
-5.3903322428864255,-5.4558550957871,-1.0714758709337986,4.482569714035977
-5.444890793844297,-5.563696770914566,-1.0266501737934388,4.80216267467041
-5.5005277615534425,-5.697432356812543,-0.9786285470467347,5.143487201845983
-5.557502085121568,-5.861491334725631,-0.9271936750282749,5.512473838045186
-5.616116998468824,-6.061375139426172,-0.872068936647823,5.916893806726887
