th1 (rad),w1 (rad/s),th2 (rad),w2 (rad/s),a1 (rad/s^2),a2 (rad/s^2)
0.058632256504381614,0.9963713694567194,1.9107313264159287,-2.235828979094272,0.4286551472837977,-10.073945525129718
0.06859597019894881,1.0006579209295574,1.888373036624986,-2.336568434345569,0.7294049339913478,-10.100652719543126
0.07860254940824438,1.0079519702694708,1.8650073522815303,-2.4375749615410003,1.0471180654990675,-10.147327553568072
0.08868206911093908,1.0184231509244615,1.8406316026661202,-2.539048237076681,1.3823647306779614,-10.216546649395484
0.0988663006201837,1.032246798231241,1.8152411202953533,-2.641213703570636,1.7359077187996028,-10.311107322092543
0.10918876860249611,1.0496058754192372,1.788828983259647,-2.7443247767915615,2.1087286944513357,-10.434067827093536
0.11968482735668849,1.0706931623637506,1.7613857354917313,-2.848665455062497,2.502056770219145,-10.588793626782941
0.130391758980326,1.095713730065942,1.7328990809411062,-2.9545533913303266,2.917399251868439,-10.779009773041347
0.14134889628098543,1.1248877225846265,1.703353547027803,-3.06234348906074,3.3565740253888023,-11.008859076965425
0.1525977735068317,1.1584534628385146,1.6727301121371956,-3.1724320798303944,3.821742354934832,-11.282964948214763
0.16418230813521686,1.196670886387863,1.6410057913388916,-3.285261729312542,4.315439680648989,-11.606496390106825
0.1761490169990955,1.2398252831943528,1.6081531740457662,-3.4013266932136106,4.840600045814055,-11.9852302326765
0.18854726983103903,1.2882312836524934,1.5741399071136302,-3.5211789955403754,5.400566557075317,-12.425601619820572
0.20142958266756397,1.3422369492232467,1.5389281171582263,-3.645435011738581,5.999074999532485,-12.934726967444288
0.21485195215979644,1.4022276992185716,1.5024737670408406,-3.774782281413024,6.640189109630726,-13.520372328415332
0.22887422915198216,1.468629590314879,1.4647259442267104,-3.9099860046971773,7.32815198568485,-14.190821494039955
0.24356052505513096,1.5419111101717276,1.4256260841797386,-4.0518942196375765,8.06709538143498,-14.954567650316507
0.2589796361568482,1.6225820639860773,1.3851071419833627,-4.201439896140742,8.86051198227362,-15.819702735088427
0.275205456796709,1.7111871838088135,1.3430927430219552,-4.359636923491626,9.710337288586842,-16.792798668644426
0.29231732863479715,1.8082905566946819,1.299496373787039,-4.527564910178071,10.615396086553812,-17.87694822370718
0.31040023420174395,1.91444451756022,1.2542207246852584,-4.706334392415142,11.568829430290194,-19.06843981212661
0.32954467937734616,2.030132811863122,1.207157380761107,-4.897018790536408,12.553919435829533,-20.35126122342407
0.3498460074959774,2.1556720062214176,1.1581871928557428,-5.100531402770649,13.537478907503907,-21.68826990772531
0.37140272755819154,2.291046795296457,1.1071818788280363,-5.317414101847902,14.459749666417817,-23.0075351107871
0.3943131955111561,2.435644291960635,1.0540077378095574,-5.547489452955773,15.21983017433312,-24.182419331417766
0.4186696384307625,2.587842593703966,0.9985328432799996,-5.78931364626995,15.656746383736534,-25.00540665457106
0.44454806436780214,2.7444100575413315,0.9406397068173,-6.039367712815661,15.529912428199674,-25.160610811678968
0.47199216494321544,2.899709181823328,0.8802460296891434,-6.290973820932451,14.511253745215388,-24.21159171286696
0.5009892567614487,3.044821719275482,0.8173362914798189,-6.533089738061121,12.215771606475762,-21.641158516438967
0.5314374739542035,3.16697943534024,0.7520053940992077,-6.749501323225511,8.309783399095705,-16.99724034155898
0.5631072683076059,3.250077269331197,0.6845103808669526,-6.9194737266411,2.7164548450875095,-10.17217335599139
0.5956080410009179,3.277241817782072,0.6153156436005416,-7.021195460201014,-4.155526555397066,-1.7136523056450292
0.6283804591787386,3.2356865522281013,0.5451036889985315,-7.038331983257464,-11.367626030086832,7.117737935860178
0.6607373247010196,3.122010291927233,0.47472036916595683,-6.967154603898862,-17.767630506065444,14.784295257094527
0.691957427620292,2.9443339868665785,0.4050488231269682,-6.819311651327917,-22.511728826141148,20.182956538834745
0.7214007674889578,2.719216698605167,0.336855706613689,-6.617482085939569,-25.37057664307929,23.052454383537142
0.7485929344750094,2.4655109321743742,0.27068088575429333,-6.386957542104198,-26.625399465607842,23.81758922016194
0.7732480437967532,2.199256937518296,0.20681131033325134,-6.1487816499025785,-26.76349679281283,23.16672788657918
0.7952406131719362,1.9316219695901677,0.14532349383422555,-5.917114371036787,-26.24073350980854,21.729779416661692
0.8145568328678379,1.6692146344920824,0.08615235012385768,-5.69981657687017,-25.388462397477458,19.957341360434075
0.8312489792127586,1.415330010517308,0.02915418435515598,-5.500243163265829,-24.413918529155076,18.126844588068025
0.8454022793179318,1.1711908252257572,-0.025848247277502304,-5.3189747173851485,-23.432811998342565,16.390500722576686
0.8571141875701893,0.9368627052423316,-0.07903799445135379,-5.155069710159381,-22.502392033061643,14.822037676645389
0.8664828146226127,0.7118387849117152,-0.1305886915529476,-5.006849333392927,-21.645640637511377,13.450196230465725
0.8736012024717298,0.4953823785366014,-0.18065718488687688,-4.87234737108827,-20.866709871139467,12.27971154577391
0.8785550262570958,0.2867152798252067,-0.22938065859775958,-4.749550255630531,-20.160082589820995,11.303495324557318
0.8814221790553479,0.08511445392699676,-0.2768761611540649,-4.636515302384958,-19.515771541171805,10.509341649530581
0.8822733235946179,-0.1100432614847213,-0.32324131417791446,-4.531421885889652,-18.922174251023083,9.883434485411422
0.8811728909797707,-0.29926500399495215,-0.368555533036811,-4.432587541035538,-18.36759226367357,9.412058772094262
0.8781802409398212,-0.48294092663168786,-0.41288140844716636,-4.338466953314596,-17.84100924633531,9.0823327893221
0.8733508316735042,-0.661351019095041,-0.4562660779803123,-4.247643625421374,-17.332467456755595,8.882424821966865
0.8667373214825539,-0.834675693662597,-0.4987425142345261,-4.158819377201706,-16.8332322983322,8.80151166047746
0.8583905645459279,-1.003008016645919,-0.5403307080065431,-4.0708042605969315,-16.33584884680298,8.829620342914197
0.8483604843794686,-1.1663665051139487,-0.5810387506125124,-3.9825080571677893,-15.834145699727362,8.957429854982518
0.8366968193283292,-1.3247079621112223,-0.6208638311841903,-3.892933758617964,-15.32321432721523,9.176073783303348
0.8234497397072169,-1.4779401053833747,-0.65979316877037,-3.8011730207849306,-14.799377070371028,9.476965291368261
0.8086703386533831,-1.625933876087085,-0.6978048989782193,-3.706403367871248,-14.260148802115513,9.851655008049693
0.7924109998925123,-1.76853536410824,-0.7348689326569318,-3.6078868177907513,-13.704193073131844,10.291726444304144
0.7747256462514299,-1.9055772948395584,-0.7709478008348393,-3.50496955334771,-13.131271638943531,10.788730152125492
0.7556698733030344,-2.036890011228994,-0.8059974963683164,-3.397082251826455,-12.542185646246594,11.334155792708204
0.7353009731907444,-2.16231186769146,-0.839968318886581,-3.283740693899373,-11.93870689111168,11.919439938188425
0.7136778545138298,-2.281698936602577,-0.8728057258255747,-3.1645462945174887,-11.323498115011326,12.536006460148599
0.6908608651478041,-2.3949339177526903,-0.9044511887707496,-3.0391862299160026,-10.700022069106325,13.17533559971525
0.6669115259702771,-2.5019341384437537,-0.9348430510699096,-2.90743287391885,-10.072439918314512,13.82905720334233
0.6418921845858396,-2.602658537626899,-0.9639173798090981,-2.769142301885427,-9.445500384670524,14.489063127314921
0.6158655992095706,-2.697113541473604,-0.9916088028279524,-2.624251670612278,-8.824421783905501,15.147633466401347
0.5888944637948346,-2.7853577593126593,-1.0178513195340753,-2.4727753359482643,-8.214769749629951,15.797571060061948
0.561040886201708,-2.8675054568089586,-1.042579072893558,-2.3147996253476446,-7.622333939473365,16.43233868741714
0.5323658316336184,-2.9437287962036924,-1.0657270691470344,-2.1504762384734732,-7.053007359743152,17.046193493376737
0.5029285436715815,-3.014258869801124,-1.087231831531769,-1.980014303539706,-6.512672118071367,17.634313504193056
0.47278595497357023,-3.0793855909818375,-1.1070319745671662,-1.8036711684977753,-6.007095409036157,18.192911597772266
0.44199209906375186,-3.139456545072199,-1.125068686252144,-1.6217420525200525,-5.541839350283994,18.719332990265208
0.41059753361302986,-3.194874938575039,-1.1412861067773445,-1.4345487226174005,-5.122187913257569,19.21213316943805
0.3786487842272795,-3.2460968177076146,-1.1556315940035184,-1.24242739092302,-4.753093633336997,19.671134209860803
0.3461878160502033,-3.2936277540409846,-1.1680558679127486,-1.045716048824412,-4.439146041722116,20.0974584799117
0.3132515385097935,-3.338019214458206,-1.1785130284009928,-0.8447414640252949,-4.1845628379985875,20.493539796105278
0.27987134636521144,-3.3798648428381917,-1.1869604430412457,-0.6398060660642422,-3.993203712393872,20.863112954500828
0.2460726979368295,-3.4197968799621306,-1.1933585037018881,-0.4311749365192339,-3.8686054025263727,21.21118307840927
0.2118747291372082,-3.458482933987394,-1.1976702530670804,-0.21906310573514118,-3.8140349577912795,21.54397610411329
0.17728989979733425,-3.496623283565307,-1.1998608841244318,-0.003623344694008268,-3.83255613033934,21.86887061922836
0.1423236669616812,-3.5349488448687003,-1.199897117571372,0.21506536149827535,-3.927101022516844,22.19430865011254
0.10697417851299419,-3.574219855093869,-1.1977464639563893,0.43700844799940075,-4.100535082468114,22.529678082154305
0.0712319799620555,-3.61522520591855,-1.1933763794763952,0.6623052288209438,-4.3556973863415545,22.88515097226124
0.035079727902870006,-3.6587821797819653,-1.1867533271881858,0.8911567385435561,-4.695388458566429,23.271448145504568
-0.0015080938949496511,-3.7057360643676294,-1.1778417598027502,1.1238712199986018,-5.122262383580084,23.69947807997356
-0.03856545453862595,-3.7569586882034303,-1.1666030476027642,1.3608660007983375,-5.638555068116256,24.179762313051953
-0.07613504142066024,-3.813344238884593,-1.1529943875947808,1.602663623928857,-6.245540728823695,24.721502948095075
-0.11426848380950617,-3.8757996461728297,-1.1369677513554923,1.8498786534098077,-6.942545964493755,25.3310592593607
-0.15302648027123447,-3.945225105817767,-1.1184689648213944,2.1031892460034145,-7.725254371105053,26.009465056305316
-0.19247873132941215,-4.022477649528818,-1.0974370723613602,2.3632838965664678,-8.582893002831984,26.7484204131904
-0.23270350782470034,-4.108306579557137,-1.0738042333956956,2.6307681006983716,-9.493700957228528,27.52392506545202
-0.2737865736202717,-4.203243589129422,-1.0474965523887119,2.906007351352892,-10.417868362048683,28.286426200268792
-0.31581900951156594,-4.307422272749909,-1.018436478875183,3.18887161335558,-11.287026097345228,28.946205822973695
-0.35889323223906505,-4.420292533723361,-0.9865477627416271,3.478333671585317,-11.98972576413788,29.3532410330949
-0.4030961575762987,-4.54018979136474,-0.9517644260257739,3.771866081916266,-12.354027173891879,29.273127090006746
-0.4484980554899461,-4.6637300631036585,-0.9140457652066113,4.0645973528163335,-12.132893915234044,28.36708007960943
-0.4951353561209827,-4.7850590022559985,-0.873399791678448,4.348268153612428,-11.007447426286582,26.197133550369163
-0.5429859461435427,-4.895133476518864,-0.8299171101423237,4.610239489116119,-8.636137035703795,22.295828258624628
-0.5919372809087313,-4.9814948468759015,-0.7838147152511625,4.833197771702365,-4.781832160500956,16.34507150692594
-0.6417522293774903,-5.029313168480911,-0.7354827375341388,4.996648486771624,0.48822743449216066,8.456527181887218
-0.6920453610622994,-5.02443089413599,-0.6855162526664226,5.081213758590496,6.636152007846791,-0.5967234303835954
-0.7422896700036593,-4.958069374057522,-0.6347041150805176,5.07524652428666,12.715545356647041,-9.470840100755806
-0.7918703637442346,-4.830913920491051,-0.583951649837651,4.980538123279102,17.74036196292527,-16.772761025982387
-0.8401795029491451,-4.653510300861798,-0.53414626860486,4.8128105130192775,21.122334327597915,-21.675901812827707
-0.8867146059577631,-4.442286957585819,-0.48601816347466725,4.596051494891,22.82879331208795,-24.14025239897047
-0.9311374755336213,-4.21399902446494,-0.44005764852575724,4.354648970901295,23.209350904040164,-24.66603703299231
-0.9732774657782707,-3.981905515424538,-0.39651115881674426,4.107988600571372,22.724114363362975,-23.909559101753104
-1.013096520932516,-3.7546643717909083,-0.35543127281103054,3.8688930095538407,21.76735933792228,-22.434201256601835
-1.050643164650425,-3.5369907784116856,-0.3167423427154921,3.6445509969878223,20.61277750540468,-20.632987985226414
-1.0860130724345418,-3.330863003357639,-0.2802968327456139,3.438221117135558,19.426099386890648,-18.74620213136346
-1.1193217024681181,-3.1366020094887324,-0.2459146215742583,3.2507590958219237,18.2968737895815,-16.906094376146743
-1.1506877225630054,-2.9536332715929174,-0.21340703061603908,3.081698152060456,17.267216947669354,-15.177406855771585
-1.1802240552789347,-2.780961102116224,-0.18259004909543453,2.92992408350274,16.352032167086197,-13.585932209164563
-1.208033666300097,-2.617440780445362,-0.1532908082604071,2.7940647614110943,15.551657485208457,-12.13642776826731
-1.2342080741045507,-2.4619242055932773,-0.12535016064629617,2.672700483728421,14.859260261340545,-10.823131828275434
-1.2588273161604835,-2.313331602979872,-0.09862315580901196,2.564469165445667,14.264959782438039,-9.635662155678828
-1.2819606321902821,-2.170682005155492,-0.07297846415455529,2.4681125438888785,13.75802615985097,-8.56219175414521
-1.303667452241837,-2.033101743556982,-0.04829733871566651,2.382490626347426,13.327988267385631,-7.5910742715986155
-1.3239984696774068,-1.8998218608831257,-0.024472432452192244,2.30657988363144,12.96514004422803,-6.71160936731988
-1.342996688286238,-1.7701704604408453,-0.0014066336158778427,2.2394637899582412,12.660724539476222,-5.914343244113348
-1.3606983928906464,-1.643563215046083,0.02098800428370457,2.180320357517108,12.406952151343413,-5.191126469182149
-1.3771340250411073,-1.5194936935326488,0.04279120785887565,2.1284090928252866,12.196939219466296,-4.535052013617587
-1.3923289619764339,-1.3975243013379859,0.06407529878712852,2.0830585726891107,12.024613497814759,-3.940340354015409
-1.4063042049898138,-1.2772781663598383,0.08490588451401962,2.0436551691489564,11.884610925714398,-3.4022070654142773
-1.419076986653412,-1.1584320571026943,0.10534243620550918,2.0096330984948136,11.772175910223588,-2.9167308991908407
-1.430661307224439,-1.0407102980004583,0.12543876719045732,1.9804657895029052,11.683070692829574,-2.4807307784888106
-1.4410684102044435,-0.9238795910721626,0.14524342508548638,1.9556584817180171,11.613495841249545,-2.091654999192636
-1.4503072061151652,-0.8077446326596671,0.16480000990266655,1.9347419317260908,11.560022099050597,-1.747483244133034
-1.4583846524417619,-0.6921444116691612,0.18414742921992747,1.9172670992847605,11.519532963534465,-1.4466407018268699
-1.4653060965584535,-0.5769490820338166,0.20332010021277508,1.9028006922664917,11.489177009177936,-1.1879230095019435
-1.4710755873787915,-0.4620573119420372,0.22234810713544,1.8909214621714723,11.466328885859255,-0.9704305661721305
-1.475696160498212,-0.34739402308344464,0.24125732175715472,1.881217156509751,11.448557962841653,-0.7935107914914482
-1.4791701007290463,-0.2329084434550281,0.2600694933222522,1.8732820485948365,11.433603687084734,-0.6567070332269459
-1.4814991851635966,-0.11857240658418075,0.2788023138082006,1.866714978262567,11.419356838530934,-0.55971299259911
-1.4826849092294383,-0.0043788381988714015,0.29746946359082627,1.8611178483365758,11.403845975572075,-0.5023317120485004
-1.4827286976114271,0.10965962155684936,0.316080642074192,1.8560945312160908,11.385228461721084,-0.4844383390558671
-1.4816321013958587,0.2235119061740602,0.3346415873863529,1.851250147825532,11.361785546266903,-0.5059460356787231
-1.479396982334118,0.33712976163672925,0.35315408886460825,1.8461906874687448,11.331921037159749,-0.5667745441569295
-1.4760256847177506,0.45044897200832673,0.3716159957392957,1.8405229420271756,11.29416315487525,-0.6668210443139223
-1.4715211949976674,0.5633906035570793,0.3900212251595675,1.8338547315840363,11.247169193484506,-0.8059330497691973
-1.4658872889620966,0.6758622954919243,0.4083597724754079,1.8257954010863444,11.18973264166956,-0.9838831890298683
-1.4591286660071774,0.7877596219086199,0.42661772648627133,1.8159565691960458,11.12079243384153,-1.2003458065275565
-1.4512510697880912,0.8989675462470352,0.4447772921782318,1.8039531111307703,11.03944401136932,-1.4548753999932948
-1.4422613943256208,1.0093619863607284,0.4628168232895395,1.7894043571308373,10.944951877329153,-1.7468869867058368
-1.4321677744620136,1.11881150513402,0.48071086686084785,1.771935487263779,10.83676332586494,-2.0756385645947426
-1.4209796594106734,1.2271791383926693,0.4984302217334856,1.7511791016178315,10.71452301962695,-2.440215907247682
-1.4087078680267466,1.3343243685889388,0.5159420127496639,1.7267769425453547,10.578088076116106,-2.839520006471392
-1.3953646243408573,1.4401052493500999,0.5332097821751174,1.6983817424806409,10.42754330648864,-3.2722575533696268
-1.3809635718473563,1.5443806824149862,0.5501935995999238,1.6656591669469447,10.263216229265899,-3.736934929009382
-1.3655197650232065,1.647012844707645,0.5668501912693932,1.628289817656851,10.085691457994008,-4.2318562572414935
-1.34904963657613,1.7478697592875851,0.5831330894459616,1.585971255084436,9.895824038863585,-4.755126151890296
-1.3315709389832542,1.846827999676221,0.598992801996806,1.5384199935655332,9.69475129569549,-5.30465786307176
-1.313102658986492,1.9437755126331757,0.6143770019324614,1.4853734149348155,9.483902731196023,-5.87818758558227
-1.2936649038601602,2.038614539945136,0.6292307360818096,1.4265915390789927,9.2650075422711,-6.473295727214653
-1.2732787584607088,2.131264615367847,0.6434966514725995,1.3618585818068463,9.04009934213295,-7.087435936698566
-1.2519661123070303,2.2216656087891766,0.6571152372906679,1.2909842224398607,8.811517752456743,-7.717972650212823
-1.2297494562191384,2.309780786313744,0.6700250795150665,1.2138044959377323,8.581906644482954,-8.362227824453901
-1.206651648356001,2.3955998527585733,0.6821631244744438,1.1301822176931933,8.354208977153043,-9.0175373792491
-1.1826956498284154,2.4791419425301036,0.6934649466513758,1.0400068439007022,8.131658409165842,-9.681317675681582
-1.1579042304031144,2.560458526621762,0.7038650150903828,0.9431936671438864,7.917768152615392,-10.351142116317924
-1.1322996451368967,2.6396362081479157,0.7132969517618216,0.8396822459807072,7.716317886178818,-11.024827691015277
-1.1059032830554176,2.716799387009704,0.7216937742216287,0.7294339690705544,7.5313399477188625,-11.70053103283316
-1.0787352891853206,2.7921127864868924,0.7289881139123343,0.6124286587422227,7.367106466098529,-12.376853329965412
-1.0508141613204516,2.865783851147878,0.7351124004997566,0.48866012544256865,7.228119551409575,-13.05295330316525
-1.0221563228089727,2.9380650466619738,0.7399990017541822,0.35813059241091616,7.119107119276605,-13.728667446853281
-0.992775672342353,3.00925611785474,0.7435803076782914,0.22084391794238334,7.04502735348025,-14.404636883683224
-0.9626831111638056,3.0797063913895424,0.7457887468577152,0.07679754910555109,7.011085185048603,-15.082440520572268
-0.9318860472499101,3.149817243240028,0.7465567223487708,-0.0740268561001716,7.02276445508649,-15.764734717461476
-0.9003878748175098,3.220044887790893,0.7458164537877691,-0.23167420327478636,7.085879593646004,-16.45540034536314
-0.8681874259396009,3.290903683727353,0.7434997117550212,-0.39622820672841774,7.206650625326725,-17.159698808975335
-0.8352783891023273,3.3629701899806204,0.739537429687737,-0.5678251948181711,7.39180498967758,-17.884439126878938
-0.8016486872025211,3.4368882398773963,0.7338591777395552,-0.7466695860869604,7.648708820840565,-18.638158107822164
-0.7672798048037471,3.513375328085802,0.7263924818786857,-0.9330511671651821,7.985528541844826,-19.431314337200593
