th1 (rad),w1 (rad/s),th2 (rad),w2 (rad/s)
3.523485120151451,0.27842697432116625,4.023414190249182,0.6808807497634356
3.5262693898946624,0.2859119929444468,4.030222997746816,0.7495861864206926
3.529128509824107,0.29401957331207557,4.037718859611023,0.8181602718623586
3.5320687055572275,0.302793153684762,4.045900462329647,0.8866056734806671
3.535096637094075,0.31227968417166774,4.0547665190644535,0.9549212666265582
3.5382194339357915,0.3225298651199929,4.064315731730719,1.0231018862256536
3.5414447325869913,0.33359833968716296,4.074546750592976,1.091138121559167
3.544780715983863,0.3455438377544943,4.085458131808568,1.1590161555099974
3.5482361543614083,0.358429268670054,4.097048293363668,1.2267176487750182
3.551820447048109,0.3723217607505778,4.109315469851418,1.2942196685864173
3.5555436646556147,0.3872926460306794,4.122257666537282,1.3614946603692988
3.5594165911159217,0.40341738941621574,4.135872613140974,1.4285104595033786
3.5634507650100837,0.42077546216211187,4.1501577177360085,1.4952303389804067
3.567658519631705,0.439450160428202,4.1651100211258125,1.5616130872958176
3.572053021235987,0.45952837053596557,4.180726151998771,1.627613109434952
3.576648304941347,0.4811002834134642,4.19700228309312,1.6931805423726645
3.5814593077754817,0.5042590615295466,4.213934088516846,1.7582613751685494
3.586501898390777,0.529100462333981,4.231516702268532,1.8227975625792623
3.5917929030141167,0.5557224227920378,4.249744677894325,1.8867271201933213
3.597350127242037,0.5842246099903965,4.268611949096258,1.949984188484282
3.603192373341941,0.6147079429659569,4.288111790981101,2.012499052925818
3.6093394527716005,0.6472740908530069,4.308236781510359,2.0741981074522453
3.6158121936801306,0.6820249521556637,4.328978762584881,2.135003749097788
3.622632443201687,0.719062119447045,4.350328800075859,2.1948341926057777
3.6298230643961578,0.7584863331071917,4.372277142001917,2.2536031951449274
3.6374079277272298,0.8003969268877332,4.3948131739533665,2.3112196829675185
3.645411896996107,0.84489126719644,4.417925370783042,2.3675872738448596
3.653860809668071,0.8920641871042316,4.44160124352149,2.4226036913617883
3.6627814515391135,0.9420074152736513,4.465827280435108,2.4761600695845423
3.67220152569185,0.9948089993777627,4.490588881130954,2.5281401491773297
3.6821496156856277,1.050552723208203,4.5158702826227275,2.5784193686812196
3.69265514291771,1.109317516643459,4.54165447630954,2.626863857342778
3.7037483180841444,1.1711768580394777,4.5679231148829675,2.6733293385585046
3.7154600866645393,1.2361981694818063,4.594656408268553,2.7176599556643875
3.7278220683593575,1.3044422067583374,4.621833007825197,2.7596870344360256
3.740866490426941,1.3759624479194608,4.649429878169557,2.7992277992662147
3.7546261149061353,1.450804486920192,4.677422156162219,2.8360840625447623
3.769134159775337,1.529005442105149,4.705782996787667,2.870040909262395
3.7844242141963886,1.6105933932054353,4.734483405880291,2.900865401263715
3.800530148128443,1.695586865053146,4.763492059892928,2.9283053278258326
3.8174860167789744,1.7839943813517927,4.792775113171187,2.9520880312498172
3.8353259605924923,1.875814117514872,4.822295993483685,2.9719193377921576
3.854084101767641,1.9710336877202668,4.852015186861607,2.987482625357987
3.8737944386448433,2.069630107816501,4.8818900131151866,2.998438059702444
3.8944907397230084,2.1715699824175148,4.911874393712211,3.004422030166579
3.9162064395471834,2.276809971260443,4.941918614013877,3.0050468138888093
3.938974539259788,2.3852975964649423,4.971969082152765,2.999900493624713
3.962827515224437,2.496972458476287,5.001968087089012,2.9885471484013424
3.9877972398092,2.61176793391703,5.031853558573026,2.9705273278621545
4.0139149191483705,2.729613433001038,5.061558831851648,2.945358810013827
4.0412110534783805,2.8504372972358,5.091012419951786,2.912537627971949
4.069715426450738,2.9741704194750254,5.120137796231506,2.871539334229499
4.099457130645488,3.1007506675510332,5.148853189573801,2.8218204512825333
4.1304646373209986,3.230128189183495,5.177071394086626,2.762820035996025
4.162765919212833,3.3622716689027023,5.204699594446587,2.6939612635076418
4.19638863590186,3.4971755962412545,5.231639207081663,2.6146529175403685
4.231360391864272,3.634868586632775,5.257785736257067,2.524290662274916
4.2677090777306,3.775422769221982,5.283028642879816,2.4222579736510412
4.30546330542282,3.9189642137778433,5.307251222616326,2.3079266365105076
4.344652947560599,4.065684302813168,5.330330488981431,2.1806567862872934
4.385309790588731,4.215851848836003,5.352137056844304,2.0397966183353367
4.427468309077091,4.3698255830644435,5.372535023027658,1.8846821495740589
4.471166564907736,4.528066354752533,5.391381844523399,1.7146378681799614
4.516447228455261,4.691147902263958,5.408528223205199,1.5289798637036454
4.563358707477901,4.8597642604883005,5.423818021842235,1.3270242787935214
4.611956350082784,5.03473054620782,5.43708826463017,1.1081059619423133
4.6623036555448625,5.216971682943657,5.448169324249593,0.8716154931653756
4.714473372374299,5.407490084204341,5.456885479181247,0.6170680007332268
4.768548273216343,5.60729769106315,5.46305615918858,0.3442253615880467
4.824621250126975,5.817289187739643,5.4664984128044605,0.05330561921178839
4.8827941420043715,6.038021079353695,5.467031468996578,-0.2546695508810007
4.943174352797908,6.269346581181907,5.464484773487768,-0.5773184786118062
5.005867818609727,6.509845028173559,5.458711588701649,-0.91004960771521
5.070966268891462,6.755995606754327,5.449611092624497,-1.2448536031285673
5.138526224959006,7.001122354234338,5.437162556593211,-1.5687903664311966
5.20853744850135,7.234354736477753,5.421474652928899,-1.862544546276284
5.280880995866127,7.440263040181464,5.4028492074661365,-2.100026757956464
5.3552836262679415,7.6002905527675155,5.381848939886572,-2.250663339619371
5.4312865317956165,7.6969569621430205,5.359342306490378,-2.28579175795366
5.508256101417047,7.7201085582951245,5.336484388910841,-2.188101657198036
5.585457186999998,7.671742379286988,5.31460337233886,-1.9590476676676654
5.662174610792867,7.565462207100065,5.295012895662183,-1.6184112881418724
5.737829232863868,7.420623839638109,5.2788287827807645,-1.195934691502553
5.812035471260249,7.255514273872939,5.266869435865739,-0.7212509801350152
5.884590613998979,7.083411380554744,5.259656926064388,-0.21779593709937417
5.955424727804527,6.911956078036121,5.2574789666933945,0.2984855947307864
6.024544288584888,6.744290935193037,5.260463822640703,0.8177670899192485
6.0919871979368185,6.580557333065275,5.268641493539895,1.3343334871617338
6.157792771267471,6.419116930921027,5.281984828411512,1.8449016094748543
6.221983940576681,6.257382289209315,5.30043384450626,2.3474804085735146
6.284557763468775,6.092335823041667,5.3239086485919955,2.8406876581052134
6.3454811216991915,5.920844262513621,5.352315525173048,3.3233841905551613
6.404689564324328,5.7398511792325095,5.3855493670786,3.794511464531081
6.462088076116653,5.546500001309969,5.42349448172391,4.253054544924684
6.517553076129753,5.338217086486992,5.466025027173157,4.698080734228157
6.5709352469946225,5.112769615964754,5.513005834515439,5.1288222290794945
6.62206294315427,4.868304294364188,5.564294056806234,5.54478192885355
6.670745986097912,4.603368159273513,5.6197418760947695,5.945847707773879
6.716779667690647,4.316910912262968,5.679200353172508,6.332404073061054
6.759948776813276,4.008268329122815,5.7425243939031185,6.705432307212806
6.800031460104504,3.6771281433890457,5.809578716975246,7.066591336048388
6.836802741538395,3.3234833298504487,5.8802446303357305,7.418271389751771
6.870037574836899,2.9475833930648077,5.954427344233248,7.763609951860485
6.899513408767547,2.5499032532980355,6.032063443751853,8.106452331244064
6.925012441300527,2.1311639816125374,6.113127967064294,8.451223540993949
6.946324081116653,1.6924641879298297,6.197640202474234,8.802647516168447
6.963248722995951,1.2356217695286116,6.285666677635918,9.165194278395195
6.9756049406912375,0.7638898011574942,6.37731862041987,9.542044592966333
6.983243838702813,0.28329394300912564,6.472739066349534,9.933237060924503
6.9860767781329045,-0.19511025863424342,6.572071436958779,10.332570676712253
6.984125675546562,-0.6519430274933893,6.675397143725902,10.723043239309593
6.9776062452716285,-1.0559673000610859,6.782627576118998,11.071798101534569
6.967046572271018,-1.363429894294012,6.893345557134343,11.328659498158505
6.953412273328078,-1.526242955808226,7.0066321521159285,11.436245508504447
6.938149843769995,-1.5124391369607373,7.120994607200973,11.35634883909034
6.923025452400388,-1.327731075176931,7.2345580955918765,11.097728973012469
6.909748141648619,-1.0154906246834237,7.345535385322001,10.715321835148753
6.899593235401785,-0.6324480557159682,7.452688603673488,10.278122961116427
6.893268754844625,-0.2247617119638215,7.555469833284652,9.838905818580244
6.891021137724986,0.17945000699379648,7.653858891470454,9.426151381974
6.892815637794924,0.5663354709884187,7.748120405290194,9.050213706511688
6.898478992504808,0.9304212364622488,7.838622542355311,8.711505417356769
6.90778320486943,1.27037169585395,7.9257375965288785,8.406066045519546
6.92048692182797,1.5866133691976076,8.009798256984075,8.128522832771264
6.9363530555199455,1.8801654406441402,8.091083485311788,7.873455936485682
6.955154709926387,2.152119245878743,8.169818044676646,7.635949106700882
6.976675902385175,2.4034380184648674,8.246177535743655,7.411763645411867
7.000710282569823,2.6349061205967983,8.320295172197774,7.197351851180448
7.027059343775791,2.847143737734052,8.392268690709578,6.989809511364481
7.055530781153132,3.0406467582164507,8.462166785823223,6.786810608528605
7.085937248735296,3.2158328423003946,8.530034891908508,6.586541386305616
7.1180955771583,3.373084905868731,8.595900305771565,6.38763940653938
7.151826426216988,3.512788154891493,8.659776699836959,6.1891384617342755
7.186954307765903,3.6353592012011076,8.721668084454302,5.990418509204891
7.223307899777914,3.741266998929927,8.781572269546352,5.791159445205195
7.260720569767213,3.8310459874337055,8.839483863998405,5.591297735017472
7.29903102964155,3.9053021958994583,8.89539684134858,5.390985283911141
7.3380840516005446,3.9647132829705245,8.949306694187692,5.190550302369252
7.3777311844302496,4.010023604961343,9.001212197211384,4.990460213552206
7.417831420479863,4.042035451470938,9.051116799346905,4.791286847277453
7.458251774994572,4.061597569734788,9.09902966781968,4.59367426379808
7.49886775069192,4.069592029216207,9.144966410457661,4.398309566231106
7.539563670984082,4.066920367052972,9.188949506119972,4.205897012311934
7.5802328746546115,4.05448981555306,9.23100847624309,4.0171356453581195
7.6207777728101425,4.0332002577541255,9.27117983269667,3.8327005506770475
7.661109775387684,4.003932398020272,9.309506838203442,3.653227723892784
7.701149099367886,3.9675374818206164,9.34603911544237,3.4793024247250055
7.740824474186093,3.9248287599129776,9.38083213968962,3.311450792586089
7.780072761785223,3.87657477229312,9.41394664761548,3.1501344242533014
7.818838509508154,3.823494429211221,9.445447991858014,2.9957475609857718
7.8570734538002664,3.766253790989182,9.475405467467871,2.848616502515391
7.894735991710158,3.705464394369383,9.503891632493024,2.709000856323776
7.931790635653852,3.6416829386195,9.530981641056263,2.577096239389071
7.968207465040047,3.575412126836987,9.556752603450153,2.453038072442337
8.003961586308417,3.507102453739404,9.581282984174576,2.336906139872826
8.039032610845812,3.4371547375596907,9.604652045573305,2.228729628109007
8.07340415822141,3.3659232075412424,9.626939341854396,2.128492398325899
8.107063390296823,3.2937189773286115,9.648224265837655,2.036138292968373
8.140000580070108,3.220813756068408,9.668585648767339,1.9515763176980478
8.172208717630792,3.147443671503113,9.68810141194432,1.8746855794104396
8.203683154345823,3.073813101418933,9.706848267738424,1.805319895903453
8.234421285360012,3.000098430550851,9.724901466697458,1.7433120230418873
8.264422269665522,2.9264516688465543,9.742334586927877,1.6884774706627845
8.293686786353987,2.853003883517781,9.759219361634504,1.6406178990965135
8.322216825189166,2.7798684114521173,9.77562554062547,1.5995241043348343
8.350015509303686,2.707143830369545,9.791620781668819,1.564978611987176
8.377086947607381,2.6349166767440995,9.80727056778869,1.536757908728453
8.403436114374822,2.5632639061961835,9.822638146875974,1.5146343454796691
8.429068753436784,2.4922550980520666,9.83778449033077,1.4983777495915622
8.453991304417304,2.421954410327271,9.852768267826686,1.4877567843061745
8.478210848520577,2.352422294771973,9.867645835669748,1.482540093191705
8.501735071468296,2.2837169840481124,9.882471236601665,1.4824972654717117
8.524572241308777,2.2158957647889994,9.897296209256382,1.4873996555374103
8.546731198956666,2.149016051390089,9.912170205811757,1.4970210867269484
8.568221359470567,2.0831362760302556,9.927140416679027,1.5111384659155132
8.58905272223087,2.018316610733459,9.942251801338182,1.5295323317782825
8.609235888338205,1.9546195373335624,9.957547124655965,1.5519873559181165
8.62878208371154,1.892110281062333,9.973066998215147,1.5782928125093798
8.647703186522163,1.8308571231886785,9.98884992634024,1.6082430287847063
8.666011757754049,1.7709316077307349,10.004932356628087,1.6416378256413269
8.683721073831355,1.712408656768158,10.0213487348845,1.6782829549022629
8.700845160399037,1.6553666083210463,10.038131564433522,1.7179905373495572
8.717398826482247,1.5998871901516307,10.055311469807018,1.7605795035498353
8.733397698383763,1.5460554421995802,10.072917264842516,1.8058760377026617
8.748858252805759,1.4939595996930335,10.090976025219543,1.8537140232369034
8.763797848802689,1.4436909482936786,10.109513165451911,1.9039354876325572
8.778234758285626,1.395343661940097,10.128552520328236,1.956391042926889
8.792188194905027,1.3490146333496522,10.148116430757506,2.010940317547222
8.805678341238524,1.304803306421396,10.168225833932977,2.0674523744743922
8.818726374302738,1.2628115190422788,10.18890035767772,2.1258061102607284
8.83135448949316,1.223143364023918,10.210158418780328,2.1858906290881954
8.8435859231334,1.1859050750718314,10.23201732507121,2.2476055858425985
8.855444973884119,1.1512049437961915,10.254493380929636,2.310861492086069
8.866957023322081,1.1191532727953113,10.277601995850498,2.375579978819083
8.878148556050034,1.0898623687638955,10.301357795638689,2.441694010018454
8.889047179737673,1.0634465783835736,10.325774735738873,2.509148041097465
8.89968164552151,1.0400223684324628,10.350866216149848,2.577898116630529
8.910081869205834,1.0197084500960054,10.376645197316153,2.6479119018822743
8.920278953706795,1.0026259458686844,10.403124316334976,2.7191686428376127
8.930305213165482,0.9888985957033575,10.430316002763352,2.7916590494971105
8.940194199122516,0.9786529971908929,10.458232593258323,2.8653850971287076
8.949980729094424,0.9720188725362547,10.48688644422961,2.9403597398987293
8.959700917819786,0.9691293529352412,10.516290041628597,3.0166065307897214
8.969392211349138,0.9701212686430751,10.546456106936494,3.094159140901965
8.979093424035568,0.9751354305531449,10.577397698345514,3.173060770089542
8.9888447783411,0.9843168864598256,10.60912830604641,3.2533634393720097
8.998687947205699,0.9978151323506866,10.64166194044013,3.3351271536757556
9.008666098529206,1.0157842560494779,10.675013211976887,3.4184189212008644
9.018823941089702,1.0383829873073833,10.709197401188897,3.50331161310965
9.029207770962776,1.0657746250241633,10.744230517319993,3.589882644351005
9.039865517213018,1.0981268087022273,10.780129343763504,3.6782124533655716
9.05084678530004,1.1356110975565659,10.816911468297159,3.7683827552998337
9.062202896275606,1.178402317027933,10.854595295850157,3.8604745403860345
9.073986919445884,1.2266776289421952,10.893200041254017,3.9545657865785286
9.086253695735307,1.2806152784695388,10.932745699119803,4.050728853713494
9.099059848520001,1.3403929687040286,10.973252987656938,4.149027525807478
9.112463778207042,1.4061858125630926,11.014743262915013,4.249513669164527
9.126525636332673,1.4781638123864058,11.057238399606659,4.352223477367219
9.141307274456537,1.5564888208265433,11.10076063438033,4.45717328074148
9.156872162664802,1.6413109432462747,11.145332367187745,4.564354908365365
9.173285272097266,1.7327643528739647,11.190975916271398,4.673730606059702
9.190612915626005,1.830962506508965,11.237713222331996,4.78522753497679
9.208922540691095,1.9359927717087952,11.285565497681764,4.898731903214265
9.228282468408183,2.0479105071039987,11.334552816713908,5.014082817893852
9.248761573479223,2.1667326764438393,11.384693644892845,5.1310659874683
9.270428900243662,2.292431124292025,11.436004304767529,5.249407453040662
9.293353211486583,2.4249256962211523,11.488498379297935,5.368767581554035
9.317602468448793,2.564077446943681,11.542186055113476,5.488735609838352
9.34324324291823,2.7096822425562017,11.59707341121186,5.608825082044622
9.370340065343793,2.8614651226193137,11.653161662032305,5.728470567506527
9.398954716569987,3.0190758368617354,11.710446367707371,5.8470260733414205
9.429145474938604,3.1820860008379475,11.768916628440785,5.963765566586169
9.460966334946983,3.349988314678127,11.828554284106646,6.077885984330145
9.494466218093764,3.5221982489032326,11.889333143949948,6.188513028060417
9.529688200582797,3.6980585125180276,11.951218274230552,6.294709904016664
9.566668785707977,3.8768464763459907,12.01416537327072,6.395488983584429
9.605437250471438,4.057784529913873,12.078120263106564,6.489826122713568
9.646015095770576,4.24005311212351,12.1430185243337,6.5766771119643765
9.68841562689181,4.422805892393764,12.208785295453344,6.65499545320185
9.732643685815749,4.605186316295848,12.275335249985362,6.723750407113165
9.778695548978707,4.786344500379687,12.342572754056494,6.781944063859494
9.826558993982504,4.965453299113414,12.410392194695088,6.828626092556297
9.876213526973638,5.141722303026526,12.478678455620651,6.862904851948294
9.927630750003903,5.314408582030633,12.547307504140134,6.883953709599332
9.98077483582421,5.482823168071868,12.616147041236127,6.891011718263614
10.035603067504928,5.646332567148428,12.685057158418763,6.883378216506158
10.092066393176411,5.80435497790469,12.753890940583824,6.860401422506451
10.150109942955458,5.956351337908148,12.822494954808889,6.821461633823145
10.20967345633454,6.101811781347678,12.89070957114712,6.765950190234861
10.270691574148017,6.240238539033954,12.958369073049468,6.693245867323436
10.333093959538356,6.371126718280622,13.025301531722702,6.602690822452515
10.396805226721163,6.493944753061763,13.091328439947228,6.49356860073018
10.461744674251781,6.60811660993454,13.156264125954529,6.365087020946903
10.527825840351126,6.713008072239883,13.219914996163999,6.216368991008932
10.594955921073524,6.807919597774445,13.282078686074088,6.046454422937528
10.663035117051269,6.892088330087629,13.342543230303464,5.854316372745233
10.731956000352145,6.964701789781987,13.401086394030918,5.638894223508842
10.801603018249965,7.0249254945923,13.457475336266006,5.39914602118686
10.871852273195888,7.071946139013174,13.511466796477874,5.1341207934324125
10.94257173458602,7.105030875702464,13.562808004412199,4.843049671152177
11.013622043343045,7.123601577660023,13.61123850112372,4.525451806103175
11.084858059119645,7.1273207078188605,13.656493019184753,4.181247523970536
11.156131266197834,7.116182736715189,13.698305494424458,3.8108672417469465
11.227293093564986,7.090602326684065,13.736414166841927,3.4153411394410074
11.298199116831826,7.05148840020488,13.770567578236337,2.996352469618374
11.368714000833876,7.000292559281493,13.80053110293252,2.5562379058970945
11.438716926426691,6.939021891691537,13.826093481991492,2.0979223968379244
11.508107145343606,6.870210359869017,13.84707270595987,1.6247837447691933
11.576809248942297,6.79684936920824,13.863320543407562,1.140452515375831
11.64477774263438,6.7222855686444865,13.87472506856132,0.6485636343851301
11.712000598320826,6.650100672521211,13.881210704905172,0.15248421289205505
