th1 (rad),w1 (rad/s),th2 (rad),w2 (rad/s),a1 (rad/s^2),a2 (rad/s^2)
5.272770528729296,0.07642183261073601,5.105406142015117,-0.02644096989099776,7.467589988342026,1.690551802805806
5.273534747055404,0.15109773249415626,5.105141732316207,-0.0095354518629397,7.455304256760101,1.7077927639068935
5.2750457243803455,0.22565077506175726,5.105046377797578,0.007542475776129237,7.433556413539382,1.7363893924471339
5.277302232130963,0.29998633919715106,5.105121802555339,0.024906369700600575,7.402244723761689,1.7765195724351721
5.280302095522934,0.374008786434768,5.105370866252345,0.0426715654249523,7.361235972145955,1.828411134097913
5.284042183387282,0.4476211461562275,5.105797581906595,0.06095567676593143,7.310369913519622,1.8923336757991907
5.288518394848844,0.5207248452914237,5.106407138674254,0.07987901352392333,7.249464968744323,1.9685880235845443
5.293725643301759,0.593219494978867,5.107205928809494,0.09956489375976878,7.178325036735994,2.0574935216174617
5.299657838251547,0.6650027453462268,5.108201577747091,0.1201398289759434,7.096747251617514,2.1593734134993565
5.306307865705009,0.735970217862402,5.109402976036851,0.14173356311093696,7.004530470222793,2.2745386467240327
5.313667567883633,0.8060155225646299,5.11082031166796,0.1644789495781773,6.901484231084192,2.403270507723555
5.321727723109279,0.8750303648754718,5.112465101163742,0.18851165465541286,6.7874378845691234,2.5458025690169204
5.330478026758034,0.9429047437211631,5.114350217710296,0.21396968034558206,6.662249558707845,2.7023024973884646
5.339907074195246,1.0095272393082415,5.1164899145137515,0.2409927053194667,6.525814600776933,2.8728543262608817
5.350002346588328,1.0747853853160108,5.118899841566946,0.2697212485820755,6.378073125372126,3.0574418294467676
5.360750200441488,1.138566116569732,5.121597054052766,0.3002956668765432,6.219016309700463,3.255933640465554
5.372135861607185,1.2007562796667366,5.124600010721531,0.3328550032811987,6.048691109410387,3.468070735928654
5.384143424403852,1.2612431907608406,5.127928560754343,0.36753571064048524,5.867203125200668,3.693456839503705
5.396755856311461,1.3199152220128472,5.131603917860748,0.4044702790355223,5.674717431391402,3.9315522039240025
5.409955008531589,1.3766623963267612,5.135648620651104,0.44378580107476234,5.471457279886343,4.181671095131017
5.423721632494856,1.4313769691256246,5.140086478661852,0.4856025120260725,5.257700711308484,4.442983141309282
5.438035402186112,1.4839539762387095,5.144942503782112,0.5300323434391654,5.03377523212964,4.714518530067449
5.452874941948499,1.534291728560006,5.150242827216504,0.5771775287398399,4.800050843297365,4.995176851707943
5.468217859234099,1.5822922369929797,5.156014602503902,0.6271292972569192,4.556931822422678,5.283739209149731
5.484040781604029,1.6278615552172064,5.1622858954764705,0.6799666893484165,4.304847758624142,5.578883059183882
5.5003193971562006,1.6709100328034479,5.169085562369955,0.7357555199402553,4.044244408695595,5.879199127119999
5.517028497484235,1.7113524768904038,5.176443117569358,0.7945475112114553,3.7755749798902634,6.183209656040966
5.534142022253139,1.7491082266893065,5.184388592681472,0.856379607771865,3.4992924459236106,6.489387217042425
5.5516331045200324,1.7841011511485427,5.192952388759191,0.9212734799422893,3.2158434698013996,6.796173317425922
5.569474116031518,1.8162595858465567,5.202165123558614,0.9892352131165485,2.9256644439894384,7.101996094639768
5.587636711889984,1.845516230286451,5.21205747568978,1.0602551740629462,2.629180072080846,7.405286465737891
5.606091874192849,1.8718080310072593,5.222660027430409,1.134308038720325,2.326804815046647,7.704492203490172
5.624809954502921,1.895076079157726,5.234003107817613,1.2113529607552267,2.018947418642717,7.998089518037157
5.643760715294499,1.9152655533441532,5.246116637425165,1.2913338559355982,1.7060186355507807,8.284591824399781
5.66291337082794,1.932325739699661,5.259029975984521,1.374179774179596,1.388442164133842,8.562555460049712
5.6822366282249375,1.9462101613409994,5.2727717737263164,1.4598053287800932,1.066668751247587,8.830582174498911
5.7016987298383475,1.9568768488534753,5.287369827014118,1.5481111505250822,0.7411933531331015,9.08731823904763
5.721267498326882,1.9642887823848063,5.302850938519368,1.6389843329155585,0.4125752174363528,9.331450017498334
5.7409103861507305,1.96841453455917,5.3192407818485234,1.7322988330905418,0.08146073993177756,9.56169579938431
5.760594531496322,1.9692291419584877,5.336563770179429,1.8279157910843848,-0.2513910416395308,9.776793631119519
5.780286822915906,1.9667152315420924,5.354842928090273,1.92568372739558,-0.5850804325762842,9.975484795921155
5.799953975231327,1.9608644272163296,5.374099765364228,2.0254385753547917,-0.9185366345906972,10.156492502459374
5.819562619503491,1.9516790608704226,5.394354151117776,2.1270035003793852,-1.2504849367816018,10.318495261145962
5.839079410112195,1.9391742115026067,5.41562418612157,2.230188452990845,-1.579411614033805,10.460094377091748
5.858471152227221,1.9233800953622686,5.4379260706514785,2.3347893967617623,-1.9035266438879286,10.57977499797782
5.877704953180843,1.9043448289233893,5.461273964619096,2.4405871467415405,-2.2207244610586665,10.675860260006331
5.896748401470077,1.8821375843128025,5.485679836086511,2.547345749341604,-2.528543178426079,10.746458323399716
5.915569777313205,1.8568521525285417,5.511153293579928,2.654810332575601,-2.8241230589729933,10.789402541699861
5.934138298838491,1.8286109219388118,5.537701396905684,2.7627043579926,-3.1041655799259504,10.802185742360527
5.952424408057879,1.7975692661395524,5.56532844048561,2.870726215416205,-3.3648952527826443,10.781890699731457
5.970400100719274,1.7639203136117259,5.594035702639772,2.9785451224135198,-3.6020275196438374,10.725120453444498
5.988039303855392,1.7279000384152874,5.623821153863907,3.085796326947965,-3.8107475981116976,10.627934256715209
6.005318304239545,1.6897925624341703,5.654679117133386,3.192075669515117,-3.9857071241811997,10.48579768598542
6.022216229863886,1.6499354911923583,5.686599873828538,3.2969336463749714,-4.12104780672019,10.293558776702602
6.03871558477581,1.6087250131251565,5.7195692102922875,3.3998692341419976,-4.2104638945174715,10.045465780700223
6.054802834907061,1.5666203741799818,5.753567902633708,3.500323891949,-4.247317702234924,9.73524581668721
6.070469038648861,1.5241471971576326,5.788571141553198,3.597676350115872,-4.224824092464963,9.356266473573747
6.085710510620437,1.481898956232983,5.824547905054357,3.6912390148516097,-4.136319658923127,8.901803012175924
6.100529500182767,1.4405357596437516,5.861460295202873,3.780257044973369,-3.9756290369373444,8.36543038651194
6.114934857779205,1.4007794692743782,5.899262865652607,3.863911348838488,-3.737532716626189,7.741549758164709
6.128942652471949,1.3634041421081164,5.9379019791409915,3.9413268464201354,-3.418326589568788,7.026041609030258
6.14257669389303,1.3292208762124285,5.977315247605193,4.011587262510438,-3.0164427856262335,6.217011239496117
6.155868902655154,1.2990564483561662,6.017431120230298,4.073757374905399,-2.533075627267905,5.315559120622143
6.168859467138716,1.2737256920834872,6.0581686939793515,4.12691296611162,-1.9727300761902118,4.326473763599511
6.181596724059551,1.253998391321585,6.099437823640468,4.170177703747615,-1.3435903709540469,3.258718210617009
6.194136707972767,1.2405624876120447,6.141139600677944,4.202764885853785,-0.6576032237092538,2.125575482932055
6.206542332848888,1.2339864553749522,6.183167249536481,4.224020640683106,0.06980840982863434,0.9443447502623808
6.218882197402637,1.2346845394732386,6.225407455943312,4.2334640881857295,0.8204351235232177,-0.2644570304818737
6.231229042797369,1.2428888907084708,6.267742096825169,4.230819517880911,1.5743367652231606,-1.478341820914239
6.243657931704454,1.2586322583607024,6.310050292003979,4.2160360996717685,2.3111493629082056,-2.6744012559776813
6.2562442542880605,1.2817437519897845,6.3522106530006965,4.189292087111991,3.0114691484629237,-3.830942160159723
6.269061691807958,1.3118584434744138,6.394103573871816,4.150982665510394,3.658117989335122,-4.928961861085597
6.282180276242703,1.3484396233677651,6.43561340052692,4.1016930468995385,4.237119314388589,-5.953252492688335
6.295664672476381,1.390810816511651,6.476630330995915,4.042160521972655,4.73827702896525,-6.893006719845496
6.309572780641497,1.4381935868013036,6.517051936215641,3.9732304547742006,5.1553313537019045,-7.741902250968971
6.32395471650951,1.4897469003383226,6.556784240763383,3.895811432264511,5.485740646773643,-8.497737367663603
6.338852185512893,1.544604306806059,6.595742355086028,3.810834058587875,5.730188752954362,-9.161751169900915
6.354298228580954,1.6019061943356028,6.6338506956719065,3.7192165468888656,5.89193637882888,-9.73778229596492
6.37031729052431,1.6608255581238915,6.671042861140795,3.6218387239292165,5.976126441203023,-10.231404741541333
6.386925546105549,1.7205868225359218,6.707261248380087,3.5195246765138033,5.98912760154232,-10.649143183787935
6.404131414330908,1.7804780985513449,6.742456495145225,3.413033244675924,5.937968551767336,-10.997827795059695
6.421936195316421,1.8398577840690182,6.776586827591984,3.303054966725327,5.8298865933765,-11.284110834785286
6.440334773157112,1.8981566500027833,6.809617377259237,3.190213858377474,5.671992188673331,-11.514139833087107
6.459316339657139,1.9548765718895167,6.841519515843012,3.075072460046603,5.47103752317462,-11.693365862095177
6.478865105376034,2.009586947121263,6.872270240443478,2.958138801425651,5.2332705945917,-11.826458423753284
6.498960974847247,2.06191965306718,6.9018516284577345,2.839874217188118,4.964354932638144,-11.917298024637304
6.5195801713779185,2.1115632023935613,6.930250370629616,2.720701236941745,4.66933672993009,-11.969020813322459
6.540695803401854,2.1582565696928624,6.957457382999033,2.60101102880852,4.352644313510878,-11.984094604770092
6.562278369098783,2.2017830128279714,6.983467493287119,2.481170082760819,4.018108419035276,-11.964410823462277
6.5842961992270626,2.2419640970183243,7.008279194114727,2.3615259745261965,3.668995017355561,-11.911381598932877
6.6067158401972454,2.27865404719188,7.031894453859989,2.242412158536868,3.3080451951980963,-11.826035119427049
6.629502380669164,2.3117344991438613,7.0543185754453575,2.1241518073425976,2.9375187295006127,-11.709105334136922
6.652619725660603,2.3411096864388674,7.075560093518783,2.007060754001228,2.5592395556913785,-11.561114271127003
6.676030822524992,2.3667020819957814,7.095630701058796,1.8914496112899581,2.1746423999766655,-11.382446737942605
6.69969784334495,2.388448505995548,7.1145451971716955,1.7776251439105322,1.7848205209117722,-11.173418129790559
6.723582328404905,2.4062967112046656,7.132321448610801,1.6658909626126266,1.3905748723788798,-10.934336601249328
6.747645295516952,2.420202459928454,7.148980358236927,1.5565475966001334,0.9924651266549627,-10.665561049705309
6.771847320116236,2.430127111195004,7.1645458342029285,1.4498919861030803,0.5908629317340195,-10.36755627440245
6.796148591228186,2.4360357405123443,7.179044754063959,1.346216423359056,0.1860075552234036,-10.040946356913462
6.82050894863331,2.4378958160645783,7.19250691829755,1.2458069597899213,-0.22193628800877052,-9.686566788994387
6.844887906793955,2.4356764531844908,7.204964987895449,1.1489412918999775,-0.6328190944068974,-9.305515183321035
6.8692446713258,2.429348262240422,7.216454400814449,1.0558861400667672,-1.0464469395798586,-8.89919958206359
6.893538153948205,2.4188837928446234,7.227013262215117,0.9668941442461313,-1.4625233794918893,-8.469382486990712
6.917726991876651,2.4042585590497043,7.236682203657578,0.8822003193762242,-1.8805953023582593,-8.018217857986004
6.941769577467148,2.3854526060261216,7.24550420685134,0.8020181407963642,-2.3000056585470836,-7.548277577845758
6.965624103527409,2.362452549440651,7.2535243882593035,0.7265353650179067,-2.7198563292053457,-7.0625633965901145
6.989248629021815,2.3352539861485977,7.260789741909482,0.6559097310520056,-3.138984449859433,-6.56450029377732
7.012601168883301,2.303864141650003,7.267348839220002,0.5902647281142324,-3.5559551898532913,-6.05790766250419
7.035639810299801,2.2683045897514704,7.273251486501144,0.5296856514891904,-3.969073239961841,-5.546945806112708
7.058322856197316,2.228613857351852,7.278548343016037,0.47421619342806337,-4.376414071972291,-5.036036947916778
7.080608994770834,2.184849716632129,7.283290504950317,0.4238558239488956,-4.775874474004198,-4.52976217549617
7.102457491937155,2.137090971892087,7.287529063189806,0.3785582021939339,-5.1652400857380965,-4.032738245078542
7.123828401656076,2.085438571034706,7.291314645211746,0.33823081974314845,-5.542265882880023,-3.549480627871341
7.144682787366423,2.030015912205906,7.2946969534091775,0.302736013464435,-5.904764054615743,-3.0842612058675107
7.164982946488482,1.9709682716597485,7.297724313543822,0.2718934014057599,-6.2506927365274585,-2.6409702566768747
7.18469262920508,1.908461344294474,7.3004432475578795,0.24548369883899115,-6.578238793867732,-2.2229925433778974
7.203777242648025,1.8426789563557966,7.302898084546269,0.22325377340521219,-6.885888372743289,-1.8331063521432478
7.222204032211583,1.7738200726283637,7.305130622280322,0.2049227098837797,-7.172480189694773,-1.473412302896692
7.239942232937867,1.702095270731416,7.3071798493791595,0.19018858685481277,-7.437238325570618,-1.1452959860399992
7.256963185645182,1.62772288747571,7.309081735247708,0.17873562699441278,-7.679783351490786,-0.8494253649366271
7.273240414519939,1.5509250539608022,7.310869091517652,0.17024137334504652,-7.9001226383716645,-0.5857808790183762
7.288749665059547,1.4719238275770854,7.312571505251102,0.16438356455486275,-8.098622415840232,-0.3537136808139064
7.303468903335318,1.390937603418683,7.314215340896651,0.1608464277467237,-8.275965362404873,-0.15202571178397153
7.317378279369505,1.3081779497946344,7.3158238051741185,0.159326170628884,-8.433098143466063,0.020935521717464475
7.330460058867452,1.2238469683599738,7.317417066880408,0.15953552584605862,-8.57117338731002,0.16717461046009854
7.342698528551051,1.1381352344868736,7.319012422138869,0.16120727195065962,-8.691490201195816,0.2889447925398118
7.35407988089592,1.0512203324749154,7.320624494858375,0.16409671987605773,-8.795436624397635,0.3886486879877563
7.36459208422067,0.9632659662309391,7.3222654620571355,0.16798320675593528,-8.884436546961924,0.4687471279087962
7.374224743882979,0.8744216007613198,7.3239452941246945,0.17267067803502326,-8.959902728974255,0.5316785764573839
7.382968959890592,0.7848225734715772,7.325672000905045,0.1779874637995971,-9.02319673866798,0.5797903614606871
7.390817185625307,0.6945906060848974,7.327451875543041,0.18378536741420395,-9.0755959531794,0.6152818724459524
7.397763091686156,0.6038346465531034,7.329289729217183,0.18993818613866348,-9.118267261722377,0.6401590952690952
7.403801438151687,0.5126519739358796,7.33118911107857,0.19633977709135442,-9.15224677802742,0.6561993304360216
7.408927957891046,0.4211295061556054,7.3331525088494836,0.20290177039571464,-9.178424689297628,0.6649246598406404
7.413139252952602,0.32934525926262914,7.33518152655344,0.20955101699412104,-9.197534315438418,0.6675826420073983
7.416432705545229,0.23736991610824498,7.337277036723382,0.216226843414195,-9.2101444951948,0.6651327832316537
7.418806404706311,0.14526847115629699,7.339439305157524,0.22287817124651155,-9.21665452751477,0.658237508695725
7.420259089417874,0.05310192588114929,7.341668086869989,0.2294605463334688,-9.217291054040832,0.6472566081550094
7.420790108676685,-0.039070984659259025,7.343962692333323,0.23593311241501888,-9.212106454635085,0.6322444278113263
7.420399398830092,-0.1311920492056099,7.346322023457474,0.24225555669313215,-9.200978529787701,0.6129494038032259
7.419087478338036,-0.2232018345034869,7.348744579024405,0.2483850507311644,-9.183611452975358,0.5888158694739244
7.416855459993001,-0.3150379490332405,7.351228429531717,0.25427320942590365,-9.159538186044063,0.5589884077758541
7.413705080502669,-0.40663333089368114,7.353771161625976,0.2598630935036622,-9.12812475537816,0.5223193520754448
7.409638747193732,-0.49791457844746273,7.356369792561012,0.26508628702441667,-9.088576978384907,0.47738035136052026
7.404659601409257,-0.5888003482313118,7.359020655431256,0.26986009053802185,-9.039950397832065,0.42247919279173907
7.398771597926944,-0.6791998522096324,7.361719256336636,0.27408488246593926,-8.981164310288143,0.3556832920564426
7.3919795994048485,-0.7690114953125139,7.364460105161296,0.2776417153865037,-8.911020843202321,0.2748513880630599
7.384289484451723,-0.8581217037445371,7.367236522315161,0.28039022926713425,-8.82823001636818,0.17767497275115696
7.375708267414278,-0.9464040039082189,7.370040424607832,0.2821669789946458,-8.731441586982738,0.06173080253169966
7.366244227375196,-1.0337184197780462,7.372862094397778,0.28278428701996283,-8.619284192107168,-0.07545457269528782
7.355907043177416,-1.119911261699118,7.375689937267977,0.28202974129300995,-8.490411842406024,-0.23632800415151087
7.344707930560425,-1.2048153801231782,7.378510234680907,0.27966646125149486,-8.34355717485577,-0.4232213677254168
7.3326597767591934,-1.288250951871736,7.381306899293422,0.2754342475742407,-8.177590052120314,-0.6382535580668833
7.319777267240476,-1.370026852392939,7.384061241769165,0.26905171199357186,-7.99157914952081,-0.8832262379760825
7.306076998716547,-1.449942643888147,7.3867517588891,0.26021944961381105,-7.78485318623079,-1.1595182499735641
7.2915775722776655,-1.527791175750455,7.389353953385238,0.2486242671140754,-7.557057568029821,-1.4679850055000538
7.276299660520161,-1.6033617514307532,7.391840196056379,0.23394441705907487,-7.308201580890822,-1.8088702177136282
7.260266043005854,-1.6764437672396615,7.39417964022697,0.21585571488193858,-7.0386910850433795,-2.1817377722051274
7.243501605333457,-1.7468306780900953,7.39633819737579,0.1940383371598873,-6.749342060631756,-2.5854311033237694
7.226033298552556,-1.8143240986964129,7.398278580747388,0.16818402612664962,-6.441371434106593,-3.0180660229758365
7.207890057565592,-1.8787378130374788,7.399960421008655,0.13800336589689124,-6.116363347562409,-3.4770605469652747
7.1891026794352175,-1.9399014465131028,7.401340454667624,0.1032327604272385,-5.776211269804345,-3.959202082860996
7.169703664970086,-1.9976635592111462,7.402372782271896,0.06364073959862854,-5.423038812103273,-4.460748768143204
7.149727029377975,-2.051893947332179,7.403009189667882,0.0190332519171965,-5.059104443409446,-4.977558291797077
7.129208089904654,-2.1024849917662736,7.403199522187054,-0.030742331000774274,-4.686697124883157,-5.505234740888931
7.108183239986991,-2.1493519630151052,7.402892098877047,-0.0857946784096636,-4.308030895723457,-6.039282342359313
7.08668972035684,-2.19243227197234,7.40203415209295,-0.14618750183325674,-3.925146475134522,-6.5752546824552525
7.0647653976371165,-2.231683736723685,7.400572277074618,-0.21194004865780927,-3.5398270114618726,-7.108889091801323
7.04244856026988,-2.267082006838304,7.39845287658804,-0.2830289395758225,-3.153533394411547,-7.636218143406061
7.019777740201497,-2.2986173407824193,7.395622587192282,-0.3593911210098831,-2.767362359356156,-8.153653199548707
6.996791566793672,-2.326290964375981,7.392028675982183,-0.4409276530053701,-2.3820283129475324,-8.658038156372772
6.973528657149912,-2.350111247505456,7.387619399452129,-0.5275080345690979,-1.997867727047842,-9.146674496874585
6.950027544674858,-2.3700899247759346,7.382344319106438,-0.6189747795378437,-1.6148633255962979,-9.617321115409217
6.926326645427098,-2.3862385580318977,7.3761545713110594,-0.7151479906919359,-1.2326842511424254,-10.068173923379108
6.902464259846779,-2.398565400543322,7.3690030914041404,-0.815829729925727,-0.8507379537664271,-10.49783095260168
6.878478605841345,-2.4070727800809864,7.360844794104883,-0.9208080394517438,-0.4682296148393241,-10.90524863548168
6.8544078780405355,-2.4117550762293796,7.3516367137103655,-1.0298605258065607,-0.08422536913530532,-11.289694333883398
