th1 (rad),w1 (rad/s),th2 (rad),w2 (rad/s)
2.3536636838886613,-1.424326329613646,5.5065350987550845,-1.236790549238272
2.339420420592525,-1.4945211162097116,5.494167193262702,-1.238064444690098
2.3244752094304277,-1.5657738804708945,5.481786548815801,-1.2394703837688306
2.3088174706257187,-1.6381430827824053,5.469391844978113,-1.2410489634369026
2.2924360397978947,-1.7116776300782681,5.4569813553437445,-1.2428249581495336
2.2753192634971118,-1.786415621860202,5.44455310576225,-1.2448051550287815
2.25745510727851,-1.862382987876198,5.432105054211962,-1.2469760184398908
2.238831277399748,-1.9395920153708912,5.419635294027563,-1.2493011840310382
2.219435357246039,-2.0180397682565534,5.407142282187253,-1.2517187899488575
2.1992549595634734,-2.0977064062084945,5.394625094287764,-1.254138662581455
2.1782778955013886,-2.1785534187466293,5.382083707661949,-1.2564393860814482
2.1564923613139224,-2.2605217980108834,5.369519313801135,-1.2584652993383525
2.133887143333814,-2.34353018434273,5.3569346608077515,-1.2600234812075413
2.1104518414903866,-2.4274730310835437,5.344334425995676,-1.2608808047759053
2.086177111179551,-2.51221884926249,5.331725617947917,-1.2607611642182277
2.0610549226869264,-2.597608609036118,5.319118006305735,-1.25934300311786
2.0350788365965653,-2.683454392663238,5.3065245762745565,-1.2562573004213127
2.008244292669933,-2.7695384130291227,5.293962003270344,-1.25108619847394
1.980548908539642,-2.8556125315398573,5.281451141285604,-1.2433624852938023
1.9519927832242434,-2.9413984284531827,5.269017516432666,-1.2325701681423147
1.9225787989397116,-3.026588595754036,5.256691814751243,-1.2181463944811768
1.8923129129821712,-3.1108483352830087,5.244510350806432,-1.199484985586054
1.861204429629341,-3.193818950092,5.232515500950571,-1.1759418425038275
1.829266240128421,-3.275122311398608,5.220756082525533,-1.1468424579591519
1.7965150170144348,-3.3543669629908663,5.209287657945941,-1.1114917150147692
1.762971347384526,-3.4311558852412087,5.198172740795793,-1.0691860676767022
1.728659788532114,-3.505095978102868,5.187480880119026,-1.0192280752355078
1.6936088287510853,-3.5758092338192684,5.177288599366672,-0.9609430984731291
1.6578507364128927,-3.642945455062941,5.16767916838194,-0.8936977636893925
1.6214212818622633,-3.706196235849383,5.158742190745047,-0.8169195676544185
1.5843593195037695,-3.765309768643395,5.150572995068503,-0.7301167486500596
1.5467062218173355,-3.8201058850703897,5.143271827582002,-0.6328973098806887
1.5085051629666317,-3.8704905987937988,5.136942854483196,-0.5249858837918246
1.4698002569786937,-3.9164693211753554,5.1316929956452775,-0.40623700642293575
1.4306355637669401,-3.9581578887058346,5.127630625581048,-0.27664336679537854
1.3910539848798817,-3.9957905984580564,5.124864191913095,-0.13633773663134488
1.3510960788953013,-4.029724608198919,5.123500814546781,0.01441241695727355
1.310798832813312,-4.060440321827878,5.123644938716354,0.17521819035995523
1.2701944295950331,-4.088537731781347,5.125397120619954,0.3455903801182457
1.2293090522772196,-4.114729093958681,5.128853024421136,0.5249679160372988
1.1881617613376327,-4.1398287206646485,5.134102703581509,0.7127524671302754
1.1467634741309862,-4.164741041693986,5.1412302282528115,0.9083476870457002
1.1051160637140465,-4.190448358168787,5.150313705123269,1.1112013620096628
1.0632115801323585,-4.217999870205705,5.161425718743366,1.3208487713517834
1.0210315814303015,-4.248503594087633,5.174634206456884,1.5369558757309942
0.9785465454894251,-4.283122719147811,5.190003765214193,1.759361482504275
0.935715318297947,-4.323077832390039,5.207597380039236,1.9881182465749128
0.8924845399740465,-4.369656316412758,5.227478562504985,2.223533183596374
0.8487879768099189,-4.424230162591462,5.249713894340949,2.466209241750929
0.8045456751840043,-4.4882834880015725,5.274375986758458,2.7170903568398783
0.7596628403039886,-4.563451234105702,5.301546890326857,2.977513279096953
0.7140283279629316,-4.651570857487279,5.331322023117826,3.2492702852554274
0.6675126193880588,-4.754749234344778,5.36381472597038,3.534687604210908
0.619965127044611,-4.87544729327587,5.399161602012489,3.8367247585767004
0.5712106541118523,-5.016584563646038,5.437528849598256,4.1590994194292135
0.5210448084753919,-5.181663675548187,5.479119843792549,4.506439175603109
0.46922817171991005,-5.374908033627528,5.52418423554858,4.884451940101731
0.41547909138363476,-5.6013877735578985,5.573028754949597,5.300081357605508
0.3594652136480558,-5.867064297046102,5.626029568525652,5.761551095270725
0.30079457067759474,-6.178577055266507,5.683645079478359,6.2780532601997745
0.23900880012492967,-6.542351332900831,5.746425612080357,6.858494355831548
0.17358528679592136,-6.96207565498217,5.815010555638673,7.507971060915179
0.10396453024609965,-7.432601941068162,5.8900902662478245,8.219253773781913
0.029638510835418033,-7.927168618452237,5.972282803985643,8.954936115350439
-0.049633175349104344,-8.376748962965843,6.061832165139148,9.618562647499886
-0.1334006649787628,-8.656292911882542,6.158017791614147,10.035415498764404
-0.2199635940975882,-8.62799936621791,6.258371946601791,10.013188179170616
-0.3062435877597673,-8.26522026828323,6.358503828393498,9.515372491969948
-0.3888957904425996,-7.703881775834361,6.453657553313197,8.732648117197586
-0.46593460820094323,-7.110854253343627,6.540984034485173,7.8984379888661165
-0.5370431507343795,-6.575025258314656,6.619968414373834,7.137105394427266
-0.6027934033175261,-6.118823577837652,6.691339468318106,6.4803954835339495
-0.6639816390959026,-5.736923642289844,6.756143423153445,5.921444294649415
-0.7213508755188011,-5.41704101926087,6.81535786609994,5.443702976658123
-0.7755212857114098,-5.14716841978986,6.869794895866521,5.030985652941889
-0.8269929699093084,-4.917355289376263,6.9201047523959405,4.669945297303835
-0.8761665228030711,-4.7197600585248,6.9668042053689785,4.350159067255913
-0.9233641233883191,-4.548276421959375,7.010305796041537,4.063625988824535
-0.9688468876079128,-4.398129628389937,7.050942055929783,3.80422389671118
-1.0128281838918123,-4.265541716839395,7.088984294896894,3.5672615328331956
-1.0554836010602062,-4.147475325843659,7.124656910225227,3.349138409072072
-1.0969583543186427,-4.0414430566808415,7.158148294315947,3.1470937945090727
-1.1373727848854511,-3.945366820245526,7.189619232261038,2.959022582592625
-1.1768264530879065,-3.857474248447803,7.219209458086965,2.783339304163012
-1.2154011955723845,-3.7762225755697942,7.247042851128595,2.618875975607714
-1.2531634213280824,-3.70024318882479,7.273231610884672,2.4648031960561703
-1.2901658532163303,-3.6283021250473375,7.297879642845233,2.320566729043345
-1.3264488744668037,-3.5592732389812483,7.3210853101356665,2.185833895301294
-1.3620416068566161,-3.492121717720354,7.34294364908868,2.060445692750407
-1.3969628240338197,-3.425896178251133,7.363548106016184,1.9443718394908878
-1.431221785816331,-3.3597278509463475,7.382991824411093,1.8376670401827528
-1.4648190643257943,-3.292835398158946,7.40136849481292,1.7404277809452084
-1.4977474183073838,-3.2245338178402947,7.418772772622372,1.6527498825482205
-1.5299927564857867,-3.1542457150619847,7.435300271447854,1.574687857744921
-1.5615352136364065,-3.0815130709803875,7.451047150025303,1.5062177621939823
-1.5923503443462104,-3.006007578026396,7.466109327647243,1.4472056196251182
-1.6224104201264744,-2.9275377065450305,7.480581383843494,1.3973835695556232
-1.6516857971919248,-2.846050958708033,7.49455521953905,1.3563355932616146
-1.680146306779005,-2.761630248957567,7.508118575471666,1.323494038504904
-1.7077626092685807,-2.67448398340831,7.521353515856715,1.29814726535397
-1.7345074491026637,-2.584930114742629,7.534334988510254,1.2794577074399764
-1.76035675025009,-2.4933751248813016,7.547129565584654,1.2664886481287703
-1.7852905014989031,-2.4002894360935505,7.559794452065941,1.2582372092625063
-1.8092933958598387,-2.306181094513507,7.5723768241585665,1.253670564903872
-1.8323552068049738,-2.2115696675737437,7.584913529807605,1.251762286668449
-1.8544709034807112,-2.116962151633999,7.5974311526742895,1.251525993211596
-1.8756405249970511,-2.0228323411516813,7.609946412606406,1.2520440434417996
-1.895868848408568,-1.9296046372258013,7.622466853040824,1.2524897674307192
-1.915164894780826,-1.837642753667239,7.634991750715131,1.2521425416182266
-1.9335413223174984,-1.747243289797859,7.647513176131313,1.2503957677034019
-1.951013755215477,-1.6586337393669965,7.660017133808347,1.246758420328602
-1.9676000926091468,-1.5719742274652913,7.672484718011633,1.2408512403676872
-1.9833198348837997,-1.4873621197890747,7.68489323041531,1.232398860903768
-1.9981934560816905,-1.4048386180768353,7.697217219024347,1.2212191854768437
-2.012241842262459,-1.3243965159158724,7.709429410879116,1.2072112353803834
-2.0254858074216178,-1.2459884091174922,7.721501523232919,1.1903424937192082
-2.0379456915127925,-1.1695348044703453,7.7334049481701115,1.1706365444734081
-2.0496410395574958,-1.094931725330609,7.745111313614846,1.1481615716581985
-2.0605903568108017,-1.0220575548800186,7.756592929331427,1.1230200720407844
-2.070810932359602,-0.9507789778851364,7.767823130051835,1.0953399589007575
-2.080318722138453,-0.8809559753636155,7.778776529640843,1.0652670990964872
-2.0891282818920893,-0.8124458940021624,7.789429200631807,1.0329592299641654
-2.097252740832111,-0.7451066564545312,7.799758792931449,0.9985811412838116
-2.1047038073966564,-0.6787992040425087,7.809744604344287,0.9623009739556834
-2.1114917994370814,-0.6133892744381225,7.819367614083844,0.9242874741680739
-2.1176256921814627,-0.5487486178269277,7.828610488825524,0.8847080433851092
-2.123113178359732,-0.48475574938154686,7.837457569259375,0.8437274352054461
-2.1279607358535473,-0.42129632638562187,7.84589484361143,0.8015069659984914
-2.1321736991174034,-0.35826322707945857,7.853909913271415,0.7582041242882546
-2.135756331388198,-0.29555639665496114,7.861491954514297,0.7139724821432998
-2.1387118953547475,-0.2330825147082789,7.86863167933573,0.668961829102138
-2.1410427205018303,-0.17075452838360072,7.875321297626751,0.6233184647216558
-2.1427502657856663,-0.10849108666122194,7.881554482273968,0.5771855993680174
-2.1438351766522783,-0.04621590382811395,7.887326338267648,0.5307038243105697
-2.1442973356905592,0.016142925921036375,7.892633376510754,0.48401162161566
-2.144135906431349,0.07865364567275873,7.897473492726911,0.43724589193462915
-2.1433493699746213,0.14138157147114724,7.901845951646257,0.39054248423583426
-2.1419355542599097,0.20438983600013275,7.905751376488615,0.34403671604220043
-2.139891655899908,0.26774013178162365,7.909191743649037,0.29786387598310854
-2.137214254582092,0.33149344667017594,7.912170382408869,0.25215970260341936
-2.13389932011539,0.3957107850620921,7.914691979434903,0.2070608345106532
-2.129942212264769,0.46045386830446655,7.91676258778001,0.16270522716642902
-2.1253376735817247,0.5257858073280479,7.918389640051674,0.1192325309884776
-2.1200798155084444,0.5917717395546234,7.919581965361559,0.07678442394060082
-2.114162098112898,0.6584794206416954,7.920349809600965,0.03550488943554504
-2.1075773039064813,0.7259797596025547,7.92070485849532,-0.004459572881060234
-2.1003175063104558,0.7943472832408873,7.92066026276651,-0.042959820122022575
-2.092374033478047,0.8636605126169783,7.920230664565289,-0.07984404485312153
-2.0837374283518773,0.9340022303634201,7.919432224116758,-0.11495788782472975
-2.074397406048243,1.0054596130416762,7.91828264523851,-0.14814472069688783
-2.064342809917826,1.078124197342483,7.916801198031541,-0.17924614361270183
-2.053561567944401,1.1520916427817853,7.915008736595414,-0.2081027526603958
-2.042040651516583,1.2274612466853831,7.912927709068811,-0.23455524366361669
-2.029766039049729,1.3043351598338013,7.910582156632175,-0.25844593114716574
-2.016722687451391,1.3828172434271448,7.907997697320703,-0.27962077434006444
-2.0028945150171196,1.463011500480778,7.905201489577303,-0.29793201502286715
-1.9882644000123118,1.5450200080695322,7.902222169427074,-0.31324154385184705
-1.9728141999316164,1.6289402720013355,7.899089753988556,-0.3254251209664181
-1.956524797211603,1.714861923897114,7.895835502778892,-0.33437758107650933
-1.939376177972632,1.8028626840933595,7.892491726968127,-0.3400191499992986
-1.9213475511316984,1.8930035245424999,7.889091535468134,-0.34230298516721375
-1.9024175158862735,1.9853229866811244,7.885668505616462,-0.34122402260518714
-1.8825642860194622,2.079830643113509,7.882256265390411,-0.33682916231544885
-1.8617659795883272,2.1764997420513863,7.878887973767257,-0.3292287477059149
-1.8400009821678134,2.275259142567501,7.875595686290198,-0.31860918783481385
-1.8172483907421384,2.3759847387217072,7.87240959441185,-0.30524643036789234
-1.7934885433549212,2.4784906815912815,7.86935713010817,-0.28951981751910427
-1.7687036365390085,2.5825208374983015,7.866461931932979,-0.2719256505205876
-1.7428784281640255,2.687741061773808,7.8637426754277735,-0.25308956020715534
-1.7160010175462874,2.793733009009942,7.861211779825702,-0.23377654985937535
-1.688063687456188,2.899990326520548,7.858874014327108,-0.2148973682293066
-1.6590637841909825,3.005918166358944,7.856725040644815,-0.19750972117877166
-1.6290046025273932,3.110836977891173,7.854749943433027,-0.18281278196900463
-1.5978962327484816,3.213991481798108,7.852921815613337,-0.17213355805788927
-1.5657563179305005,3.3145655544716432,7.851200480032758,-0.16690395767925015
-1.532610662385784,3.41170345342771,7.849531440455966,-0.16862790184762064
-1.4984936278515069,3.504537386111801,7.84784516143749,-0.17883855476692626
-1.4634482539903888,3.5922208794307915,7.84605677588982,-0.19904667568988427
-1.427526045196081,3.673966778539207,7.844066309132921,-0.2306821686368125
-1.3907863774106888,3.749088045513577,7.841759487446553,-0.27503202308257996
-1.353295496955553,3.8170389173267867,7.839009167215727,-0.3331788604956689
-1.3151251077822852,3.877453510928796,7.835677378610771,-0.40594506177432893
-1.2763505726729973,3.9301787325198876,7.831617927993028,-0.49384777385125805
-1.2370487853477985,3.975298452441705,7.826679450254515,-0.597069827043049
-1.1972958008233814,4.013146411400779,7.8207087519840846,-0.7154506477186063
-1.1571643367093736,4.044306237767322,7.813554245506898,-0.8484996379431411
-1.1167212743317003,4.069598212306008,7.805069249127467,-0.9954323644636994
-1.0760252922086402,4.090053864757151,7.79511492548283,-1.1552275400791117
-1.0351247535610686,4.106880908386306,7.783562650082039,-1.3267005745298237
-0.9940559444772056,4.121422173265863,7.77029564433674,-1.5085878200254454
-0.9528417227445469,4.1351128837184135,7.755209766136486,-1.699634855072041
-0.9114905939073628,4.1494407324884675,7.738213417585765,-1.8986823846462912
-0.8699961865824781,4.165912754102895,7.719226593739302,-2.104744518718182
-0.8283370590414492,4.186032134572729,7.6981791485521205,-2.317076071465789
-0.7864767376957219,4.211287035780042,7.675008387837463,-2.5352277405118837
-0.7443638673379215,4.243152501050395,7.6496561104323435,-2.759090217605386
-0.7019323423274175,4.283105746047035,7.62206520825629,-2.9889301773101096
-0.6591012848669472,4.332654755907394,7.592175906483188,-3.2254225562626484
-0.6157747373078732,4.393380154586307,7.559921680920562,-3.4696845817216824
-0.5718409357620102,4.466990766218177,7.525224835103345,-3.72331774662144
-0.5271710280998284,4.5553940779550635,7.487991657637131,-3.988464508513986
-0.48161708732027775,4.66078380702777,7.448107012551991,-4.2678870073784605
-0.43500924925000006,4.785747718089047,7.405428142478206,-4.565075449873557
-0.3871517720691096,4.933399165117067,7.35977738797947,-4.884393403965519
-0.3378177804179389,5.107534187289222,7.310933453939815,-5.231264338673434
-0.2867424385450467,5.3128090503690855,7.25862081055308,-5.612393811903338
-0.23361434804135586,5.554912794742219,7.202496872434047,-6.035993567613636
-0.17806522009393366,5.840656008854889,7.14213693675791,-6.511900204388985
-0.11965866000538478,6.177763900850041,7.0770179347140205,-7.051296813094638
-0.05788102099688436,6.573841690087595,7.0065049665830745,-7.665301325678965
0.007857395903991593,7.033254977686151,6.929851953326285,-8.36067383957673
0.0781899456808531,7.549241361946161,6.8462452149305175,-9.128898910712165
0.1536823593003147,8.086859402854135,6.7549562258233955,-9.92249023424099
0.23455095332885606,8.555511709072949,6.655731323480985,-10.616701169606698
0.32010607041958555,8.795527772318644,6.549564311784918,-10.990794081732693
0.408061348142772,8.653668588989866,6.439656370967591,-10.833393135374001
0.49459803403267066,8.149220320531033,6.331322439613851,-10.173673177998326
0.576090237237981,7.4797140113826055,6.229585707833868,-9.287765355086197
0.6508873773518071,6.822387304778944,6.136708054283006,-8.42179354483534
0.7191112503995966,6.247706276424858,6.052490118834653,-7.672983474910097
0.7815883131638451,5.762778552144096,5.975760284085552,-7.050961446366722
0.8392160986852861,5.354590136037006,5.905250669621885,-6.537874241612146
0.8927620000456562,5.007522613083122,5.839871927205763,-6.1125423068298925
0.9428372261764875,4.708162562335055,5.778746504137464,-5.757007038048112
0.989918851799838,4.445945666128603,5.721176433756983,-5.457356165381302
1.034378308461124,4.212733760577727,5.66660287210317,-5.203103959868536
1.0765056460669014,4.002248717302173,5.614571832504485,-4.986389457659848
1.116528133239923,3.80959350361258,5.564707937927886,-4.801301456927932
1.154624068276049,3.6308915591403954,5.516694923358607,-4.64336739247664
1.190932983867453,3.4630266386627087,5.4702612494338405,-4.509177527222723
1.22556325025408,3.3034589614343473,5.425169474161613,-4.396108153247116
1.2585978398684237,3.150097639791105,5.3812083926291425,-4.302113665497362
1.2900988162663347,3.0012147481328566,5.3381872559741685,-4.225565142760643
1.3201109637476633,2.8553907487406054,5.2959316045465625,-4.165119564367256
1.3486648712350695,2.7114839800348207,5.25428040890289,-4.119608799259426
1.3757797110354177,2.56861867342511,5.213084320910296,-4.0879414576329065
1.4014658977696688,2.4261866941012826,5.172204906333967,-4.069014069715322
1.4257277647106816,2.2838580842064746,5.131514765636814,-4.061631192830756
1.4485663455527464,2.1415947368336203,5.0908984537085065,-4.064437076522155
1.4699822929210826,1.9996604611705657,5.050254082943285,-4.075864291976963
1.4899788975327883,1.858619794408063,5.009495440023516,-4.094106796874794
1.508565095476869,1.7193178277601853,4.968554372054768,-4.117125519865125
1.5257582737544708,1.582834754028683,4.927383116856117,-4.142692874417233
1.5415866212947575,1.4504123184698097,4.885956188111944,-4.16847809616208
1.5560907444794556,1.323354792425373,4.844271407150323,-4.192168170207595
1.5693242924037094,1.2029135388159027,4.802349725448248,-4.211610772222212
1.5813534277918684,1.090169894651359,4.760233617726025,-4.224958574724334
1.592255126738382,0.9859338438015175,4.717984031978782,-4.230791267445133
1.6021144651763972,0.8906743226477004,4.67567611930433,-4.228194535901127
1.6110212084028743,0.8044910402536471,4.633394173945319,-4.216783768422274
1.6190661188054107,0.7271291689915157,4.591226336261096,-4.196671885576654
1.6263374104953259,0.6580299320644676,4.54925961740533,-4.168391662164179
1.6329177098159706,0.5964044779973384,4.507575700783688,-4.132789994715829
1.638881754595944,0.5413166852388224,4.46624780083653,-4.090913344209913
1.6442949214483322,0.4917623240996512,4.42533866739443,-4.043900722307101
1.6492125446893287,0.44673591904859766,4.384899660171359,-3.9928950753117287
1.6536799038798147,0.4052810817731992,4.344970709418242,-3.9389779375690464
1.6577327146975467,0.3665238181756754,4.305580930042552,-3.883127334992843
1.6613979528793035,0.3296907909971656,4.266749656692624,-3.826195788631533
1.664694860789275,0.29411573149073317,4.228487698806308,-3.7689038443876326
1.6676360181041825,0.2592374325548511,4.190798660362432,-3.7118444011827663
1.670228392429731,0.22459239983365326,4.153680216350605,-3.655493703314775
1.6724743164280675,0.18980461199441256,4.117125279317457,-3.600225769061923
