th1 (rad),w1 (rad/s),th2 (rad),w2 (rad/s),a1 (rad/s^2),a2 (rad/s^2)
3.442367699753168,1.780302752397718,0.5263211038877723,-1.6396165809510868,1.04566132377472,-3.1950917251743896
3.460170727277145,1.7907593656354652,0.5099249380782614,-1.6715674982028306,1.4574895961203145,-2.742728902805763
3.4780783209335,1.8053342615966683,0.49320926309623314,-1.6989947872308881,1.8941593014418059,-2.26020549412739
3.4961316635494666,1.8242758546110864,0.47621931522392424,-1.7215968421721621,2.3515366029481206,-1.7544389661912079
3.5143744220955773,1.8477912206405676,0.4590033468022026,-1.7391412318340742,2.824184883500693,-1.2342191928401718
3.532852334301983,1.8760330694755745,0.4416119344838619,-1.751483423762476,3.30547951704078,-0.7100636360129541
3.551612664996739,1.9090878646459823,0.42409710024623715,-1.7585840601226055,3.7878359681074807,-0.19391620141419344
3.570703543643199,1.9469662243270571,0.4065112596450111,-1.7605232221367475,4.263046805593015,0.3013059127391516
3.5901732058864693,1.9895966923829873,0.38890602742364366,-1.757510163009356,4.722707425010614,0.7622915358355418
3.610069172810299,2.0368237666330935,0.3713309257935501,-1.7498872476510006,5.158695213370659,1.1759942944791586
3.63043741047663,2.0884107187668,0.3538320533170401,-1.738127304706209,5.563655903953582,1.5303083873103642
3.6513215176642984,2.1440472778063357,0.336450780269978,-1.7228242208331053,5.931446801014817,1.8146922905978768
3.672761990442362,2.203361745816484,0.3192225380616469,-1.7046772979271265,6.257490830151847,2.0206758848774453
3.694795607900527,2.2659366541180024,0.30217576508237565,-1.684470539078352,6.539007432221912,2.1422017261217303
3.717454974441707,2.3313267284402217,0.2853310596915921,-1.6630485218171347,6.775103703577141,2.175773973822271
3.740768241726109,2.399077765475993,0.2687005744734208,-1.641290782078912,6.966728228578739,2.1204140266119325
3.764759019380869,2.4687450477617805,0.25228766665263164,-1.6200866418127926,7.116506959802399,1.9774451104935473
3.789446469858487,2.5399101173598044,0.2360868002345037,-1.6003121907078572,7.228492385489906,1.7501449160979274
3.814845571032085,2.6121950412147035,0.22008367832742515,-1.582810741546878,7.3078627178699485,1.443313858631849
3.8409675214442323,2.685273668393403,0.20425557091195637,-1.5683776029605594,7.360607175491951,1.0628067261871978
3.8678202581281664,2.7588797401483225,0.18857179488235076,-1.5577495356986875,7.393228059053217,0.6150691213747712
3.8954090555296497,2.8328120207388547,0.17299429952536388,-1.5515988444849398,7.4124822530443595,0.10670975850412641
3.9237371757370383,2.9069368432692984,0.1574783110805145,-1.5505317468998985,7.425176015884814,-0.45587203941419363
3.9528065441697313,2.9811886034281465,0.1419729936115155,-1.5550904672940404,7.4380189953016,-1.0667953177500116
3.982618430204013,3.0555687933811626,0.1264220889385751,-1.5657584204715405,7.457537252858776,-1.7209436454758473
4.013174118137824,3.1301441659097504,0.11076450473385968,-1.5829678569262988,7.490041045366903,-2.414155679626891
4.044475559796922,3.2050445763634197,0.0949348261645967,-1.6071094137225677,7.54164109925734,-3.1433714759822418
4.076526005560556,3.280460987355993,0.07886373202737101,-1.6385431284823901,7.618306784533584,-3.906748015964717
4.109330615434116,3.356644055201329,0.06247830074254711,-1.6776106086420373,7.725960518573404,-4.703758185869619
4.142897055986129,3.433903660387063,0.04570219465612674,-1.7246481905007334,7.870604506207904,-5.535287458142979
4.177236092589999,3.512609705449142,0.028455712751119404,-1.7800010650821632,8.058478242709576,-6.4037423242231055
4.212362189644491,3.5931944878762376,0.010655702100297773,-1.844038488324394,8.296247876972734,-7.31318454575141
4.248294134523253,3.676156966645965,-0.007784682782946167,-1.9171703337819082,8.591231469285336,-8.269505850677241
4.2850557041897135,3.7620692813388183,-0.02695638612076525,-1.9998653922886807,8.951667384547859,-9.280659034091794
4.322676397003102,3.851585955184297,-0.04695504004365206,-2.0926719826295987,9.387036590034034,-10.356963670791007
4.361192256554945,3.945456321084637,-0.06788175986994804,-2.196241619337509,9.908453518861606,-11.511507823100242
4.400646819765791,4.044540856273254,-0.08984417606332314,-2.3113566975685114,10.529144338715625,-12.760671008791265
4.4410922283285235,4.14983229966041,-0.11295774303900825,-2.438963407656424,11.265035513229563,-14.12479752991007
4.482590551325128,4.262482654792706,-0.1373473771155725,-2.5802113829555244,12.135478242148825,-15.62905113729464
4.525215377873055,4.383837437214194,-0.16314949094512773,-2.736501894328471,13.164132706175353,-17.30447743908634
4.569053752245197,4.515478764275948,-0.19051450988841245,-2.9095466687193343,14.380023093154746,-19.189279405197357
4.614208539887956,4.6592789952074956,-0.2196099765756058,-3.101439462771308,15.818734692382208,-21.330251658061854
4.660801329840031,4.8174663421313175,-0.2506243712033189,-3.3147419793519264,17.523623959347415,-23.784172728962687
4.708975993261344,4.992702581724791,-0.28377179099683814,-3.552583706641553,19.546677241044826,-26.618616230295626
4.758903019078592,5.18816935413524,-0.3192976280632537,-3.8187698689445093,21.94812267717863,-29.910884661411497
4.810784712619944,5.407650580907026,-0.3574853267526988,-4.117878715558624,24.792725484042233,-33.742104600756534
4.864861218429015,5.655577835747448,-0.39866411390828504,-4.45529976156619,28.138148288659004,-38.17992164870271
4.92141699678649,5.936959318634038,-0.44321711152394694,-4.837098978053217,32.005381945644224,-43.23565722802297
4.98078658997283,6.25701313809048,-0.4915881013044791,-5.269455550333447,36.310569482343624,-48.766763847490225
5.043356721353734,6.620118832913916,-0.5442826568078136,-5.757123188808349,40.719245750605616,-54.26973003912795
5.109557909682874,7.027311290419973,-0.6018538886958971,-6.299820489199629,44.3654794924466,-58.482739046235
5.179831022587074,7.470966085344439,-0.6648520935878933,-6.884647879661979,45.41677172551144,-58.772078741753795
5.254540683440518,7.925133802599554,-0.7336985723845131,-7.472368667079517,40.765788776655924,-50.700618679555774
5.333792021466514,8.332791690366113,-0.8084222590553083,-7.9793748538750755,26.991335452406013,-29.392231440257483
5.417119938370175,8.602705044890174,-0.888216007594059,-8.27329716827765,4.17174857332904,5.072719698754789
5.5031469888190765,8.644422530623464,-0.9709489792768355,-8.222569971290103,-20.181897111086602,42.08385995862256
5.589591214125311,8.442603559512598,-1.0531746789897365,-7.801731371703877,-35.8921278285701,67.19407892245479
5.674017249720436,8.083682281226897,-1.1311919927067753,-7.129790582479329,-40.094791082789826,76.20665019549956
5.754854072532705,7.682734370398999,-1.2024898985315686,-6.367724080524333,-36.957464512645764,74.86057752689274
5.8316814162366954,7.313159725272541,-1.266167139336812,-5.619118305255405,-31.07938961307183,69.58086463568452
5.904813013489421,7.002365829141823,-1.322358322389366,-4.92330965889856,-24.914111896099087,63.8249051107357
5.97483667178084,6.753224710180832,-1.3715914189783516,-4.285060607791204,-19.356150325770393,58.87084619208707
6.042368918882648,6.559663206923128,-1.4144420250562637,-3.696352145870333,-14.601360108125538,55.008170047206704
6.107965550951879,6.413649605841872,-1.4514055465149671,-3.1462704453982657,-10.602314359653016,52.17141824395917
6.172102047010298,6.307626462245342,-1.4828682509689497,-2.624556262958674,-7.2517397283379825,50.19668481704872
6.235178311632751,6.2351090649619625,-1.5091138135985365,-2.122589414788187,-4.446002845943694,48.91100726783107
6.297529402282371,6.190649036502526,-1.5303397077464183,-1.6334793421098763,-2.1029313342489724,48.15795799521563
6.359435892647396,6.169619723160036,-1.546674501167517,-1.15189976215772,-0.16372482010469533,47.80111936064431
6.421132089878997,6.167982474958989,-1.5581934987890942,-0.673888568551277,1.4100705011084789,47.72104525575385
6.482811914628587,6.182083179970074,-1.564932384474607,-0.19667811599373847,2.640738206373153,47.8112759042377
6.544632746428288,6.208490562033806,-1.5668991656345443,0.2814346430486385,3.5385536428871025,47.97524702865294
6.606717652048626,6.243876098462676,-1.564084819204058,0.761187113335168,4.105660117452887,48.12456870029563
6.669156413033253,6.2849326996372055,-1.5564729480707062,1.2424328003381242,4.339638298623487,48.17863693657122
6.732005740029625,6.328329082623441,-1.544048620067325,1.7242191697038365,4.23676554949069,48.065325473512395
6.79528903085586,6.3706967381183475,-1.5268064283702865,2.2048724244389604,3.79490850994678,47.72239329302749
6.858995998237043,6.408645823217816,-1.5047577041258968,2.682096357369235,3.0159381862502053,47.09918372613496
6.9230824564692215,6.4388052050803175,-1.4779367405522044,3.153088194630585,1.9075363310509834,46.15818370299211
6.987470508520024,6.457880568390827,-1.4464058586058985,3.614670031660506,0.484289163650747,44.8760687219529
7.052049314203932,6.462723460027335,-1.4102591582892934,4.063430718880035,-1.2319635608671067,43.24398182665924
7.116676548804206,6.450403824418664,-1.369624851100493,4.495870537146628,-3.2124582607922054,41.2669647517006
7.1811805870483925,6.418279241810741,-1.3246661457290267,4.908540184663634,-5.422355644916247,38.962639191559035
7.2453633794665,6.364055685361579,-1.2755807438823905,5.2981665765792245,-7.821885978509244,36.359380870716855
7.309003936320116,6.285836825576486,-1.2225990781165983,5.661760385286393,-10.367563484914731,33.494301549706286
7.371862304575881,6.182161190727339,-1.1659814742637344,5.996703400783456,-13.013292642930995,30.411338116175415
7.4336839164831545,6.052028264298029,-1.1060144402558998,6.30081678194521,-15.71128260743715,27.15965355370953
7.494204199126135,5.8949154382236575,-1.0430062724364477,6.572413317482305,-18.412794336068103,23.79241389475929
7.553153353508372,5.710787494862976,-0.9772821392616247,6.810337456429898,-21.068836436087732,20.36586125440061
7.610261228457001,5.5000991305020985,-0.9091787646973257,7.0139960689739045,-23.63097364441036,16.9384967915813
7.665262219762022,5.263789394057995,-0.8390388040075867,7.183381036889718,-26.052401717573762,13.570147475261882
7.717900113702602,5.003265376882258,-0.7672049936386895,7.319082511642336,-28.289375455078332,10.32072650246586
7.767932767471425,4.7203716223314744,-0.6940141685222662,7.422289776666995,-30.30296929627175,7.2485983570755605
7.81513648369474,4.417341929368757,-0.6197912707555963,7.494775760237751,-32.06103107246023,4.408597593370356
7.859309902988428,4.096731618644155,-0.5448435131532188,7.538861736171454,-33.5400927100975,1.8498869695448106
7.900277219174869,3.7613306915431797,-0.46945489579150423,7.5573606058669025,-34.726956296619655,-0.38606288098502706
7.937890526090301,3.414061128576983,-0.3938812897328352,7.553499977057053,-35.61969575136604,-2.267060612321891
7.972031137376071,3.0578641710633225,-0.31834628996226466,7.530829370933834,-36.22790002900915,-3.771081700572468
8.002609779086704,2.695585170773231,-0.24303799625292632,7.493118553928109,-36.57211143717693,-4.886295381948828
8.029565630794437,2.329864056401462,-0.16810681071364525,7.444255600108621,-36.68254913432226,-5.610205223474896
8.052864271358452,1.9630385650582394,-0.09366425471255904,7.388153547873872,-36.597319901847754,-5.948006353636134
8.072494657009035,1.5970653660397618,-0.01978271923382033,7.32867348433751,-36.360382741816395,-5.910355013467097
8.088465310669433,1.233461538621598,0.05350401560955477,7.269569934202839,-36.0195432683095,-5.510787263450866
8.100799926055648,0.873266105938503,0.12619971495158316,7.214462061568331,-35.624715517241015,-4.763014663077941
8.109532587115034,0.5170189507660927,0.1983443355672665,7.166831914937552,-35.226618819480784,-3.678280118110229
8.114702776622694,0.16475276257128485,0.27001265471664204,7.130049113756449,-34.87599271728859,-2.262899256879151
8.116350304248407,-0.18400716460160105,0.3413131458542065,7.1074201211876575,-34.62332374836649,-0.516067739346963
8.11451023260239,-0.530240402085266,0.4123873470660831,7.102259443794188,-34.51898124498479,1.571986795741582
8.109207828581537,-0.8754302145351139,0.483409941504025,7.117979311751604,-34.613531689230925,4.021344854327715
8.100453526436185,-1.2215655314274232,0.554589734621541,7.158192760294881,-34.95778639101646,6.862816897228271
8.088237871121912,-1.5711433953375877,0.6261716622244898,7.226820929267164,-35.601720375364856,10.136475939002803
8.072526437168536,-1.9271605990912364,0.6984398715171615,7.328185688657192,-36.59055584451053,13.886152146282612
8.053254831177624,-2.293066157536342,0.7717217284037334,7.467047210120018,-37.95460349601195,18.145353639134342
8.03032416960226,-2.6726121924964614,0.8463922005049336,7.6485007465113615,-39.686152250238955,22.905428795784953
8.003598047677295,-3.069473714998851,0.9228772079700472,7.877555034469211,-41.690774694191255,28.04840759000179
7.972903310527307,-3.4863814619407636,1.0016527583147394,8.158039110369229,-43.691723883436865,33.21452340183851
7.938039495907899,-3.923298700775132,1.0832331494184317,8.490184344387615,-45.060942736219204,37.56646819843285
7.898806508900147,-4.373908128137324,1.168134992862308,8.865849026371944,-44.57982763761253,39.45221150969824
7.855067427618774,-4.8197064045134494,1.2567934831260275,9.260371141468926,-40.28860775537866,36.18318940875296
7.80687036357364,-5.2225924820672365,1.3493971945407166,9.622203035556456,-29.974260242569866,24.689118387189957
7.754644438752967,-5.522335084492935,1.4456192248962811,9.869094219428355,-13.07873828208454,4.138982460462954
7.699421087908037,-5.65312246731378,1.5443101670905648,9.910484044032984,6.83169553612325,-20.654098974426372
7.6428898632349,-5.584805511952548,1.6434150075308946,9.70394305428872,23.14566640547977,-40.72526295798966
7.587041808115375,-5.353348847897751,1.7404544380737819,9.296690424708823,31.70665561548499,-50.5101637371868
7.533508319636398,-5.036282291742901,1.83342134232087,8.791588787336956,33.39090131497065,-51.303210484333526
7.483145496718969,-4.702373278593194,1.9213372301942395,8.27855668249362,31.243700495475796,-47.268234624566766
7.436121763933037,-4.389936273638437,2.0041227970191757,7.805874336247953,27.673397927836504,-41.62693362168043
7.392222401196652,-4.113202294360072,2.0821815403816553,7.389605000031149,23.923693772624667,-35.99397169991717
7.351090378253051,-3.873965356633825,2.1560775903819667,7.029665283031977,20.48589715235786,-30.969903451568968
7.312350724686713,-3.669106385110246,2.2263742432122866,6.719966248516287,17.49402198753897,-26.686762458099402
7.27565966083561,-3.4941661652348563,2.2935739056974493,6.453098623935293,14.939361614369025,-23.09800630174642
7.2407179991832615,-3.344772549091166,2.358104891936802,6.2221185609178296,12.766333014725815,-20.104862043684744
7.20727027369235,-3.217109218943908,2.4203260775459805,6.021069940480982,10.91086947811154,-17.605045674192702
7.175099181502911,-3.108000524162793,2.4805367769507902,5.845019483739055,9.314090564370245,-15.508819208660707
7.144019176261283,-3.0148596185190906,2.5389869717881806,5.689931291652448,7.9260276044437505,-13.742322851565305
7.113870580076092,-2.935599342474653,2.595886284704705,5.552508063136795,6.705640800604709,-12.246413077574774
7.084514586651346,-2.8685429344686058,2.651411365336073,5.430043932361047,5.619658406219432,-10.974238637697137
7.055829157306659,-2.8123463504064112,2.7057118046596833,5.320301545984076,4.641221810571386,-9.888735676455527
7.027705693802595,-2.765934132300697,2.758914820119524,5.221414189219521,3.748690884148288,-8.960404741146258
7.000046352479588,-2.7284472234592143,2.8111289620117192,5.131810141808058,2.924716695058898,-8.165418009282957
6.972761880244996,-2.699200056508625,2.8624470634298,5.0501559617152285,2.1555983634501756,-7.483993674338884
6.94576987967991,-2.6776440728741235,2.9129486230469523,4.97531602497184,1.4309121926985087,-6.898944475298524
6.918993438951168,-2.6633349509471382,2.9627017832966707,4.906326580218855,0.7433925361631819,-6.394312606474475
6.892360089441697,-2.6559010255855062,3.0117650490988592,4.842383454154111,0.08903434825800184,-5.954030470471538
6.865801079185841,-2.655010682102926,3.0601888836404005,4.782843149449396,-0.532636239532697,-5.560598135936874
6.839250972364812,-2.660337044498253,3.1080173151348944,4.727237168090027,-1.1182247851898055,-5.193852488394195
6.812647601919829,-2.6715192923501507,3.1552896868157947,4.675298643206085,-1.6602432215927805,-4.830025667143632
6.785932408996327,-2.6881217245660785,3.2020426732478557,4.626998386534648,-2.1472720004392802,-4.44143987462328
6.759051191750666,-2.709594444570471,3.2483126571132024,4.582583987788415,-2.5648668306491524,-3.997312498110604
6.7319552473049615,-2.7352431128769625,3.2941384969910867,4.542610862807309,-2.8975583553811926,-3.4661457537460305
6.704602816176192,-2.7642186964307744,3.33956460561916,4.507949405269849,-3.1320928497088643,-2.8199059284212904
6.676960629211885,-2.795539624927863,3.3846440996718585,4.479750345985636,-3.261603191990951,-2.039561872031172
6.649005232962606,-2.8281556568477724,3.429441603131715,4.459354727265324,-3.2897589409067916,-1.1206550928952022
6.620723676394129,-2.8610532462568403,3.4740351504043683,4.448148176336372,-3.2334272942672553,-0.076840938876025
6.59211314393156,-2.893387519199513,3.518516632167732,4.447379766947612,-3.1224278184443675,1.0606006436650768
6.563179268739566,-2.9246117973839567,3.562990429837208,4.457985773384262,-2.995839426757239,2.2480682225501676
6.533933150765726,-2.9545701916515292,3.607570287571051,4.480466455609764,-2.8957315472007603,3.4385584601463783
6.504387448849211,-2.983527507123537,3.6523749521271487,4.5148520402112275,-2.860351260291151,4.591373399161324
6.474552173777975,-3.0121310197264486,3.697523472529261,4.5607657742028405,-2.9189705572460936,5.679542307852567
6.444430863580711,-3.0413207252989096,3.7431311302712893,4.617561197281366,-3.0897137428705923,6.693129664928511
6.414017656327721,-3.0722178627276158,3.789306742244103,4.684492493930651,-3.3803694466131966,7.638454955033697
6.383295477700445,-3.1060215571937477,3.8361516671834095,4.7608770434809875,-3.7912104331238923,8.534632490981952
6.352235262128508,-3.1439336615249864,3.8837604376182195,4.846223368390807,-4.318558683690532,9.409241242604283
6.3207959255132575,-3.187119248361892,3.9322226713021275,4.940315780816849,-4.9581124992975045,10.294542982532839
6.2889247330296385,-3.236700373354867,3.981625829110296,5.043261210642178,-5.707547650482824,11.22497816082141
6.25655772929609,-3.293775849859695,4.0320584412167175,5.155510992250392,-6.568333351075503,12.23608334787189
6.223619970797493,-3.35945918337045,4.083613551139221,5.27787182572911,-7.546954364682788,13.364649141232459
6.190025378963789,-3.434928727017278,4.136392269396512,5.411518317141435,-8.655819808027827,14.649847642461308
6.155676091693616,-3.5214869250975562,4.1905074525679264,5.558016793566048,-9.914131921645948,16.135109942950294
6.12046122244264,-3.6206282443140156,4.246087620503587,5.7193678929955505,-11.348941762352037,17.870638829838615
6.0842549399995,-3.7341176619375362,4.303281299433543,5.898074281293937,-12.996562759677166,19.91654044630249
6.046913763380124,-3.864083289534308,4.362262042246482,6.0972396857569615,-14.904444144536665,22.346606091178426
6.0082729304847815,-4.013127730979675,4.423234439104052,6.320705746668746,-17.13348062266448,25.252707107687545
5.9681416531749845,-4.184462537206319,4.486441496570739,6.573232817745621,-19.76043533272233,28.749432557343862
5.926297027802922,-4.382066890533543,4.552173824748196,6.86072714331906,-22.879397193840198,32.97762727004636
5.882476358897586,-4.610860862471945,4.620781096181386,7.190503416019524,-26.599298899500845,38.10294889688131
5.836367750272866,-4.8768538514669535,4.692686130341582,7.571532904988337,-31.029846158122716,44.29918987229628
5.787599211758197,-5.1871523130481805,4.768401459391465,8.0145248037113,-36.236900324427964,51.69053781917091
5.7357276886277155,-5.54952131629246,4.848546707428579,8.531430181903009,-42.12210450569986,60.190509621969994
