th1 (rad),w1 (rad/s),th2 (rad),w2 (rad/s),a1 (rad/s^2),a2 (rad/s^2)
1.2338279214676364,-0.7288760838705758,5.25223369424005,-0.6741956601082189,-8.30294158590507,3.50411362119499
1.2265391606289306,-0.8119054997296264,5.245491737638968,-0.6391545238962689,-8.197184746434088,3.7075428877100616
1.2184201056316344,-0.8938773471939674,5.239100192400005,-0.6020790950191683,-8.083776139542726,3.9308545396800367
1.2094813321596947,-0.9747151085893947,5.233079401449813,-0.5627705496223679,-7.963217586158039,4.173277355291209
1.1997341810738007,-1.0543472844509751,5.227451695953589,-0.5210377760694559,-7.836125066866009,4.433967611729637
1.189190708229291,-1.1327085351196353,5.222241318192895,-0.4766980999521595,-7.703234142734246,4.712008345709834
1.1778636228780945,-1.2097408765469777,5.217474337193373,-0.42957801649506117,-7.5654052759322505,5.006410219634994
1.1657662141126248,-1.2853949293063003,5.213178557028423,-0.37951391429871123,-7.423628719518713,5.316114588541751
1.1529122648195618,-1.3596312165014874,5.2093834178854355,-0.32635276841329375,-7.279028635158958,5.639999394414106
1.1393159526545469,-1.4324215028530771,5.206119890201302,-0.26995277446915267,-7.132866108693453,5.97688851528876
1.1249917376260161,-1.5037501639400117,5.203420362456611,-0.21018388931626508,-6.98654077035692,6.3255651631340655
1.109954235986616,-1.573615571643581,5.201318523563448,-0.1469282376849244,-6.841590792124536,6.684789855021512
1.0942180802701802,-1.6420314795648263,5.199849241186599,-0.0800803391347093,-6.699691130896751,7.053323377523241
1.0777977654745319,-1.7090283908737938,5.199048437795252,-0.009547105359476893,-6.562650013060529,7.429955028739805
1.060707481565794,-1.774654891004399,5.198952966741657,0.06475244492792116,-6.432403811379822,7.813536263808626
1.04296093265575,-1.8389789291181973,5.199600491190936,0.14288780756600744,-6.311010644999346,8.203019699998197
1.0245711433645681,-1.9020890355681908,5.201029369266596,0.22491800456598943,-6.200643231363352,8.597503272104321
1.0055502530088862,-1.9640954678818243,5.203278549312256,0.31089303728703266,-6.103581727179155,8.99627918645569
0.985909298330068,-2.025131285153616,5.206387479685127,0.40085582915158957,-6.022207505396891,9.398887223028371
0.9656579854785319,-2.0853533602075847,5.2103960379766425,0.4948447013818733,-5.958999017822374,9.805171901129754
0.944804451876456,-2.1449433503858084,5.215344484990461,0.5928964203931708,-5.916531081004747,10.215343074863965
0.9233550183725979,-2.204108661195856,5.221273449194393,0.6950498511418105,-5.89747909154518,10.630039677263824
0.9013139317606393,-2.263083452111308,5.228223947705811,0.8013502479144488,-5.904629824655604,11.050396599203987
0.8786830972395263,-2.3221297503578637,5.236237450184955,0.9118542139064887,-5.940900599605403,11.47811507780333
0.8554617997359477,-2.3815387563539177,5.24535599232402,1.0266353646845219,-6.009368714750206,11.91553747889596
0.8316464121724085,-2.44163244350142,5.255622345970865,1.1457907394734814,-6.113313173239663,12.365727981223696
0.8072300877373944,-2.5027655752338163,5.2670802533656,1.2694480192857185,-6.25627084845952,12.832561388349946
0.7822024319850562,-2.5653282837184115,5.279774733558456,1.3977736331692179,-6.442109380651928,13.320823076024304
0.7565491491478721,-2.6297493775249308,5.293752469890149,1.530981863929461,-6.675119242864506,13.836323872956088
0.7302516553726228,-2.696500569953576,5.309062288529443,1.6693451026590218,-6.960127523424926,14.38603437508611
0.7032866496730871,-2.766101845187825,5.325755739556033,1.8132054464098828,-7.30263593987967,14.978243632268033
0.6756256312212088,-2.8391282045866215,5.343887794020132,1.962987882732563,-7.708985207057999,15.622746997506697
0.6472343491753425,-2.9162180566572014,5.363517672847458,2.11921535270763,-8.186546698815217,16.331066587018622
0.6180721686087705,-2.9980835236453536,5.384709826374534,2.282526018577816,-8.74393954803527,17.11670413133225
0.5880913333723169,-3.0855229191257063,5.407535086560312,2.4536930598911386,-9.391265381902397,17.995417884705414
0.5572361041810598,-3.17943557294473,5.432072017159223,2.6336472387381926,-10.140340916567443,18.985498744477603
0.5254417484516125,-3.2808389821104047,5.458408489546605,2.8235022261829688,-11.004885292217786,20.107988425572486
0.49263335863050844,-3.3908878350325824,5.486643511808435,3.0245821104386934,-12.000574380194104,21.386720660036005
0.45872448028018264,-3.5108935788345232,5.516889332912822,3.2384493170390534,-13.14478990940467,22.84794932129748
0.4236155444918374,-3.64234147792857,5.549273826083212,3.4669288102520284,-14.455733192967006,24.519107790542705
0.38719212971255174,-3.7868988098582403,5.5839431141857325,3.7121198881574555,-15.950279980155171,26.4258358684699
0.3493231416139693,-3.9464016096597923,5.621064313067307,3.9763782468421547,-17.639417012990055,28.585663592003986
0.3098591255173714,-4.122795779789692,5.660828095535728,4.262234882762194,-19.519148627504865,30.99541175723515
0.2686311677194745,-4.317987266064741,5.70345044436335,4.572189000334546,-21.553163664284998,33.60713309700426
0.22545129505882708,-4.533518902707591,5.749172334366695,4.9082603313045885,-23.641191860156518,36.284105902802395
0.18011610603175116,-4.769930821309156,5.798254937679741,5.271101390332612,-25.564588243146808,38.72501824964
0.1324167978186596,-5.025576703740624,5.850965951583067,5.658351572829012,-26.902217117797665,40.34656386329506
0.08216103078125334,-5.2945988749186,5.907549467311357,6.061817211461963,-26.927996614200694,40.140174089470335
0.02921504203206733,-5.563878841060608,5.968167639425976,6.463218952356667,-24.564735103138847,36.60711583236076
-0.026423746378538747,-5.8095261920919965,6.0327998289495435,6.829290110680274,-18.599205866633362,28.058723193622594
-0.08451900829945871,-5.99551825075833,6.1010927300563464,7.1098773426165,-8.441247923225138,13.677598865545868
-0.14447419080704202,-6.079930729990582,6.172191503482511,7.2466533312719585,4.7262154254437645,-4.875449529377894
-0.20527349810694784,-6.032668575736144,6.244658036795231,7.1978988359781795,17.69122672374767,-23.108704325991035
-0.2656001838643093,-5.855756308498668,6.316637025155013,6.96681179271827,27.06248412885697,-36.291405371415316
-0.32415774694929594,-5.585131467210099,6.386305143082196,6.6038977390041165,31.575407776531822,-42.671977463777154
-0.3800090616213969,-5.269377389444781,6.452344120472237,6.177177964366345,32.187346362427256,-43.59776145945695
-0.4327028355158447,-4.9475039258205085,6.5141159001159,5.741200349771776,30.568452270247896,-41.4015511797623
-0.4821778747740498,-4.6418194031180295,6.571527903613618,5.327184837974153,28.026591249086376,-37.904513233153345
-0.52859606880523,-4.361553490627166,6.6247997519933595,4.948139705642619,25.305050238252193,-34.13890638447254
-0.5722116037115017,-4.108502988244644,6.6742811490497855,4.606750641797894,22.746715761029478,-30.57950183296702
-0.6132966335939481,-3.881035830634349,6.720348655467764,4.300955623468224,20.47638854080742,-27.398281143634378
-0.6521069919002916,-3.676271945226275,6.763358211702446,4.02697281203188,18.516187580169454,-24.62507490545965
-0.6888697113525544,-3.4911100694245802,6.803627939822765,3.7807220629772833,16.845713754129015,-22.231075567818145
-0.7237808120468001,-3.3226529318832903,6.841435160452538,3.5584113072991017,15.430420127051253,-20.16811628269649
-0.757007341365633,-3.1683487306127778,6.877019273525529,3.3567301444721367,14.2339806159197,-18.385750448998483
-0.7886908286717608,-3.026008924453581,6.91058657497025,3.1728726399821516,13.2231305745844,-16.83791720550535
-0.8189509179162966,-2.8937776187077366,6.942315301370072,3.004493467927098,12.369135457628222,-15.484957391898424
-0.847888694103374,-2.7700862641314545,6.972360236049343,2.8496438940081137,11.647837785566418,-14.293677326683333
-0.8755895567446885,-2.65360788627579,7.000856674989424,2.7067071207412803,11.039170030401003,-13.236684049481854
-0.9021256356074464,-2.54321618597178,7.027923746196837,2.574340280246462,10.526523355701409,-12.291527165812031
-0.9275577974671642,-2.437950952414766,7.053667148999302,2.4514250085883416,10.096133265431256,-11.439866643565997
-0.9519373069913118,-2.3369896197604536,7.078181399085185,2.3370263421526816,9.7365401258528,-10.666744134172237
-0.9753072031889164,-2.2396242185019255,7.101551662506712,2.230358900810959,9.43813772421324,-9.959974060327387
-0.9977034453739356,-2.145242841259793,7.123855251514822,2.130759160207685,9.192804928856866,-9.309646143935323
-1.0191558737865336,-2.0533147919712245,7.145162843116899,2.037662698768332,8.993609391824707,-8.707722929960193
-1.0396890217062458,-1.9633786980529775,7.165539470104583,1.9505854694687303,8.834571255529811,-8.147714798259784
-1.0593228086867756,-1.8750329854976795,7.18504532479927,1.8691083214861326,8.710475856841988,-7.624416650470989
-1.0780731385417524,-1.7879282269292596,7.203736408014131,1.7928641549814226,8.616726064198222,-7.1336929974914485
-1.095952420811045,-1.7017609662872775,7.221665049563946,1.7215272250065081,8.549226543051224,-6.672300744064436
-1.1129700304739176,-1.6162687008567653,7.238880321814011,1.6548042175658637,8.504293700454316,-6.237741263452689
-1.1291327174824852,-1.5312257638522222,7.25542836398967,1.5924268049313368,8.47858625514581,-5.828135292504446
-1.1444449751210075,-1.446439901300764,7.271352632038983,1.5341454520062923,8.469052328966232,-5.442115762262634
-1.158909374134015,-1.3617493780111016,7.286694086559046,1.479724294383666,8.472889697664732,-5.078734950345643
-1.172526867914126,-1.2770204810344543,7.301491329502882,1.4289369448802094,8.487516418033602,-4.737383343803804
-1.1852970727244707,-1.1921453168541183,7.315780698951684,1.3815631114421714,8.510549504388308,-4.417718376927056
-1.197218525893012,-1.1070398218102353,7.329596330066106,1.3373859276729008,8.539789694747812,-4.119601793522198
-1.2082889241111143,-1.0216419248627573,7.342970189342835,1.2961899097376788,8.573210652554275,-3.8430448078571833
-1.218505343359742,-0.9359098183372145,7.355932088440212,1.257759461659107,8.608951213461982,-3.588160528799801
-1.2278644415431141,-0.8498203062025947,7.368509683056803,1.221877856371109,8.64530952263465,-3.3551232906582715
-1.2363626446051401,-0.7633672109762483,7.380728461620514,1.1883266234645262,8.680738125037598,-3.1441346228560607
-1.2439963167149026,-0.6765598297258723,7.392611727855159,1.1568852772359657,8.713839274221408,-2.955395608427437
-1.2507619150121614,-0.5894214369836581,7.404180580627519,1.1273313211516913,8.74335991579115,-2.789085346775909
-1.256656129381998,-0.5019878378257466,7.415453893839036,1.0994404676839322,8.768185979700007,-2.645345166257529
-1.2616760077602556,-0.4143059780287466,7.426448298515876,1.072987016021357,8.787335778944628,-2.5242681424052416
-1.265819067540543,-0.3264326202393003,7.437178168676089,1.0477443345973045,8.79995245883534,-2.425893381534075
-1.269083393742936,-0.2384330956509469,7.4476556120220625,1.0234854007819638,8.805295568435042,-2.3502044383492833
-1.2714677246994455,-0.15038013996659647,7.457890466029882,0.999983356398471,8.802731932105955,-2.2971311588643184
-1.2729715260991115,-0.06235282064553692,7.467890299593867,0.9770120448098278,8.791726083176044,-2.2665541827662152
-1.2735950543055667,0.02556444018622353,7.477660420041965,0.9543465029821657,8.77183058315885,-2.2583113063004867
-1.2733394099037045,0.11328274601781203,7.487203885071787,0.9317633899191609,8.742676589164375,-2.272204899610308
-1.2722065824435265,0.2007095119094558,7.496521518970979,0.9090413409230578,8.703965050255393,-2.3080095913241214
-1.270199487324432,0.2877491624120097,7.5056119323802095,0.8859612450098165,8.65545891218148,-2.3654794767952816
-1.267321995700312,0.3743037515338245,7.514471544830307,0.8623064502418637,8.59697669111599,-2.4443541726598887
-1.2635789581849737,0.46027351844498443,7.523094609332726,0.8378629085152648,8.528387742769922,-2.544363126786104
-1.258976223000524,0.5455573958726837,7.531473238417878,0.8124192772474037,8.449609505502213,-2.6652276966862622
-1.2535206490417972,0.6300534909277058,7.539597431190352,0.785767000280541,8.360606936491692,-2.806660628717343
-1.24722011413252,0.7136595602926227,7.547455101193158,0.7577003939933676,8.261394290076693,-2.9683627029274966
-1.240083518529594,0.7962735031933896,7.555032105133092,0.7280167669640927,8.152039308103868,-3.150016452592519
-1.2321207834976602,0.8777938962744283,7.562312272802733,0.6965166024381675,8.032669804457717,-3.3512770219070376
-1.223342844534916,0.9581205943190054,7.569277438827115,0.6630038322190971,7.903482530746451,-3.5717603884690483
-1.2137616385917258,1.0371554196264698,7.575907477149306,0.6272862283344066,7.7647541085112275,-3.8110293471855634
-1.203390084395461,1.1148029607115821,7.58218033943265,0.5891759348625509,7.61685370695959,-4.068577826191455
-1.1922420547883452,1.190971497781178,7.588072098781276,0.5484901566006364,7.460257036631339,-4.343814279089207
-1.1803323398105334,1.2655740681474914,7.593557000347283,0.5050520138097443,7.295561122316401,-4.6360450652535095
-1.1676765991290585,1.3385296793706554,7.5986075204853805,0.4586915631572092,7.123499218144175,-4.944458882965916
-1.154291302335352,1.409764671552097,7.603194436116953,0.40924697432755003,6.944955140825177,-5.268113448437665
-1.140193655619831,1.4792142229603489,7.607286905860228,0.35656583984317336,6.760976231847889,-5.605925705104739
-1.1254015133902275,1.5468239852788277,7.61085256425866,0.30050658279212594,6.572784125526397,-5.956666888435169
-1.1099332735374392,1.6125518265340917,7.613857630086581,0.24093991390777425,6.381782507257037,-6.318963748230334
-1.0938077552720984,1.676369651606662,7.616267029225658,0.17775027642547092,6.189561104916833,-6.691307130852644
-1.0770440587560317,1.7382652626558304,7.618044531989913,0.11083720511694448,5.99789527416763,-7.07206893925275
-1.0596614061294733,1.7982442153975067,7.619152904041083,0.040116515724416976,5.8087407206214134,-7.459528216066966
-1.0416789639754982,1.8563316226037208,7.619554069198327,-0.03447876643625268,5.624223148959555,-7.8519067392334465
-1.023115647749461,1.9125738540933164,7.619209281533965,-0.11299783382858715,5.446622935965237,-8.247414094962933
-1.0039899092085278,1.9670400834529687,7.618079303195679,-0.19547197477821648,5.278355279204653,-8.644301724440192
-0.9843195083739982,2.019823636245015,7.616124583447897,-0.2819149920226184,5.1219466573103185,-9.040924963464297
-0.9641212720115481,2.0710431028181184,7.613305433527671,-0.37232424165726136,4.9800088273092715,-9.435811651846148
-0.9434108409833669,2.120843191091211,7.609582191111098,-0.46668235817572284,4.8552119513637795,-9.827735530197996
-0.9222024090724548,2.1693953106048487,7.604915367529341,-0.5649597134777028,4.750258761199613,-10.215792414371062
-0.9005084559664063,2.216897898216845,7.599265770394564,-0.6671176376214134,4.667861908086418,-10.59947708543554
-0.8783394769842379,2.263576517297709,7.59259459401835,-0.7731124084757688,4.610726791351393,-10.978758988052379
-0.8557037118112608,2.309683785211223,7.584863469933593,-0.8828999983562926,4.581542201633251,-11.354155209226704
-0.8326068739591486,2.3554992072275556,7.57603446995003,-0.9964415504485596,4.582981062263583,-11.726799811618976
-0.809051881886873,2.4013290178501916,7.566070054445544,-1.1137095485647495,4.6177134233311605,-12.098509401705792
-0.7850385917083711,2.4475061520835033,7.554932958959896,-1.2346946425818075,4.688433691345874,-12.47184578882632
-0.7605635301875361,2.494390488996962,7.542586012534079,-1.3594131004700707,4.797903906352826,-12.85017769218771
-0.7356196252975664,2.5423695280604903,7.528991881529378,-1.4879148773919477,4.949014756601204,-13.237744631220034
-0.7101959300169615,2.591859675626502,7.514112732755459,-1.620292323704148,5.144865996183591,-13.639727344404685
-0.6842773332606964,2.643308335588338,7.497909809518418,-1.7566895971481948,5.388868042152014,-14.062330281975258
-0.657844249904813,2.6971970160098584,7.480342913546935,-1.8973128999679474,5.684866793722624,-14.51288286936084
-0.6308722797447145,2.754045683947085,7.461369784547256,-2.0424417286615557,6.037294121623717,-14.99996728843491
-0.6033318229052437,2.814418625163322,7.440945367260641,-2.1924414015459046,6.4513469439900915,-15.533581373011275
-0.5751876366536105,2.878932094603223,7.419020953245182,-2.3477772152760172,6.933198152109928,-16.125345649136804
-0.5463983157075782,2.948264076124322,7.395543181092422,-2.5090306717673854,7.4902424930701565,-16.78876311062813
-0.5169156749463351,3.0231665010550235,7.370452874374748,-2.6769183028736667,8.131379106113611,-17.53953805748692
-0.4866840099357848,3.1044802921161594,7.343683691346011,-2.852313683448536,8.867328294810093,-18.395954335958006
-0.45563920701462324,3.1931535750642603,7.315160554511526,-3.0362732268081163,9.710970510638584,-19.379299856282316
-0.4237076712639806,3.290263280170646,7.284797822243445,-3.2300662253709396,10.677675071983655,-20.51429602406214
-0.39080503846227416,3.3970400308904827,7.252497159989736,-3.435209185611561,11.785544554598998,-21.829433541224507
-0.35683463815336935,3.5148954764364726,7.21814506813362,-3.653503521023806,13.055418273427494,-23.357002527741898
-0.3216856833890046,3.6454496591707475,7.181610032923382,-3.887073546301225,14.510316860129379,-25.132382344295678
-0.28523118679729714,3.790552827772041,7.14273929746037,-4.138397369744182,16.173697417086554,-27.191724247517676
-0.24732565851957672,3.9522898019429067,7.101355323762928,-4.410314612219359,18.065290763172058,-29.56633035902845
-0.20780276050014765,4.132942709574627,7.057252177640735,-4.705977915809644,20.19217108911459,-32.27047201079176
-0.16647333340440137,4.334864420465773,7.010192398482639,-5.028682635917561,22.530689539620397,-35.276572150616445
-0.12312468919974365,4.560171315861977,6.959905572123463,-5.381448357423726,24.991574902676486,-38.467013528919836
-0.07752297604112388,4.810087064888742,6.906091088549226,-5.766118492712924,27.356131823834584,-41.545673072444615
-0.029422105392236456,5.0836483831270876,6.848429903622097,-6.18157522343737,29.169822989084306,-43.88985569032742
0.021414378439034418,5.37534661301793,6.786614151387723,-6.620473780340645,29.596136378899853,-44.34628131815451
0.07516784456921372,5.671307976806928,6.720409413584316,-7.0639365935221905,27.310368484092162,-41.08175665875529
0.131880924337283,5.94441166164785,6.649770047649095,-7.474754160109743,20.7047392962441,-31.86725702346051
0.1913250409537615,6.1514590546102905,6.575022506047997,-7.793426730344348,8.86143475127987,-15.433314287261167
0.2528396314998644,6.240073402123089,6.497088238744554,-7.94775987321696,-6.787510448780981,6.217820386962971
0.31524036552109524,6.17219829763528,6.417610640012384,-7.88558166934733,-21.99510451522853,27.17398583834817
0.37696234849744803,5.952247252482994,6.338754823318911,-7.613841810963848,-32.39645770682723,41.385027672412235
0.436484821022278,5.628282675414722,6.262616405209272,-7.199991534239725,-36.73464446532425,47.1451418227833
0.4927676477764252,5.260936230761479,6.1906164898668745,-6.728540116011892,-36.61058022977122,46.71299264201324
0.5453770100840399,4.894830428463767,6.123331088706756,-6.26141018959176,-34.217158886869356,43.14566152926145
0.5943253143686776,4.552658839595074,6.060716986810839,-5.829953574299145,-31.066274702388696,38.53786759737934
0.6398519027646283,4.241996092571187,6.002417451067847,-5.444574898325351,-27.92161708379889,33.94045546920376
0.6822718636903402,3.9627799217331976,5.947971702084594,-5.105170343633314,-25.0881798239399,29.768403550330497
0.7218996629076722,3.7118981234937984,5.8969199986482606,-4.807486308130009,-22.648078376637493,26.12974722304589
0.7590186441426101,3.4854173397274235,5.84884513556696,-4.54618883589955,-20.59017125842357,23.005301573756437
0.7938728175398844,3.279515627143188,5.8033832472079645,-4.316135820161986,-18.87086564757584,20.332483025701265
0.8266679738113163,3.0908069706674297,5.760221889006345,-4.112810989904974,-17.44001906079259,18.040758713364536
