th1 (rad),w1 (rad/s),th2 (rad),w2 (rad/s),a1 (rad/s^2),a2 (rad/s^2)
5.002867012890804,3.1034296815906246,3.2496357429279707,-1.1343987142787464,9.874239800445899,12.31963724319986
5.03390130970671,3.2021720795950834,3.238291755785183,-1.0112023418467477,10.274352341464018,13.232452033521623
5.0659230305026615,3.3049156030097238,3.2281797323667156,-0.8788778215115315,10.694841100455818,14.204263289526153
5.098972186532759,3.4118640140142817,3.2193909541516,-0.73683518861627,11.133173681331884,15.235286400457724
5.133090826672902,3.5231957508276004,3.2120226022654372,-0.5844823246116927,11.585943765643316,16.324586407161263
5.168322784181178,3.6390551884840336,3.2061777790193204,-0.42123646054008007,12.048724306344614,17.469817967142248
5.204713336066018,3.7595424315474797,3.2019654144139196,-0.2465382808686576,12.515922390316888,18.66695198378256
5.242308760381492,3.8847016554506486,3.199500031605233,-0.05986876103083197,12.98064619901874,19.910002866567517
5.281155776935999,4.014508117440836,3.1989013439949248,0.1392312676348432,13.434597698881122,21.19077610447745
5.3213008581104075,4.148854094429647,3.200293656671273,0.3511390286796177,13.868007706717682,22.498661757454347
5.362789399054704,4.287534171496824,3.2038050469580694,0.5761256462541612,14.269632210618166,23.820504760108182
5.405664740769672,4.4302304936030055,3.209566303420611,0.814330693855243,14.626829506194923,25.14058638737734
5.449967045705702,4.576498788664955,3.2177096103591634,1.0657365577290165,14.925735940145788,26.440751362714778
5.495732033592352,4.725756148066412,3.2283669759364537,1.3301440713561643,15.151552989235835,27.700710313369754
5.542989595073016,4.87727167795877,3.241668416650015,1.6071511744898619,15.288949483078275,28.89853627558811
5.591762311852603,5.030161172789553,3.2577399283949138,1.896136537245743,15.32257003926646,30.01135615714021
5.642063923580499,5.183386873182218,3.2767012937673714,2.196250098817145,15.237625145764671,31.016214187460807
5.69389779231232,5.335763124639865,3.298663794755543,2.5064122406917533,15.020521781176464,31.89105681939433
5.747255423558719,5.4859683424516295,3.3237279171624605,2.8253228088856965,14.659478954238418,32.61576141989023
5.802115106983235,5.632563131994013,3.3519811452513175,3.1514804230845987,14.145063530360991,33.17310978829694
5.858440738303176,5.774013767297623,3.3834959494821635,3.483211520967568,13.470581386648885,33.549597659225036
5.916180875976152,5.908719581164112,3.4183280646918393,3.8187074975598185,12.632269268731088,33.73597721167187
5.975268071787793,6.035042273851423,3.4565151396674376,4.156067269676537,11.629253653292977,33.72745284431342
6.035618494526307,6.151334810384353,3.498075812364203,4.493341798119672,10.46327202995835,33.52348912853846
6.097131842630151,6.255967530683936,3.5430092303453997,4.828576689405057,9.138184895421256,33.12723847545567
6.15969151793699,6.347349379638149,3.59129499723945,5.159849074159613,7.659338027001348,32.54464692236837
6.223165011733371,6.423942759908162,3.642893487981046,5.485295543383296,6.032859284354415,31.783341471080092
6.287404439332453,6.484271352751707,3.697746443414879,5.8031289580940975,4.264988857031961,30.851435133370835
6.352247152859969,6.526921241322026,3.75577773299582,6.111643309427806,2.361545245404188,29.75640273522955
6.4175163652731895,6.550536693776068,3.816894166090098,6.409207336780101,0.32762193764414377,28.504181209053414
6.4830217322109505,6.553812913152509,3.8809862394578993,6.694249148870635,-1.8324066861724544,27.098634383768566
6.548559861342476,6.535488846290784,3.9479287309466056,6.965235492708321,-4.114515824939222,25.5414966181373
6.613914749805383,6.494343688041392,4.0175810858736885,7.220650458889694,-6.514274230193391,23.832873522759005
6.6788581866857974,6.429200945739458,4.089787590462586,7.458979194117284,-9.025718731111944,21.97233117115642
6.743150196143192,6.338943758428338,4.164377382403758,7.6787025058288485,-11.639926230382896,19.96054578624168
6.806539633727476,6.2225444961245095,4.241164407462047,7.878307963691265,-14.343410256658883,17.801412267359204
6.868765078688721,6.0791103935579205,4.319947487098959,8.056322086364856,-17.116536273822486,15.504423549376371
6.9295561826243,5.907945030819696,4.400510707962608,8.21136632185862,-19.932214499799382,13.0870416068936
6.988635632932497,5.708622885821702,4.482624371181195,8.342236737927555,-22.755174084722807,10.576701893150018
7.045721861790714,5.481071144974474,4.56604673856047,8.448003756859055,-25.54212549879015,8.01205178807807
7.100532573240459,5.225649889986573,4.65052677612906,8.528124274739836,-28.243056304685467,5.443049508777308
7.152789072140325,4.943219326939719,4.735808018876458,8.58255476982761,-30.803766480868685,2.9296654438078593
7.202221265409722,4.635181662131032,4.821633566574734,8.611851424265689,-33.169541542992235,0.5391353767809771
7.248573082031033,4.30348624670111,4.907752080817391,8.617242778033498,-35.289621312135644,-1.6580139476787115
7.291607944498044,3.9505900335797532,4.993924508597726,8.600662638556711,-37.12191016762098,-3.592671908190069
7.331113844833841,3.5793709319035436,5.079931134983293,8.56473591947481,-38.63725929670744,-5.20188738712114
7.366907554152877,3.1929983389364693,5.165578494178042,8.512717045603598,-39.82268238559304,-6.4328904580523565
7.398837537542241,2.794771515080539,5.2507056646340775,8.448388141023074,-40.68305050452229,-7.245740138026332
7.426785252693047,2.3879410100353162,5.335189546044308,8.37593073964281,-41.241106269466414,-7.614192822613191
7.4506646627933995,1.975529947340652,5.418948853440736,8.299788811416677,-41.53596195453985,-7.524701610354645
7.470419962266806,1.5601703277952534,5.501946741554903,8.224541795313131,-41.620515284387835,-6.973750472179069
7.486021665544759,1.143965174951375,5.584192159508034,8.15480429059134,-41.558369826290594,-5.963924447803631
7.497461317294273,0.7283814766884691,5.665740202413947,8.095165046113303,-41.420866844131794,-4.499182903412174
7.504745132061157,0.31417280824715116,5.74669185287508,8.050173217079182,-41.284744739943505,-2.5797475726342185
7.507886860143629,-0.09867463915228392,5.827193585045872,8.02437574135284,-41.23078408131192,-0.19688558096631473
7.506900113752106,-0.510982479965403,5.9074373424594,8.022406885543177,-41.34360859291522,2.672274325901914
7.501790288952452,-0.9244185658945552,5.987661411314832,8.049129628802197,-41.71260095415566,6.069822340847796
7.492546103293506,-1.3415445754361117,6.068152707602854,8.109827852210675,-42.43359772505732,10.061839790048356
7.479130657539145,-1.765880552686685,6.149250986124961,8.210446250111158,-43.61046678351271,14.74205941119867
7.461471852012279,-2.201985220521812,6.231355448626072,8.357866844223144,-45.35439580171916,20.23195025993678
7.439451999807061,-2.6555291785390036,6.3149341170683035,8.560186346822512,-47.77568757979404,26.670624198254696
7.412896708021671,-3.133286054336944,6.400535980536529,8.826892588805059,-50.955687603707915,34.1780463795657
7.381563847478302,-3.642842930374023,6.48880490642458,9.168673052600717,-54.87007155777745,42.752196802222436
7.345135418174562,-4.191543645951798,6.580491636950587,9.596195020622941,-59.20022722577662,52.01242599341794
7.303219981715044,-4.7835459182095645,6.676453587156816,10.116319280557121,-62.91256374338841,60.620353553576756
7.255384522532948,-5.412671555643449,6.777616779962387,10.722522816092889,-63.47032145342409,65.18344067754039
7.201257806976513,-6.04737477017769,6.884842008123316,11.374357222868293,-55.95330141369141,59.00814726368003
7.140784059274736,-6.606907784314604,6.998585580351999,11.964438695505093,-34.183936068980465,33.59714055887809
7.07471498143159,-6.9487471450044085,7.11822996730705,12.300410101093874,1.9905622886477627,-11.354139366626786
7.005227509981546,-6.9288415221179305,7.241234068317989,12.186868707427607,38.383798452882154,-56.56238729931268
6.935939094760367,-6.545003537589109,7.363102755392265,11.62124483443448,58.09422879313447,-79.26395960334386
6.870489059384476,-5.964061249657764,7.4793152037366095,10.82860523840104,60.561039936148994,-79.14227187177231
6.810848446887898,-5.358450850296274,7.58760125612062,10.037182519683318,54.88109246402056,-68.72206047492605
6.757263938384935,-4.809639925656068,7.687973081317454,9.349961914934058,47.47981498869368,-56.57670562729241
6.709167539128375,-4.3348417757691315,7.781472700466794,8.784194858661134,40.77888457580239,-45.77476850764122
6.665819121370683,-3.927052930011108,7.869314649053405,8.326447173584722,35.31428255966085,-36.87323605754249
6.626548592070572,-3.5739101044144994,7.952579120789252,7.9577148130092965,31.013389768283393,-29.659978255200638
6.590809491026427,-3.2637762067316656,8.032156268919346,7.661115030457291,27.668245803642538,-23.779610934777747
6.55817172895911,-2.9870937486952402,8.108767419223918,7.423318921109513,25.077173417584692,-18.911078629062096
6.528300791472157,-2.736322014519393,8.183000608435012,7.234208134818892,23.076461739704452,-14.801519664453329
6.500937571326963,-2.505557397122349,8.255342689783202,7.086192938174358,21.53990937156872,-11.26075784035968
6.4758819973557395,-2.2901583034066615,8.326204619164946,6.9735853597707615,20.37083489839518,-8.148414383769554
6.452980414321673,-2.0864499544227098,8.395940472762653,6.892101215933066,19.493654318836064,-5.362405096807489
6.432115914777446,-1.891513411234349,8.464861484921984,6.838477164964991,18.84665269273098,-2.8305850193251816
6.413200780665103,-1.7030468843070392,8.533246256571633,6.81017131477174,18.375988524931653,-0.5053861192076785
6.396170311822033,-1.5192869990577227,8.60134796971935,6.805117453579663,18.030612718963795,1.6391126029871783
6.3809774418314555,-1.3389808718680847,8.669399144255147,6.821508579609534,17.75782152286351,3.6082747427956314
6.367587633112775,-1.1614026566394495,8.737614230051243,6.857591327037491,17.499348999420178,5.386772555078768
6.355973606546381,-0.9864091666452477,8.806190143321617,6.911459052588278,17.1881852986655,6.937990867094579
6.346109514879928,-0.8145273136585927,8.8753047338475,6.9808389612592245,16.7466776161955,8.204034250267975
6.337964241743342,-0.6470605374966376,8.945113123460093,7.062879303761904,16.086902063386887,9.107831238872572
6.331493636368376,-0.48619151686276874,9.015741916497712,7.15395761615063,15.114666993827953,9.559222583667804
6.326631721199748,-0.3350448469244892,9.087281492659217,7.249549841987308,13.738549309018902,9.466925240281482
6.323281272730503,-0.1976593538343002,9.15977699107909,7.344219094390123,11.884648865662012,8.757334267831245
6.32130467919216,-0.07881286517768007,9.23321918202299,7.431792437068435,9.515869101639826,7.398749532333618
6.320516550540383,0.016345825838718187,9.307537106393674,7.505779932391771,6.651564878122126,5.425890435503394
6.32068000879877,0.08286147461993945,9.382594905717593,7.560038836746806,3.380455956000754,2.95591330191555
6.321508623544969,0.116666034179947,9.45819529408506,7.589597969765961,-0.1409982656644121,0.18636557384707658
6.322675283886769,0.11525605152330289,9.53409127378272,7.591461625504432,-3.7089620689316507,-2.6298595813107277
6.323827844402001,0.07816643083398638,9.610005890037764,7.565163029691325,-7.107970884862805,-5.228052473237738
6.324609508710341,0.007086721985358327,9.685657520334678,7.512882504958948,-10.151111751724544,-7.379919785748765
6.324680375930194,-0.09442439553188711,9.760786345384266,7.43908330710146,-12.711179265368012,-8.93002360232682
6.323736131974876,-0.22153618818556722,9.83517717845528,7.349783071078192,-14.733863701738255,-9.809891926916938
6.32152077009302,-0.3688748252029498,9.908675009166062,7.251684151809022,-16.232384133509015,-10.029679195250939
6.3178320218409905,-0.5311986665380399,9.981191850684153,7.151387359856513,-17.269811519740593,-9.655432404784595
6.31252003517561,-0.7038967817354459,10.052705724282719,7.0548330358086675,-17.937508280283723,-8.782314846697206
6.305481067358255,-0.8832718645382831,10.123254054640805,6.967009887341695,-18.336235472031472,-7.511544091798267
6.296648348712872,-1.0666342192585978,10.192924153514221,6.891894446423713,-18.56305591233714,-5.934508014368634
6.285982006520286,-1.2522647783819691,10.261843097978458,6.832549366280026,-18.70429301922971,-4.124063777577849
6.273459358736466,-1.4393077085742663,10.33016859164126,6.791308728504248,-18.83327425306569,-2.1312571891124947
6.259066281650724,-1.6276404511049232,10.398081678926301,6.769996156613123,-19.011204037817514,0.014685485501741263
6.242789877139675,-1.8177524914830983,10.465781640492432,6.77014301146814,-19.28976180535838,2.3048984531293666
6.2246123522248435,-2.010650109536682,10.533483070607113,6.793191995999434,-19.7144776577831,4.7492042365649345
6.204505851129476,-2.207794886114513,10.601414990567108,6.840684038365084,-20.32836445483011,7.374994693293318
6.182427902268331,-2.4110785306628144,10.669821830950758,6.914433985298017,-21.175593439563045,10.2270890963571
6.158317116961703,-2.6228344650584448,10.738966170803739,7.0167048762615885,-22.30517639838609,13.368773582370842
6.132088772311119,-2.8458862290423057,10.809133219566355,7.150392612085297,-23.774655669834917,16.884048447984483
6.103629910020696,-3.083632785740655,10.880637145687208,7.319233096565142,-25.653653111358384,20.880826471658935
6.072793582163289,-3.340169316854239,10.95382947665286,7.528041361281732,-28.026615103386696,25.4941389491203
6.039391888994746,-3.6204354678881057,11.029109890265678,7.782982750772935,-30.992744814553838,30.886637665035284
6.003187534315865,-3.930362916033644,11.106939717773407,8.091849127423288,-34.657775389329096,37.239208963788535
5.963883905155528,-4.276940669926935,11.18785820904764,8.464241217061174,-39.10413782750792,44.71347850903959
5.921114498456259,-4.667982048202014,11.272500621218251,8.91137600215157,-44.3069897884942,53.341655298505664
5.8744346779742385,-5.111051946086956,11.361614381239766,9.444792555136626,-49.921752875259195,62.74089770001067
5.823324158513369,-5.610269474839548,11.456062306791132,10.072201532136733,-54.794973121776245,71.44526727120926
5.767221463764973,-6.158219206057311,11.556784322112499,10.786654204848825,-56.01435549810124,75.59323549745454
5.7056392717044,-6.718362761038323,11.664650864160986,11.54258655982337,-47.80163622456806,67.37602095142941
5.638455644094017,-7.196379123284004,11.78007672975922,12.216346769337664,-22.921104272703936,36.93451118631225
5.566491852861176,-7.425590166011043,11.902240197452596,12.585691881200786,18.00839920627205,-14.840015661443108
5.492235951201066,-7.245506173948322,12.028097116264604,12.437291724586355,56.894055288858745,-63.187598090433646
5.419780889461583,-6.676565621059734,12.152470033510468,11.805415743682019,75.15980564791458,-83.12157796202885
5.353015233250986,-5.924967564580589,12.270524190947288,10.97419996406173,75.14904716815217,-78.47783983634386
5.293765557605179,-5.173477092899067,12.380266190587905,10.189421565698291,67.99669291981832,-64.66011929636812
5.242030786676189,-4.4935101637008845,12.482160406244889,9.54282037273461,60.176984068167904,-50.34424434963415
5.19709568503918,-3.8917403230192056,12.577588609972235,9.039377929238269,53.714300445379806,-38.082692538718554
5.158178281808988,-3.3545973185654074,12.667982389264617,8.658551003851082,48.865834052874426,-28.075869998343762
5.124632308623334,-2.865938978036663,12.754567899303128,8.377792303867645,45.40965469954785,-19.930736233594043
5.095972918842968,-2.4118424310411846,12.838345822341804,8.178484941531705,43.0591574761635,-13.209217478538026
5.071854494532555,-1.9812508562795497,12.920130671757121,8.046392766746324,41.566883344580205,-7.557437045560194
5.05204198596976,-1.5655820228337476,13.000594599424584,7.970818396290722,40.73690445384965,-2.716229653194639
5.036386165741423,-1.158212978295251,13.080302783387491,7.943656099758776,40.414679336119164,1.4950267340402097
5.0248040359584705,-0.7540661849340594,13.159739344385079,7.958606367099178,40.47399307242661,5.196246755922712
5.01726337410913,-0.3493262542097933,13.23932540805607,8.010568834658406,40.805842133810536,8.460776556839773
5.013770111567032,0.058732167128312085,13.319431096402655,8.095176600226804,41.31003838997499,11.325807795957381
5.014357433238315,0.471832551028062,13.400382862404923,8.208434678186377,41.88939372213911,13.80025056394501
5.0190757587485955,0.8907264882494531,13.482467209186787,8.346437183825827,42.44631842217877,15.87134373340267
5.02798302363109,1.3151896724712409,13.565931581025046,8.505150621159855,42.88181822748963,17.511096547771388
5.041134920355803,1.7440078547461373,13.650983087236645,8.680261586637569,43.096970351927816,18.683374936819636
5.058574998903264,2.1749775582654154,13.73778570310302,8.867095336005764,42.99689809709813,19.35206498812455
5.080324774485918,2.604946539236397,13.826456656463078,9.06061598588701,42.496998363673036,19.490230019444006
5.106374239878282,3.029916522873127,13.917062816321948,9.25551828608145,41.53071335112052,19.08954091267854
5.136673405107014,3.445223656384332,14.009617999182764,9.446413695208236,40.05756905470127,18.168612894147575
5.171125641670857,3.845799346931345,14.104082136134846,9.62809982414971,38.06972338229135,16.778444312489405
5.20958363514017,4.226496580754258,14.200363134376342,9.795884267274605,35.595136683508876,15.00319223376215
5.251848600947713,4.582447947589347,14.298321977049088,9.945916189612227,32.695915115966116,12.955217865741623
5.297673080423606,4.909407098749008,14.397781138945211,10.075468368269643,29.46140787450759,10.764626666737259
5.346767151411096,5.204021177494083,14.498535822627908,10.183114634937017,25.997000124821376,8.565028291825575
5.3988073631860365,5.4639911787422974,14.600366968977278,10.268764917855272,22.410744956440674,6.478364628278471
5.45344727497346,5.6880986283067045,14.70305461815583,10.333548564138056,18.80053329651002,4.6019063455226235
5.510328261256527,5.876103961271805,14.806390103797211,10.379567627593282,15.244196403670742,2.999786465302492
5.569089300869245,6.028545925308513,14.910185780073144,10.409565492246307,11.79394910779023,1.7000629700635344
5.62937476012233,6.146485416386415,15.014281434995608,10.426566121946943,8.475364825323355,0.6968693570326483
5.690839614286194,6.231239064639649,15.118547096215078,10.43353481551727,5.29008865050188,-0.04376862211851236
5.75315200493259,6.284139951144668,15.222882444370251,10.433097129296085,2.220998906509728,-0.576193130770477
5.815993404444037,6.306349940209765,15.327213415663213,10.42733519798838,-0.761484590231971,-0.9669603993852668
5.879056903846135,6.298735094307445,15.431486767643097,10.417665593994528,-3.692952403190719,-1.2872612939529373
5.942044254789209,6.261805570275538,15.535663423583042,10.404792981054998,-6.609036879520648,-1.6063642514871588
6.004662310491965,6.195715201480331,15.639711353393592,10.388729338540125,-9.540220822605425,-1.9861373373048954
6.066619462506768,6.100312993254277,15.743598646778993,10.368867965167077,-12.50753795255154,-2.4765221713158496
6.127622592439311,5.975237613728761,15.847287326430664,10.344102743453918,-15.519235751935788,-3.1118341035426806
6.187374968576599,5.820045256209403,15.950728353865202,10.312984402418492,-18.568523359123855,-3.9078875729032916
6.2455754211386925,5.634360022618165,16.053858197889387,10.27390552668946,-21.632611270795188,-4.860115190307364
6.301919021364874,5.418033909910213,16.15659725315628,10.225304374786386,-24.673297713298272,-5.942984765136503
6.356099360463976,5.17130093277723,16.258850296904146,10.16587452713502,-27.639310909411137,-7.111050923469319
6.407812369791749,4.894907823683119,16.360509042175497,10.094764017900328,-30.470446063415874,-8.301862210403737
6.456761448028581,4.5902033630489605,16.461456682354502,10.011745395796291,-33.10325284251236,-9.440678342363837
6.50266348165907,4.259170834623837,16.561574136312466,9.917338612372653,-35.47769662034677,-10.446588711887829
6.545255190005308,3.904393868420369,16.660747522436193,9.812872725253774,-37.5439376481746,-11.239265316639623
