th1 (rad),w1 (rad/s),th2 (rad),w2 (rad/s),a1 (rad/s^2),a2 (rad/s^2)
2.9018273397836887,-1.072945094616606,1.7329042565580035,-0.268042753342836,-0.7320460930309974,-8.325685938873322
2.8910978888375225,-1.0802655555469158,1.730223829024575,-0.35129961273156923,-0.8375716812122467,-8.27162346138831
2.8802952332820535,-1.0886412723590384,1.7267108328972594,-0.43401584734545234,-0.9541784318021155,-8.210998561771408
2.869408820558463,-1.0981830566770596,1.7223706744238048,-0.5161258329631664,-1.0817398641974327,-8.143504409358693
2.8584269899916923,-1.109000455319034,1.717209416094173,-0.5975608770567533,-1.2201162092736535,-8.068847130818424
2.8473369854385018,-1.1212016174117705,1.7112338073236055,-0.6782493483649376,-1.369153895328971,-7.986740360491229
2.836124969264384,-1.1348931563650602,1.7044513138399562,-0.7581167519698498,-1.5286849947742482,-7.8968995670546
2.8247760377007336,-1.1501800063128027,1.6968701463202578,-0.8370857476403959,-1.6985265935691598,-7.799036204892822
2.8132742376376054,-1.1671652722484942,1.688499288843854,-0.9150761096893241,-1.8784800543054057,-7.692851735400878
2.8016025849151203,-1.1859500727915482,1.6793485277469606,-0.9920046270433328,-2.0683301534518264,-7.578031560475008
2.789743084187205,-1.2066333743260664,1.6694284814765272,-1.067784942648083,-2.2678440833087974,-7.454238908218084
2.7776767504439444,-1.2293118151591544,1.6587506320500465,-1.1423273317302638,-2.476770319461294,-7.321108709898501
2.7653836322923526,-1.2540795183537674,1.647327358732744,-1.2155384188292488,-2.6948373648621375,-7.178241507811221
2.752842837108815,-1.2810278920023888,1.6351719745444515,-1.287320833907361,-2.9217523921155033,-7.02519743612708
2.740032558188791,-1.3102454159235437,1.6222987662053778,-1.3575728082686318,-3.157199816163636,-6.861490321165006
2.7269301040295555,-1.3418174140851802,1.6087230381226916,-1.426187711480282,-3.4008398405936524,-6.686581953721737
2.713511929888704,-1.3758258124911167,1.5944611610078887,-1.4930535310174993,-3.6523070324330864,-6.499876593947385
2.6997536717637924,-1.4123488828154476,1.5795306256977137,-1.5580522969569732,-3.9112089928930804,-6.300715778438174
2.685630182935638,-1.4514609727443784,1.563950102728144,-1.621059454741355,-4.177125205363765,-6.088373509286441
2.671115573208194,-1.493232224798016,1.5477395081807304,-1.6819431898342194,-4.449606157369028,-5.862051915230051
2.656183250960214,-1.5377282863717063,1.5309200762823882,-1.74056370898652,-4.7281728504025216,-5.620877485119507
2.640805968096497,-1.5850100148757316,1.513514439192523,-1.796772483837715,-5.012316830772224,-5.363897982905425
2.62495586794774,-1.635133183183454,1.4955467143541459,-1.8504114636667692,-5.301500895849747,-5.090080160362214
2.608604536115905,-1.6881481921419514,1.477042599717478,-1.9013122652703913,-5.5951606533953475,-4.798308387802304
2.591723054194486,-1.7440997986759048,1.4580294770647741,-1.9492953491484144,-5.892707136699458,-4.4873843229579995
2.5742820562077267,-1.8030268700428993,1.43853652357329,-1.9941691923779945,-6.1935307047661246,-4.156027732724512
2.5562517875072976,-1.8649621770905604,1.41859483164951,-2.0357294697052395,-6.497006484100303,-3.802878570120813
2.537602165736392,-1.9299322419315634,1.3982375369524576,-2.0737582554064478,-6.802501636100781,-3.426500388035588
2.5183028433170764,-1.9979572582925713,1.377499954398393,-2.108023259286804,-7.109384760668541,-3.025385140357082
2.4983232707341507,-2.069051105899257,1.356419721805525,-2.1382771106903746,-7.417037771308371,-2.5979593781356978
2.477632759675158,-2.1432214836123404,1.3350369506986213,-2.1642567044717316,-7.72487059846403,-2.142591791712984
2.4562005448390347,-2.220470189596981,1.313394383653904,-2.1856826223888612,-8.032339094688824,-1.657601977652207
2.433995842943065,-2.300793580543869,1.2915375574300154,-2.202258642165383,-8.33896652601368,-1.1412702205976992
2.4109879071376263,-2.3841832458040058,1.2695149710083615,-2.21367134437136,-8.644369036947474,-0.5918479743606114
2.3871460746795865,-2.4706269361734803,1.247378257564648,-2.219589824114966,-8.948285470244752,-0.007568604244996617
2.3624398053178517,-2.5601097908759276,1.2251823593234983,-2.219665510157416,-9.250611905044437,0.6133421836101798
2.3368387074090924,-2.652615909926372,1.202985704221924,-2.213532088321314,-9.551441245979948,1.2726569450267768
2.310312548309829,-2.7481303223861713,1.180850383338711,-2.2008055188710465,-9.851108148333502,1.9721389961370406
2.282831245085967,-2.8466414038695063,1.1588423281500004,-2.181084128909676,-10.150239495558784,2.713537798896938
2.2543648310472717,-2.948143798825094,1.1370314868609037,-2.1539487509207067,-10.449810547692861,3.4985883131608597
2.2248833930590206,-3.0526419043020225,1.1154919993516967,-2.118962867789098,-10.751206738757343,4.329015404419491
2.1943569740160003,-3.160153971689596,1.0943023706738058,-2.075672713744903,-11.05629089453326,5.206544270087748
2.1627554342991044,-3.2707168806349287,1.0735456435363566,-2.0236072710440256,-11.367475327997296,6.132917496367733
2.1300482654927553,-3.384391633914902,1.0533095708259164,-1.9622780960803483,-11.687797777708287,7.109918645456821
2.096204349153606,-3.501269611691985,1.033686789865113,-1.89117890962578,-12.020999364904437,8.139400986916366
2.0611916530366865,-3.621479605341029,1.0147750007688552,-1.8097848997566164,-12.371601457199684,9.223317794937806
2.024976856983276,-3.745195619913026,0.996677151771289,-1.7175517218072383,-12.744976206425306,10.363747010310123
1.9875249007841458,-3.872645381977279,0.9795016345532166,-1.613914251704137,-13.147402023511711,11.56289717833455
1.948798446964373,-4.004119402212396,0.9633624920361752,-1.4982852799207915,-13.586089459032952,12.823072091422684
1.9087572529422492,-4.139980296802726,0.9483796392369672,-1.3700545590065647,-14.069153399510084,14.146556363531435
1.8673574499742218,-4.280671830797827,0.9346790936469016,-1.2285889953712503,-14.605491787008988,15.535359865169537
1.8245507316662435,-4.4267267486679165,0.9223932036931891,-1.073235396719555,-15.204505435943592,16.99072024036587
1.7802834641795644,-4.578771803027353,0.9116608497259936,-0.9033281943158962,-15.875552067717113,18.512201440549056
1.734495746149291,-4.737527323704524,0.9026275677828346,-0.7182061799104056,-16.626961618639353,20.096130296807193
1.6871204729122458,-4.903796939890917,0.8954455059837305,-0.5172448769423337,-17.464337045641557,21.732966261007842
1.6380825035133366,-5.078440310347332,0.8902730572143072,-0.2999152143322552,-18.387711116237366,23.402983289793983
1.5872981004098632,-5.262317421509706,0.8872739050709846,-0.06588538143431538,-19.386916215743604,25.0693483208014
1.534674926194766,-5.456186583667142,0.8866150512566414,0.1848081017736986,-20.434270969949395,26.667342405573862
1.4801130603580948,-5.660529293366636,0.8884631322743785,0.45148152582943724,-21.473504714643724,28.088255544477562
1.4235077674244283,-5.875264340513073,0.8929779475326728,0.7323640812742129,-22.404068057445045,29.15689348415342
1.3647551240192977,-6.099305021087524,0.900301588345415,1.0239330161157472,-23.06143890746221,29.60385625104597
1.3037620738084224,-6.329919410162146,0.9105409185065725,1.3199715786262067,-23.198324961145165,29.04006866830052
1.240462879706801,-6.561902659773598,0.9237406342928346,1.6103722653092118,-22.480855486253386,26.954381319959907
1.174843853109065,-6.786711214636132,0.9398443569459267,1.879916078508811,-20.52765955448966,22.774873109056465
1.1069767409627036,-6.991987810181029,0.9586435177310149,2.1076648095993757,-17.02730005558174,16.04500890490586
1.0370568628608934,-7.162260810736846,0.9797201658270086,2.2681148986484345,-11.940276138274898,6.7229537931559555
0.965434254753525,-7.281663572119595,1.002401314813493,2.335344436579994,-5.695887862821584,-4.526754464654085
0.892617619032329,-7.3386224507478115,1.0257547591792928,2.2900768919334533,0.8106371115297138,-16.332487055985425
0.8192313945248508,-7.330516079632514,1.0486555280986274,2.126752021373599,6.542080700448678,-27.085420249229085
0.7459262337285257,-7.265095272628027,1.0699230483123634,1.8558978188813082,10.78045254184079,-35.6191998967404
0.6732752810022454,-7.157290747209619,1.0884820265011765,1.4997058199139042,13.363652833762186,-41.574062113112234
0.6017023735301492,-7.0236542188719975,1.1034790847003155,1.0839651987827819,14.572823343684863,-45.253433866555845
0.5314658313414292,-6.877925985435149,1.1143187366881433,0.6314308601172234,14.865565625873323,-47.24531249009676
0.4626865714870777,-6.7292703291764155,1.1206330452893156,0.1589777352162558,14.672278641880787,-48.123419406276696
0.3953938681953135,-6.582547542757608,1.122222822641478,-0.32225645884651116,14.314314794821467,-48.32021377696408
0.3295683927677374,-6.439404394809393,1.119000258053013,-0.805458596616152,14.001548416204207,-48.11615693252631
0.26517434881964347,-6.299388910647351,1.1109456720868514,-1.2866201659414152,13.858753802887872,-47.67397546278604
0.20218045971316995,-6.160801372618472,1.0980794704274373,-1.7633599205692756,13.953644664435325,-47.07829262822132
0.1405724459869852,-6.021264925974119,1.0804458712217444,-2.234142846851489,14.317892368776647,-46.367052003701446
0.08035979672724401,-5.878086002286353,1.0581044427532296,-2.697813366888503,14.960719954797533,-45.553224463436884
0.021578936704380478,-5.728478802738378,1.0311263090843446,-3.153345611522872,15.877021995941817,-44.63893821231604
-0.0357058513230033,-5.56970858277896,0.9995928529691158,-3.5997349936460328,17.052025240185888,-43.62446186700502
-0.0914029371507929,-5.3991883303771,0.9635955030326555,-4.035979612316083,18.463990084991938,-42.513854129735456
-0.1453948204545639,-5.214548429527181,0.9232357069094946,-4.461118153613438,20.085940486317888,-41.318442171283614
-0.1975403047498357,-5.013689024664002,0.8786245253733602,-4.874302575326275,21.887027123969794,-40.05881842760289
-0.24767719499647572,-4.794818753424304,0.8298814996200975,-5.274890759602304,23.833862811843478,-38.76575173514729
-0.29562538253071874,-4.556480125305868,0.7771325920240745,-5.6625482769537765,25.891981448811837,-37.4802434676365
-0.3411901837837774,-4.29756031081775,0.7205071092545368,-6.0373507116301415,28.027429071011596,-36.25287096418735
-0.3841657868919549,-4.017286020107634,0.6601336021382354,-6.399879421272015,30.208373598345343,-35.14250365891184
-0.42433864709303126,-3.7152022841241807,0.5961348079255152,-6.751304457861133,32.40649806613211,-34.214408195764605
-0.46149066993427307,-3.39113730346286,0.5286217633469039,-7.093448539818779,34.597794760505096,-33.53762645053663
-0.49540204296890167,-3.045159355857809,0.4576872779487161,-7.428824804324146,36.762162175208246,-33.18124349458358
-0.5258536365274797,-2.6775377341057265,0.38339902990547464,-7.760637239269982,38.88084799677576,-33.20864980475451
-0.552629013868537,-2.288729254137969,0.30579265751277485,-8.092723737317527,40.93015288864358,-33.66796495239939
-0.5755163064099167,-1.879427725251533,0.22486542013959956,-8.429403386841521,42.86872372346256,-34.57516229673402
-0.5943105836624321,-1.4507404880169075,0.14057138627118435,-8.775155009808861,44.61402577426207,-35.88381999861825
-0.6088179885426012,-1.0046002302742867,0.05281983617309573,-9.133993209795044,46.001299724159914,-37.431896697830126
-0.618863990845344,-0.5445872330326875,-0.03852009592485471,-9.508312176773345,46.71702410998571,-38.853451106732166
-0.6243098631756709,-0.07741699193283041,-0.13360321769258815,-9.896846687840666,46.20479695694135,-39.4500388095044
-0.6250840330949993,0.3846309776365831,-0.2325716845709948,-10.291347075935711,43.57182372062583,-38.05610694722498
-0.6212377233186335,0.8203492148428414,-0.33548515533035195,-10.671908145407961,37.609305073345624,-33.04750948181292
-0.6130342311702051,1.1964422655762976,-0.44220423678443155,-11.00238324022609,27.17752754808401,-22.8315420906361
-0.601069808514442,1.4682175410571379,-0.5522280691866924,-11.23069866113245,12.18345470373796,-7.133233091770204
-0.5863876331038707,1.5900520880945175,-0.664535055798017,-11.302030992050152,-5.3158268138879095,11.540572844939993
-0.5704871122229255,1.5368938199556383,-0.7775553657185185,-11.186625263600753,-21.440263250007362,28.342955757056934
-0.555118174023369,1.3224911874555647,-0.889421618354526,-10.903195706030184,-32.86950397256263,39.235413453246686
-0.5418932621488134,0.9937961477299384,-0.9984535754148279,-10.510841571497718,-38.834136342795524,43.5301480101507
-0.531955300671514,0.6054547843019831,-1.1035619911298051,-10.07554009139621,-40.615981188544126,43.10729720221818
-0.5259007528284941,0.19929497241654182,-1.2043173920437673,-9.644467119374028,-39.94503961640477,40.274058792578074
-0.5239078031043287,-0.2001554237475059,-1.3007620632375076,-9.241726531448247,-38.10072563838239,36.643429440519384
-0.5259093573418038,-0.5811626801313299,-1.39317932855199,-8.875292237043054,-35.811000346083624,33.06990059868663
-0.5317209841431171,-0.9392726835921661,-1.4819322509224206,-8.544593231056187,-33.428302033259385,29.91799455636119
-0.5411137109790387,-1.27355570392476,-1.5673781832329825,-8.245413285492575,-31.099297447136134,27.297291764777142
-0.5538492680182863,-1.5845486783961213,-1.6498323160879083,-7.972440367844803,-28.8705564106116,25.20127407365725
-0.5696947548022475,-1.8732542425022374,-1.7295567197663564,-7.720427627108231,-26.74467072417122,23.57728737498416
-0.5884272972272699,-2.1407009497439495,-1.8067609960374387,-7.48465475335839,-24.70782634717713,22.35871303142506
-0.6098343067247094,-2.3877792132157207,-1.8816075435710227,-7.2610676230441396,-22.742637166403465,21.47860558538136
-0.6337120988568666,-2.6152055848797553,-1.9542182198014642,-7.046281567190326,-20.833725394480336,20.87481720288357
-0.6598641547056642,-2.8235428388245585,-2.0246810354733675,-6.837533395161491,-18.96981374774792,20.491442750677123
-0.6880995830939097,-3.0132409763020376,-2.0930563694249824,-6.63261896765472,-17.144165349399252,20.27881679462364
-0.7182319928569301,-3.18468262979603,-2.1593825591015294,-6.429830799708483,-15.354257139972457,20.19304907728718
-0.7500788191548904,-3.3382252011957547,-2.223680867098614,-6.227900308935611,-13.601115491961979,20.195504269569383
-0.7834610711668479,-3.4742363561153744,-2.28595987018797,-6.025945266239917,-11.888525457660002,20.25236658309407
-0.8182034347280017,-3.5931216106919743,-2.346219322850369,-5.8234216004089765,-10.222222280548065,20.334313216423613
-0.8541346508349215,-3.695343833497455,-2.404453538854459,-5.62007846824474,-8.609124672151221,20.416273903832952
-0.891088089169896,-3.781435080218967,-2.4606543235369065,-5.415915729206411,-7.0566447336255465,20.477239966763733
-0.9289024399720857,-3.8520015275552226,-2.5148134808289706,-5.211143329538774,-5.572095534076101,20.500087539938697
-0.9674224552476379,-3.907722482895984,-2.566924914124358,-5.006142454139387,-4.162208021661983,20.471387384486
-1.0064996800765977,-3.9493445631126036,-2.616986338665752,-4.801428580294527,-2.8327615729763775,20.381183502630357
-1.0459931257077237,-3.9776721788423672,-2.6650006244686972,-4.5976167452682235,-1.5883262377481453,20.22273232621886
-1.0857698474961475,-3.993555441219849,-2.7109767919213796,-4.395389422006035,-0.4321095024144905,19.992202373929477
-1.125705401908346,-3.997876536243994,-2.75493068614144,-4.19546739826674,0.6341036949233378,19.68834042220125
-1.1656841672707858,-3.9915354992947605,-2.7968853601241075,-3.998583994044728,1.6099317922610785,19.312114288821316
-1.2055995222637335,-3.9754361813721495,-2.8368712000645546,-3.8054628511565145,2.4963139089451585,18.8663444273571
-1.245353884077455,-3.950473042282698,-2.87492582857612,-3.6167994068829437,3.2953796121146706,18.355336975858872
-1.2848586145002818,-3.917519246161551,-2.911093822644949,-3.4332460371243547,4.010286470917864,17.7845300720241
-1.3240338069618973,-3.8774163814523726,-2.9454262830161926,-3.2554007364041135,4.645039300899904,17.160163532069507
-1.3628079707764211,-3.8309659884433733,-2.9779802903802337,-3.0837991010834185,5.204303064126172,16.48897975708963
-1.4011176306608548,-3.7789229578021115,-3.008818281391068,-2.918909303512522,5.693219181236463,15.7779612903784
-1.438906860238876,-3.721990765989747,-3.038007374426193,-2.761129690608738,6.117232735883033,15.034108047959027
-1.4761267678987735,-3.660818438630917,-3.0656186713322806,-2.610788610129148,6.481935872051914,14.264255060290449
-1.5127349522850826,-3.595999079910398,-3.091726557433572,-2.4681460595262434,6.79293071624927,13.474929710086224
-1.5486949430841865,-3.528069772747905,-3.1164080180288347,-2.333396762425381,7.055713471310725,12.672245988480801
-1.5839756408116656,-3.457512638034798,-3.1397419856530884,-2.206674302540573,7.275579960630038,11.861832233663952
-1.6185507671920136,-3.3847568384284976,-3.161808728678494,-2.0880559802039333,7.457551854447077,11.048788142948496
-1.6523983355762986,-3.310181319884027,-3.1826892884805336,-1.9775680987744484,7.60632206446045,10.237666518114265
-1.6855001487751389,-3.2341180992394225,-3.202464969468278,-1.8751914335933058,7.726217315315055,9.43247515809535
-1.717841329767533,-3.156855926086272,-3.2212168838042112,-1.7808666820123522,7.821175648809358,8.636694490263956
-1.7494098890283958,-3.0786441695981783,-3.239025550624335,-1.6944997371097126,7.894736543194431,7.853306869966127
-1.7801963307243776,-2.999696804166234,-3.255970547995432,-1.6159666684100513,7.950041390915894,7.084833921016154
-1.8101932987660398,-2.9201963902570753,-3.2721302146795326,-1.5451183291998898,7.989842232671561,6.333378789020367
-1.8393952626686105,-2.84029796793036,-3.2875813979715316,-1.4817845413096862,8.016516858440067,5.60067069553037
-1.867798242347914,-2.7601327993459592,-3.3023992433846283,-1.4257778343543825,8.032088628341832,4.888109684548294
-1.8953995703413735,-2.679811913062541,-3.3166570217281723,-1.3768967375088996,8.038249615531623,4.196809923149506
-1.922197689471999,-2.599429416907225,-3.3304259891032615,-1.3349286382774046,8.036385913634192,3.5276403419685685
-1.9481919836410713,-2.519065557770883,-3.3437752754860357,-1.2996522348577189,8.027604171770164,2.881261772249267
-1.97338263921878,-2.4387895160531814,-3.3567717978346128,-1.270839617135226,8.012758614747849,2.2581600520350578
-1.997770534379312,-2.358661929905703,-3.369480194005965,-1.2482580166148756,7.992477971872498,1.6586748361309014
-2.0213571536783688,-2.278737150186978,-3.3819627741721137,-1.2316712682535667,7.967191875094918,1.083024056084059
-2.0441445251802386,-2.1990652314360286,-3.3942794868546495,-1.220841027692726,7.937156397813419,0.5313241421849579
-2.066135177494599,-2.1196936674578946,-3.406487897131577,-1.2155277862708764,7.902478492665601,0.0036062444702942807
-2.087332114169178,-2.0406688825312385,-3.4186431749942856,-1.2154917238261735,7.8631391538076425,-0.5001712209151665
-2.1077388029944903,-1.962037490993162,-3.430798092232547,-1.2204934360353252,7.8190151803243895,-0.9801133148800509
-2.127359177904422,-1.883847339189918,-3.4430030265929004,-1.2302945691841258,7.7698994561754615,-1.4363821900885645
-2.1461976512963212,-1.8061483446281634,-3.4553059722847417,-1.2446583910850115,7.715519691636186,-1.8691931478289439
-2.164259134742603,-1.7289931477118015,-3.4677525561955918,-1.263350322563301,7.655555594107659,-2.2788127135943963
-2.181549066219721,-1.6524375917707248,-3.4803860594212246,-1.286138449699245,7.589654454357337,-2.665558327228711
-2.198073442137428,-1.5765410472271515,-3.493247443918217,-1.312794032971532,7.517445148979806,-3.0297992724800875
-2.2138388526096993,-1.5013665957373534,-3.5063753842479324,-1.3430920256963328,7.438550571854146,-3.371958506043618
-2.2288525185670727,-1.426981090018812,-3.5198063045048955,-1.376811610756769,7.352598516921358,-3.6925150845497834
-2.2431223294672606,-1.3534551048495984,-3.5335744206124633,-1.4137367616022667,7.259231041762673,-3.9920069268052973
-2.2566568805157567,-1.2808627944319717,-3.547711788228486,-1.4536568308703197,7.158112346198273,-4.271033685795979
