th1 (rad),w1 (rad/s),th2 (rad),w2 (rad/s)
2.150944503075576,1.7607634562227472,5.017856045136197,1.2302887065290993
2.1685521376378034,1.6881462405722225,5.030158932201488,1.2454478082812017
2.1854336000435257,1.6176985220053643,5.0426134102843,1.26296165616252
2.2016105852635794,1.5493589100272644,5.055243026845925,1.2827295023467329
2.217104174363852,1.4830591675007663,5.068070321869393,1.304638561341452
2.2319347660388598,1.4187251885127738,5.081116707482807,1.328565962215017
2.2461220179239874,1.3562777191313429,5.094402367104958,1.3543803001616628
2.2596847951153007,1.2956328465362315,5.107946170106574,1.3819428276080592
2.272641123580663,1.236702281208345,5.121765598382654,1.4111083233431752
2.2850081463927467,1.1793934559025432,5.135876681616086,1.4417256761190014
2.296802080951772,1.1236094642015053,5.150293938377276,1.4736382171478943
2.308038175593787,1.0692488607221782,5.165030320548754,1.5066838341797277
2.318730664201009,1.01620534466041,5.180097158890551,1.540694898596292
2.328892717647613,0.9643673484301297,5.1955041078765145,1.5754980363885993
2.3385363911319144,0.913617553775777,5.211259088240401,1.6109137741272224
2.3476725666696723,0.8638323589834676,5.227368225981673,1.6467560922061426
2.356310890259507,0.8148813227351143,5.243835786903734,1.6828319198119863
2.364459703486858,0.7666266127562322,5.260664106101854,1.7189406092773043
2.3721259696144203,0.7189224906767259,5.277853512194627,1.7548734317008172
2.3793151945211877,0.6716148683740772,5.295402246511634,1.7904131408726525
2.3860313432049285,0.6245409753481153,5.313306377920361,1.8253336584515416
2.3922767529584097,0.5775291811437204,5.331559714504876,1.8593999397108096
2.398052044769847,0.530399021140147,5.350153713901984,1.8923680855640836
2.403356034981248,0.4829614776831969,5.369077394757626,1.923985772393057
2.4081856497580802,0.4350195709302685,5.388317252481556,1.9539930756311594
2.412535845467383,0.3863693141507882,5.407857183237868,1.9821237651149297
2.4163995386088906,0.33680108569915557,5.427678420889018,2.008107148726104
2.419767549465882,0.28610146350499505,5.447759492376279,2.0316705345103987
2.4226285641009317,0.23405555676543233,5.468076197721383,2.0525423689396027
2.424969119668586,0.1804498527643656,5.488601621410779,2.070456089064521
2.4267736181962296,0.12507557386118792,5.509306182301424,2.085154698091336
2.4280243739348415,0.06773251064299693,5.530157729282338,2.096396037080042
2.4287016990412713,0.008233262658914768,5.551121689653138,2.103958680536971
2.4287840316678606,-0.053592220446743305,5.572161276458508,2.1076483322885986
2.428248109463393,-0.11789194474074462,5.593237759781394,2.1073045431076234
2.4270691900159855,-0.18478721035729867,5.61431080521247,2.102807517371822
2.4252213179124125,-0.2543682001875606,5.635338880386188,2.0940847279823642
2.422677635910537,-0.3266900581418577,5.6562797276660115,2.0811170229765734
2.419410735329118,-0.40176970252888733,5.677090897895777,2.063943889873015
2.4153930383038293,-0.47958360771265857,5.697730336794507,2.0426675500067937
2.4105972022267026,-0.560066754250902,5.718157012294575,2.017455588265166
2.4049965346841935,-0.6431128945848252,5.738331568177227,1.988541884237566
2.398565405738345,-0.7285762110657271,5.758216987019602,1.9562256960095297
2.391279643627688,-0.8162743612544144,5.7777792439796976,1.9208688514016523
2.383116900015144,-0.905992819612307,5.796987932493714,1.8828911142667406
2.3740569718190208,-0.997490343554759,5.815816843636381,1.8427639046622974
2.3640820683834733,-1.0905053237900886,5.834244482683004,1.801002650256689
2.3531770151455724,-1.1847627308805384,5.85225450918557,1.7581581225799403
2.341329387836767,-1.2799813464794025,5.86983609041137,1.7148071589110687
2.328529574371973,-1.375880970060389,5.886984162000481,1.6715431856705896
2.314770764671369,-1.47218931835101,5.903699593857186,1.628966943112973
2.300048871487859,-1.5686483806425389,5.919989263288316,1.5876777683875414
2.284362387681434,-1.665020052429309,5.935866040972191,1.5482657317248543
2.267712187157141,-1.7610909354740054,5.951348698289439,1.5113048469799846
2.250101277802401,-1.8566762577667293,5.966461746759239,1.477347501415451
2.231534515224734,-1.9516229264431557,5.981235221773393,1.4469201777760332
2.212018285960302,-2.045811776685884,5.995704423551153,1.4205204799748823
2.191560168193443,-2.1391591178894465,6.009909628350902,1.3986154255864311
2.1701685770145485,-2.2316177045417347,6.0238957826067665,1.3816409353259793
2.147852399969131,-2.3231772743482697,6.0377121919600265,1.370002431599736
2.1246206272256485,-2.4138648020436992,6.051412216276024,1.3640764536294794
2.1004819792052114,-2.503744616582636,6.065052980812318,1.3642132034906354
2.075444533039385,-2.5929185246510325,6.078695112847225,1.370739953325239
2.049515347792875,-2.681526077284928,6.092402512380477,1.3839652668377027
2.022700087020026,-2.7697451111866185,6.106242165048854,1.404184016228775
1.9950026359081596,-2.857792694155124,6.120284005211142,1.4316832078681425
1.9664247089666085,-2.9459266066884866,6.134600837289823,1.466748665860514
1.9369654428997236,-3.0344475008624068,6.149268323948428,1.5096726625888839
1.9066209678910995,-3.1237018945542228,6.164365050574317,1.5607626304445414
1.8753839489455573,-3.2140861855283887,6.179972676878763,1.6203511411417681
1.8432430870902734,-3.306051907581991,6.196176188290181,1.6888074008436706
1.8101825680144534,-3.40011250190905,6.213064262298618,1.7665505840156828
1.7761814429953628,-3.4968519434327026,6.230729768138774,1.8540654201705071
1.7412129235610359,-3.596935646570579,6.249270422340479,1.951920559226881
1.70524356709533,-3.701124179815248,6.2687896279327475,2.060790375922496
1.6682323252971776,-3.8102904438852128,6.289397531691972,2.181481031403855
1.6301294208583255,-3.9254411093534007,6.311212342006011,2.3149617829502365
1.5908750097647915,-4.047743250314906,6.334361959835514,2.462402695749687
1.5503975772616423,-4.178557209002771,6.3589859867930105,2.6252200015919236
1.5086120051716145,-4.319476686011406,6.385238186808929,2.805130227934574
1.4654172383115005,-4.472376661237842,6.4132894890882755,3.004213583706849
1.4206934716991222,-4.639468562523759,6.443331624925344,3.2249852939523618
1.3742987860738847,-4.82335916733626,6.475581477864868,3.4704692823151264
1.3260651944005222,-5.027103077320447,6.510286170688019,3.7442590217337877
1.2757941636273178,-5.254224176230937,6.547728760905357,4.050529769136425
1.2232519218650084,-5.508651007630324,6.588234058596721,4.3939231414640405
1.1681654117887053,-5.794448357729488,6.6321732900113615,4.779136407782213
1.1102209282114104,-6.115103731578938,6.679964654089184,5.209874605526605
1.049069890895621,-6.47190304976635,6.73206340014445,5.686507967451175
0.9843508603979576,-6.8605984289323825,6.788928479818962,6.201312199391119
0.9157448761086338,-7.265373329606188,6.850941601812873,6.7298963865753265
0.8430911428125719,-7.65017840280299,6.9182405656786266,7.218940856807696
0.766589358784542,-7.95265144396968,6.9904299742467035,7.5776335102774235
0.6870628443448452,-8.096046560068295,7.066206309349478,7.694611829237795
0.6061023787441623,-8.032891401084632,7.143152427641856,7.499815447967899
0.525773464733316,-7.789862019197498,7.218150582121535,7.028250628492619
0.447874844541341,-7.451431034644071,7.288433088406461,6.397476855840192
0.37336053419490034,-7.098971555707015,7.352407856964863,5.721924030607513
0.3023708186378302,-6.778412866428746,7.409627097270938,5.066907426377358
0.23458668997354276,-6.505959833922156,7.460296171534712,4.456151620217846
0.1695270916343212,-6.282599121778392,7.504857687736891,3.8919203958669444
0.10670110041653727,-6.103572977453011,7.54377689169556,3.36828598077722
0.04566537064200716,-5.9627350025351396,7.577459751503333,2.8773065127817516
-0.013961979383344238,-5.854182862397726,7.60623281663115,2.411409574323585
-0.07250380800732151,-5.772723094271186,7.630346912374385,1.9641392047601784
-0.13023103895003335,-5.713894323034818,7.649988304421987,1.5302777544036008
-0.18736998218038153,-5.673848323995188,7.665291081966023,1.105760435699242
-0.2441084654203334,-5.649203650910436,7.676348686323015,0.6875420553468964
-0.30060050192943777,-5.636912230226583,7.683224106876485,0.27347044023882017
-0.3569696242317036,-5.634150861917955,7.685958811278873,-0.137819811223169
-0.4133111328508831,-5.638239341642185,7.684580613166641,-0.5469946405225217
-0.469693526267305,-5.646583643852313,7.679110666761416,-0.9540950177126695
-0.5261593627058281,-5.656641759260145,7.66956971658429,-1.3586053542543914
-0.5827257802984296,-5.665909595293018,7.655983663041746,-1.7595215607594423
-0.6393848762513598,-5.671924191574387,7.638388447434152,-2.155422755346315
-0.6961041181671036,-5.6722812219370375,7.616834219880689,-2.5445486615312616
-0.752826930386474,-5.6646634067879145,7.591388733265376,-2.924882790051933
-0.8094735644543531,-5.646876181243306,7.562139905364856,-3.2942398113558657
-0.8659423262667862,-5.616886894987089,7.529197507251298,-3.6503543017439553
-0.9221111952166572,-5.572864049384855,7.492693964233858,-3.9909674305755307
-0.9778398357105057,-5.513213614916684,7.452784289928103,-4.313908187899318
-1.0329719718596726,-5.436610239233889,7.40964520804911,-4.617166344888251
-1.0873380742520116,-5.342022009031732,7.363473544600227,-4.898955295579706
-1.140758294342329,-5.228728199676995,7.31448399164443,-5.157763986864124
-1.1930455763390988,-5.096329993033706,7.262906351775788,-5.39239804864451
-1.244008876269436,-4.944754390677557,7.208982371289343,-5.602010802101402
-1.2934564201762115,-4.774251507957585,7.152962263268329,-5.7861249786696405
-1.3411989352557874,-4.5853851968645,7.095101013481633,-5.9446457759202
-1.3870527872244325,-4.379016658625111,7.035654555722431,-6.077865458192754
-1.4308429538106835,-4.1562805283792645,6.9748759011405035,-6.1864592798397675
-1.4724057590944761,-3.918552969921164,6.913011308342106,-6.2714722611761085
-1.5115912887936878,-3.6674116665229484,6.850296585730344,-6.334296416689142
-1.5482654054589173,-3.404588207695613,6.786953621563453,-6.376638463392498
-1.5823112875358734,-3.1319141451414625,6.723187236929528,-6.400478764018551
-1.613630428987288,-2.8512627650073292,6.659182449289342,-6.4080231413556
-1.6421430566373614,-2.5644892271268853,6.5951022178757865,-6.4016500498129885
-1.6677879489086302,-2.273372016902552,6.531085717377657,-6.383856228754444
-1.6905216690776557,-1.9795585698398603,6.467247155090113,-6.357204262118276
-1.7103172547760543,-1.684517471287988,6.40367511246893,-6.324275383144981
-1.7271624294889343,-1.389498886246041,6.3404323586374804,-6.287630428161236
-1.7410574183513947,-1.0955039649133527,6.277556054355868,-6.249781161078011
-1.7520124580005283,-0.8032630414084239,6.215058242745088,-6.213173395139962
-1.7600450884146126,-0.5132216214939297,6.152926508793688,-6.18018256235976
-1.7651773046295518,-0.22553253049210426,6.09112468317009,-6.153121723288943
-1.767432629934473,0.05994778364177833,6.029593465937201,-6.1342615170578965
-1.7668331520980551,0.343660899830279,5.968250850766622,-6.125861205823158
-1.7633965430997522,0.626347937462254,5.906992238708391,-6.1302096733761235
-1.7571330637251297,0.909052281950935,5.84569014197463,-6.149674795519915
-1.7480425409056204,1.1931237615248138,5.784193394019431,-6.186758645720202
-1.7361113032903723,1.4802224633425085,5.722325807562228,-6.244153873019937
-1.7213090786569472,1.7723165705648278,5.6598842688320286,-6.324792072864107
-1.703585912951299,2.071661462044499,5.596636348103387,-6.431865801769315
-1.682869298330854,2.3807338957666984,5.532317690085694,-6.568787896322397
-1.659061959373187,2.7020701657995194,5.466629811122471,-6.73901755800727
-1.632041257715192,3.037912269363847,5.399239635542398,-6.9456203102110115
-1.6016621350215534,3.389490888704529,5.329783432440288,-7.190323326346737
-1.5677672261345081,3.7556667843763663,5.257880199176821,-7.471675454276182
-1.5302105582907444,4.130563970991823,5.183163444634059,-7.7817916734286925
-1.488904918580826,4.499985781206363,5.105345527899772,-8.10136900675482
-1.4439050607687625,4.837419291553166,5.024331837832223,-8.394057262915236
-1.3955308678532308,5.10313585192354,4.940391265203071,-8.605023255816873
-1.3444995093339953,5.2531253071685775,4.854341032644903,-8.673067794018147
-1.2919682562623096,5.260868030136042,4.767610354704721,-8.560521078776091
-1.2393595759609493,5.137598012108945,4.68200514391696,-8.281096781794075
-1.18798359583986,4.927513558133632,4.59919417609902,-7.893227641060304
-1.1387084602585236,4.681311810127229,4.520261899688417,-7.463768173230013
-1.0918953421572513,4.4356418894320235,4.445624217956117,-7.0401466787385925
-1.047538923262931,4.209777570727837,4.375222751168731,-6.646198250971013
-1.0054411475556526,4.010998568536814,4.30876076865902,-6.289733460519792
-0.9653311618702844,3.840289751283861,4.245863434053822,-5.970347829959067
-0.9269282643574458,3.695929077537538,4.186159955754231,-5.684252929296274
-0.8899689735820704,3.575317336440044,4.129317426461268,-5.426686814985351
-0.85421580021767,3.4757986868397106,4.075050558311415,-5.192957801342635
-0.8194578133492728,3.394982062175473,4.023120980297989,-4.978825062217315
-0.785507992727518,3.330835570699737,3.973332729675816,-4.7805860360792005
-0.7521996370205206,3.281685125397042,3.925526869315024,-4.595046502284296
-0.7193827857665502,3.246177098612963,3.879576404292181,-4.419452225673633
-0.6869210147804206,3.2232308400293492,3.835381882035445,-4.25141579252265
-0.6546887063801271,3.2119912682715723,3.7928677241102187,-4.088851980546434
-0.6225687936974114,3.211784712586784,3.7519792043047544,-3.9299263155444213
-0.5904509465715435,3.2220780953848864,3.71267994114931,-3.7730180290849296
-0.5582301656176947,3.2424402532592436,3.674949760858461,-3.616697513824509
-0.5258057630851023,3.2725037167949935,3.638782785720216,-3.459718218766994
-0.49308072591715235,3.3119251888380243,3.604185603532546,-3.301023085632598
-0.4599614740287721,3.360343128007798,3.57117537267622,-3.139765750836055
-0.4263580427486941,3.4173312479266174,3.539777715167859,-2.975346591061736
-0.3921847302694279,3.482347443883149,3.5100242492572415,-2.8074630734786354
-0.3573612558305964,3.5546787472624835,3.481949618522455,-2.63617259856583
-0.32181446835797156,3.633384456948051,3.455587892536797,-2.461963953248965
-0.28548062378849104,3.717241600404642,3.4309682530043073,-2.2858306044700334
-0.24830820778444462,3.8046991727479935,3.408109946959607,-2.109335575236878
-0.21026121605696468,3.8938497932101814,3.387016591207238,-1.9346541363947074
-0.17132271812486288,3.9824288417792744,3.3676700498432908,-1.7645780301933391
-0.13149842970707015,4.067850939686081,3.3500242695413576,-1.6024647740171454
-0.09081992031020934,4.147291006225538,3.333999621801186,-1.452119139881335
-0.04934701024795396,4.217811683256585,3.3194784304023726,-1.3176019485532562
-0.007168893415388108,4.276531127506922,3.30630241091684,-1.20297338352609
0.03559641785968111,4.320816512006604,3.294272677081579,-1.1119920082251562
0.07880458297974716,4.348481291500629,3.2831527569993275,-1.0478030939528045
0.12228939589475343,4.357960633739975,3.2726747260597993,-1.0126569732051134
0.16586900223215317,4.348440773815751,3.2625481563277483,-1.0076973104487852
0.20935340997031068,4.319924309200196,3.2524711832232605,-1.0328500714732545
0.25255265306231267,4.273223103878757,3.2421426825085278,-1.0868286220498014
0.29528488410110026,4.209881233022285,3.23127439628803,-1.1672524240203173
0.3373836964313231,4.132040047468598,3.2196018720478268,-1.270860148019108
0.3787040969060091,4.042264349370794,3.206893270567636,-1.393785835091984
0.41912674039971703,3.943352004511537,3.192955412216716,-1.5318608324313143
0.4585602604448324,3.8381489443702814,3.1776368038924026,-1.6809049828538665
0.49694174988853523,3.7293879091876154,3.160827754063864,-1.8369770443084215
0.5342356289804114,3.6195634323967285,3.1424579836207798,-1.9965646244826036
0.5704312633043788,3.510848779654067,3.1224923373759537,-2.156705562840573
0.6055397511009194,3.4050541898792193,3.100925281747548,-2.315043274462872
0.6395902929997116,3.303620889600692,3.0777748490029193,-2.469826339783199
0.6726265018957185,3.2076425073235573,3.0530765856050874,-2.6198668284527042
0.7047029269689541,3.1179046767901903,3.02687791732056,-2.764472700626219
0.735881973736856,3.0349343423582082,2.999233190314298,-2.9033680056834923
0.7662313171604381,2.959051938080211,2.970199510257463,-3.0366116003877055
0.7958218365412403,2.890421607133765,2.939833394253586,-3.164521723820911
0.8247260526125779,2.82909652145615,2.908188177015377,-3.2876106813255217
0.8530170178271395,2.775057907187928,2.875312070202122,-3.4065314581249058
0.8807675968990187,2.728247497435591,2.841246755620873,-3.5220363941649047
0.9080500718733746,2.688593844737884,2.806026391679224,-3.6349470291012387
0.9349360103207535,2.6560333089348473,2.7696769213882115,-3.7461337198267475
0.9614963434101019,2.630526682108171,2.732215584189944,-3.8565034793879693
0.9878016102311836,2.612072400507977,2.6936505493960645,-3.966994542467537
1.0139223342362633,2.6007171824226427,2.653980603971389,-4.078576316346853
1.0399295060604898,2.5965647552300197,2.6131948408079206,-4.192253542675177
1.06589515361279,2.5997831046453244,2.571272305381169,-4.309073607152748
1.0918929846592433,2.6106103796812743,2.528181569309641,-4.430135927068512
1.117999088456056,2.629359173917633,2.483880210038956,-4.556602140910275
1.1442926801952322,2.656418293317427,2.438314188629853,-4.68970530084485
1.1708568631284064,2.692250169299971,2.3914171356214045,-4.830755234521967
1.1977793648214061,2.737380546767975,2.343109583276185,-4.9811353792566235
1.2251531702890859,2.792374592565796,2.2932982294836184,-5.142283183853501
1.253076916214744,2.857789551093204,2.2418753976450834,-5.315640819331864
1.281654811725676,2.9340877003023214,2.1887189894517647,-5.502554287176029
1.3109956887286993,3.0214836699077563,2.1336934465800046,-5.704085677973399
1.3412105254277769,3.11968664223911,2.0766525898002706,-5.920684464210067
1.372407391850168,3.2274823663036125,2.0174457451581698,-6.151641587586813
1.4046822155132042,3.3420914350614366,1.9559293292823017,-6.394237053477562
1.4381031298638185,3.458266135484235,1.891986958747526,-6.64252503120069
1.4726857912186608,3.5672092859748497,1.8255617084355191,-6.885864109789692
1.5083578840784093,3.6557081457435103,1.7567030673376223,-7.107723983933796
1.5449149655358445,3.7064028912351765,1.6856258274982843,-7.28602404938195
1.5819789944481963,3.700504576647828,1.6127655870044648,-7.396804956121845
1.6189840402146747,3.623511781543004,1.5387975374432463,-7.4219775169074875
1.6552191580301048,3.4717408745856058,1.4645777622741714,-7.35812703606306
1.689936566775961,3.2548891051728317,1.3909964919135407,-7.219812629511813
1.7224854578276894,2.991901266358215,1.3187983656184226,-7.0337076959121925
1.7524044704912716,2.7032892944542346,1.2484612886593007,-6.828037017309204
1.7794373634358138,2.4053509604939505,1.1801809184862087,-6.624801697080645
1.8034908730407533,2.108408081911919,1.1139329015154023,-6.437584624344673
1.8245749538598726,1.8177235915655565,1.0495570552719555,-6.272981409046701
1.8427521897755281,1.5351885171790682,0.9868272411814885,-6.133001941766575
1.8581040749473188,1.2607692106876414,0.9254972217638227,-6.0170759945771355
1.8707117670541953,0.9934770446418828,0.8653264618180513,-5.92336611920122
1.880646537500614,0.731940607123232,0.806092800626039,-5.8495187907249475
1.8879659435718463,0.47471724617618366,0.7475976127187896,-5.793052825553915
1.8927131160336081,0.2204520766389203,0.6896670844632504,-5.751538322974662
1.8949176367999974,-0.03204636484832063,0.6321517012335038,-5.722662807159269
1.894597173151514,-0.28377362211745705,0.5749250731619111,-5.704240205220969
1.8917594369303394,-0.5355179034691951,0.5178826711097014,-5.694193124491672
1.8864042578956475,-0.787858159277552,0.4609407398647847,-5.690524618068712
1.878525676302872,-1.0411659150659491,0.4040354936840976,-5.691287886220839
1.8681140171522124,-1.2956083291231395,0.3471226148218892,-5.694558293091208
