th1 (rad),w1 (rad/s),th2 (rad),w2 (rad/s)
2.1835778078578723,-1.8932562267627724,5.056485493551821,0.23246635571110758
2.1646452455902447,-1.9683851144124815,5.058810157108932,0.24277299605791153
2.14496139444612,-2.0458660293964734,5.061237887069511,0.2503407456709543
2.124502734152155,-2.1256593830736783,5.063741294526221,0.25531026603190504
2.1032461403214184,-2.207689125377752,5.06629439718654,0.2578862896106115
2.081169249067641,-2.2918369113826933,5.068873260082646,0.25834686757651276
2.058250879953814,-2.377936520206656,5.071456728758411,0.2570522753091868
2.0344715147517474,-2.465768898866431,5.074027251511503,0.2544530040421048
2.009813825763083,-2.5550582775467747,5.076571781551924,0.25109614821868825
1.9842632429876153,-2.645469862402918,5.079082743034111,0.24762940066951203
1.957808544363586,-2.7366096459325178,5.081559037040806,0.24480181046654922
1.9304424479042608,-2.8280268707011484,5.084007055145472,0.24346046219591314
1.9021621791972494,-2.919219628019557,5.086441659767431,0.24454232084231284
1.8729699829170539,-3.0096439599712337,5.0888870829758535,0.24906067006735796
1.8428735433173415,-3.098726656796718,5.091377689676527,0.258085862199062
1.8118862767493744,-3.185881704852561,5.0939585482985175,0.27272049289700945
1.7800274597008487,-3.2705300544807208,5.096685753227487,0.29406959460066073
1.7473221591560415,-3.3521220625896166,5.099626449173494,0.3232069764722523
1.7138009385301454,-3.430161650610612,5.102858518938216,0.3611393746922575
1.6794993220240393,-3.5042309405689065,5.106469912685139,0.40877055305370164
1.6444570126183502,-3.5740139296592117,5.110557618215676,0.4668678406710176
1.608716873321758,-3.6393176752647567,5.115226296622386,0.5360337445306038
1.5723236965691105,-3.7000895192568075,5.120586634067692,0.6166851765446567
1.5353228013765425,-3.7564291006542647,5.126753485833139,0.709042460752844
1.49775851037,-3.808594287503761,5.1338439104406675,0.8131296465048096
1.4596725674949624,-3.857000676150792,5.141975206905715,0.9287868018305355
1.4211025607334544,-3.9022149082730335,5.151263074924021,1.0556939945041819
1.3820804116507241,-3.9449426730946873,5.161820014869063,1.1934057149524016
1.3426309849197773,-3.9860128158304704,5.173754072018587,1.3413936945365936
1.3027708567614726,-4.026359392495604,5.187168008963953,1.4990955487139732
1.2625072628365166,-4.067003747563107,5.202158964451093,1.6659665100882914
1.2218372253608856,-4.109038730878539,5.218818629551976,1.841531736744596
1.1807468380521002,-4.153617038390201,5.237233946919422,2.0254372519001254
1.1392106676681981,-4.201945415409184,5.257488319438423,2.217498410078118
1.0971912135141062,-4.2552861800630115,5.279663303539204,2.4177457879915156
1.054638351713476,-4.314967293063732,5.303840761419119,2.6264694651769567
1.0114886787828388,-4.382402094991749,5.330105456070888,2.8442637185358444
0.9676646578329213,-4.459119914320445,5.358548093256247,3.07207517614306
0.9230734586897169,-4.546809056681146,5.389268845017678,3.3112584693194442
0.8776053681229055,-4.647374228724573,5.422381429710872,3.563644420668707
0.8311316258356597,-4.7630111927033205,5.458017873917559,3.831626820192415
0.7835015139086265,-4.8963022546380675,5.4963341421194825,4.1182747638333765
0.7345384913622459,-5.050336678986975,5.537516889757816,4.427477914212646
0.6840351245723761,-5.228859309728971,5.5817916688999425,4.764130597172608
0.6317465314750864,-5.436446087519849,5.629432974871668,5.134353992019543
0.5773820705998879,-5.678690681081969,5.680776514791864,5.545735359204834
0.5205951637890682,-5.962347190148481,5.736233868383913,6.007508529668975
0.4609716918875834,-6.295273863355565,5.796308953680603,6.530460561221314
0.39801895325402775,-6.685777757252222,5.861613559292816,7.126007701685604
0.33116117568150555,-7.1403881077699225,5.9328736363096715,7.803084257726647
0.2597572946038063,-7.657880498249249,6.010904478886938,8.559799779379242
0.18317848962131383,-8.215498199120676,6.0965024766807305,9.36418699635458
0.10102350763010708,-8.74361371884665,6.190144346644276,10.118761789999331
0.013587370441640573,-9.101141152545532,6.29133196454427,10.626117065484475
-0.07742404108381475,-9.113655284874094,6.397593135199115,10.642339211321952
-0.16856059393255568,-8.73006626649618,6.504016527312334,10.096241338298714
-0.25586125659751746,-8.111791425466222,6.604978940695322,9.213456244382089
-0.33697917085217965,-7.464639173628862,6.697113503139143,8.280998650927875
-0.4116255625884683,-6.891844711891579,6.7799234896484215,7.44264468420633
-0.4805440097073841,-6.414417437089037,6.854349936490485,6.72778920310018
-0.5446881840782745,-6.022649705693031,6.921627828521487,6.123209451014273
-0.6049146811352047,-5.700805886132618,6.982859923031629,5.607333844806851
-0.661922739996531,-5.434646782786449,7.038933261479698,5.160661116230893
-0.7162692078243954,-5.212841327716483,7.090539872642006,4.767719967720941
-0.7683976211015602,-5.026691575771969,7.1382170723192155,4.416706062637499
-0.8186645368592799,-4.8695467864161595,7.18238413294559,4.098696886956485
-0.8673600047234414,-4.736270320702889,7.223371101815156,3.8069445505326316
-0.9147227079304703,-4.622825224523311,7.261440547320482,3.536335787769608
-0.9609509601757034,-4.525966982229901,7.2968039051981775,3.283001947174073
-1.0062106299980025,-4.443018317613147,7.329633924669918,3.044042864185402
-1.050640813174134,-4.371703859149545,7.360074353311772,2.8173320829446147
-1.0943578517656296,-4.310028340168667,7.388247674141218,2.601378250835591
-1.1374581351673163,-4.25618722259069,7.414261456649574,2.3952238964547843
-1.1800200073932232,-4.20850256972768,7.438213695614122,2.198367493732776
-1.2221050330905001,-4.165379739310628,7.46019737055145,2.0106980479984804
-1.2637588304836065,-4.12528222213226,7.480304351031434,1.8324339386849309
-1.3050116527049291,-4.08672287575665,7.4986286904182835,1.6640598895773944
-1.3458788814624956,-4.0482700183844855,7.515269289314057,1.5062580574665718
-1.3863615816463404,-4.008566477903864,7.530331869888723,1.3598315201734794
-1.426447246425379,-3.9663589016729626,7.543930185090458,1.2256209062889527
-1.4661108354421086,-3.9205336563868474,7.556186394153348,1.104417353822045
-1.5053161720059771,-3.870154772559521,7.567230567691568,0.9968770747598505
-1.5440177197315723,-3.814498909488233,7.577199338439167,0.9034441380000742
-1.5821627088264547,-3.7530824616030003,7.5862337798191675,0.8242883317930704
-1.6196935334424847,-3.6856767843688565,7.594476663137098,0.7592639893404676
-1.6565503012861733,-3.6123089994288864,7.602069303030503,0.7078935861029806
-1.6926733912804621,-3.533247697346513,7.609148238891533,0.669377129494513
-1.7280058682539272,-3.448974754948782,7.615842010186478,0.6426254039267951
-1.762495615803415,-3.3601460901259435,7.622268264225746,0.6263125606662222
-1.7960970767046744,-3.2675452459094103,7.628531389832409,0.6189417780302068
-1.8287725291637686,-3.1720341191417214,7.634720807612711,0.6189169739712553
-1.860492870355186,-3.0745049555724666,7.640909977352424,0.6246138129642099
-1.8912379199109106,-2.9758370550110222,7.6471561154820655,0.6344443143089038
-1.920996290461021,-2.8768606539736,7.653500558625154,0.6469109396020325
-1.9497648970007568,-2.7783293726697975,7.659969668021175,0.6606477928627955
-1.9775481907274548,-2.6809015931943154,7.6665761459498025,0.6744482303625174
-2.0043572066593978,-2.5851302929511015,7.673320628253427,0.6872795517974039
-2.030208509588909,-2.491460253941763,7.680193423771401,0.6982864254460192
-2.0551231121283267,-2.400231217601234,7.687176288025861,0.7067852668302699
-2.079125424304339,-2.311685431639432,7.694244140694163,0.7122519862362935
-2.1022422786207335,-2.225978091785072,7.701366660556526,0.7143054266458108
-2.1245020595385844,-2.1431893599895355,7.708509714822984,0.712688525797359
-2.1459339531384796,-2.0633368859754944,7.715636600080958,0.707248845240325
-2.1665673219982344,-1.9863880247074976,7.722709088533361,0.6979196898993282
-2.1864312022453096,-1.912271194825054,7.7296882854323545,0.6847026468394495
-2.20555391419356,-1.8408860416611972,7.736535311900749,0.6676520333049059
-2.223962774610172,-1.7721122436062302,7.743211832233798,0.6468614755553164
-2.2416838970462347,-1.7058169309495896,7.749680446989351,0.6224526424530895
-2.2587420663557305,-1.641860775916245,7.755904973413882,0.594566023997403
-2.275160674114893,-1.5801028681365932,7.761850633653856,0.5633535638827691
-2.2909617027962588,-1.5204045188495419,7.767484169292684,0.5289729144486098
-2.306165747984754,-1.4626321469877794,7.772773898437171,0.4915830706314659
-2.320792069454632,-1.4066593971738743,7.777689729143486,0.4513411470265087
-2.3348586634263704,-1.3523686285464775,7.782203140613751,0.4084000812697255
-2.348382349711835,-1.2996518979652214,7.786287141426448,0.36290707202559924
-2.3613788686914874,-1.248411544135327,7.7899162121467045,0.31500258699399286
-2.3738629841328405,-1.1985604622772257,7.793066238016644,0.2648198030018303
-2.385848588755613,-1.15002214318892,7.795714436046662,0.21248436492469583
-2.397348810187502,-1.1027305364634725,7.797839279695909,0.15811437213187154
-2.408376115552137,-1.0566297854490545,7.799420423417228,0.10182052010114079
-2.4189424134066275,-1.0116738712766524,7.800438628618239,0.04370634085305492
-2.429059152119394,-0.9678261948049255,7.80087569202677,-0.016131500867117544
-2.438737414067443,-0.9250591184497412,7.800714377018099,-0.0776028878654188
-2.4479880052519407,-0.8833534843577798,7.799938348139444,-0.1406239306436498
-2.4568215400955187,-0.8426981210278823,7.798532108833008,-0.2051166637636453
-2.4652485213057975,-0.803089347072133,7.796480942195371,-0.2710087691517479
-2.4732794147765187,-0.7645304781529044,7.793770854503854,-0.33823333258836663
-2.4809247195580477,-0.727031341067179,7.79038852117797,-0.40672863607323434
-2.4881950329687195,-0.6906077973331672,7.786321234817238,-0.47643798592613346
-2.495101110942051,-0.6552812773455221,7.7815568549579766,-0.5473095742104294
-2.5016539237155064,-0.6210783251018673,7.776083759215872,-0.6192963692157557
-2.507864706966525,-0.5880301525783572,7.769890795523715,-0.692356029192748
-2.5137450084923088,-0.5561722019721052,7.7629672352317876,-0.766450832201226
-2.51930673051203,-0.5255437131706219,7.755302726909775,-0.8415476137320922
-2.524562167643736,-0.4961872928982229,7.746887250772454,-0.91761770262106
-2.5295240405727184,-0.4681484809783222,7.737711073746244,-0.9946368446248623
-2.5342055253825015,-0.4414753079949693,7.727764705299995,-1.0725851018180543
-2.538620278462451,-0.4162178372967609,7.717038854281815,-1.1514467146338803
-2.5427824568354187,-0.3924276827240118,7.705524387135476,-1.231209911860409
-2.546706733662659,-0.37015749162104616,7.6932122880168725,-1.3118666521589704
-2.5504083085788696,-0.34946038058804607,7.680093621495283,-1.3934122786433831
-2.55390291238475,-0.33038930900407015,7.666159498708849,-1.4758450656967277
-2.5572068054747907,-0.31299637259495905,7.6514010480518815,-1.5591656344657183
-2.5603367692007404,-0.2973319962189877,7.635809391707224,-1.6433762103317702
-2.5633100891629303,-0.2834440016098829,7.619375629603907,-1.728479692104027
-2.566144529179029,-0.27137652208994667,7.602090832682866,-1.8144784987367975
-2.5688582943999285,-0.2611687323260433,7.583946047695498,-1.9013731551149138
-2.571469981723189,-0.2528533571890143,7.56493231614435,-1.9891605740199954
-2.573998515295079,-0.24645491991865762,7.54504071040415,-2.0778319870346693
-2.5764630644942654,-0.24198768643482227,7.524262390533803,-2.167370473247687
-2.578882941358614,-0.23945326027075806,7.502588685801326,-2.257748031768272
-2.5812774739613213,-0.23883778194368427,7.480011205483644,-2.3489221430716305
-2.5836658517807582,-0.24010868858681075,7.4565219840529275,-2.44083176622903
-2.5860669386666264,-0.24321099563357196,7.432113666390637,-2.533392725671456
-2.588499048622962,-0.24806307392821741,7.406779739133922,-2.6264924543099024
-2.590979679362244,-0.25455191490266976,7.380514814590823,-2.719984082120492
-2.593525198511271,-0.2625279058679471,7.353314973769618,-2.8136798937498897
-2.5961504775699504,-0.2717991797821408,7.325178174832119,-2.9073442287807025
-2.5988684693677717,-0.2821256619162653,7.296104732544312,-3.000685967663382
-2.6016897259869345,-0.2932130121386561,7.266097872867678,-3.0933508382937163
-2.604621856108321,-0.30470675752918686,7.235164364484741,-3.1849138949630857
-2.607668923683613,-0.3161870250856641,7.2033152255351105,-3.2748726626912745
-2.6108307939344697,-0.32716441427503934,7.170566498908197,-3.36264160138532
-2.61410243807722,-0.33707768478600425,7.136940082894344,-3.4475487151854374
-2.6174732149250803,-0.34529405974133986,7.1024645957424895,-3.5288352935248155
-2.620926155522494,-0.35111303415088957,7.067176242807241,-3.60565989219334
-2.6244372858640026,-0.3537745993365137,7.031119643885307,-3.6771077045590084
-2.6279750318573676,-0.35247270688510685,6.994348566839717,-3.7422063860606816
-2.6314997589262186,-0.3463745601061658,6.95692650297911,-3.7999491282292683
-2.6349635045272803,-0.33464590587984755,6.918927011696818,-3.849325290908385
-2.638309963586079,-0.31648189703187135,6.880433758787734,-3.889358179008786
-2.6414747825563976,-0.29114233507470116,6.841540176997646,-3.919148625016185
-2.6443862059071446,-0.25798926562028135,6.802348690747484,-3.937922003967105
-2.646966098563347,-0.2165241162495325,6.762969470707813,-3.9450753218512307
-2.6491313397258427,-0.1664210082438518,6.723518717489301,-3.9402202872287466
-2.650795549808281,-0.10755271075923498,6.684116514617013,-3.923218011669844
-2.6518710769158735,-0.040006063356681665,6.644884334500315,-3.8942013468487806
-2.6522711375494405,0.03591540143037157,6.605942321031827,-3.85358190009797
-2.651911983535137,0.11970254779001042,6.567406502030847,-3.802040368656279
-2.650714958057237,0.21066476285286603,6.529386098344284,-3.7405007409849755
-2.6486083104287084,0.3079649142920732,6.491981090934434,-3.6700907845203075
-2.6455286612857876,0.41066175027901725,6.455280183089231,-3.5920927247616565
-2.6414220437829976,0.5177557197811032,6.419359255841615,-3.507888865021273
-2.6362444865851864,0.628234181803039,6.384280367191402,-3.418906999716599
-2.629962144767156,0.7411125192455096,6.350091297194236,-3.3265699041838954
-2.622551019574701,0.8554686043325005,6.3168255981523975,-3.2322521361435106
-2.613996333531376,0.9704691597297129,6.284503076790962,-3.137246112891551
-2.604291641934079,1.0853876179413715,6.253130615662046,-3.0427381771672386
-2.5934377657546652,1.19961395240693,6.222703233890374,-2.9497943143398335
-2.581441626230596,1.312657560275682,6.193205290746976,-2.8593544315804524
-2.5683150506278394,1.4241446089726937,6.164611746431171,-2.7722336754202304
-2.5540736045381123,1.5338113535612483,6.136889409676969,-2.689129110224344
-2.5387354910025,1.6414948511759604,6.109998118574725,-2.610630138856637
-2.5223205424907404,1.7471223089497914,6.083891817186159,-2.537231242791666
-2.5048493194012424,1.8507000612824622,6.058519504758243,-2.4693458846512732
-2.486342318788418,1.9523029250393678,6.03382604591173,-2.4073206997488823
-2.4668192895380243,2.0520644559578014,6.009752838914241,-2.351449370240424
-2.4462986449784463,2.150168441447083,5.986238345211837,-2.301985806822513
-2.4247969605639756,2.246841819408354,5.963218487143612,-2.259156451258386
-2.402328542369892,2.3423491084898616,5.940626922631028,-2.223171658912597
-2.378905051284993,2.4369883675977198,5.918395206041902,-2.1942362290771475
-2.354535167609016,2.5310886653487574,5.89645284375113,-2.172559229424636
-2.329224280955528,2.625009027300795,5.874727251456884,-2.1583633171505987
-2.3029741906825203,2.7191388347874037,5.853143618285378,-2.151893800499596
-2.2757828023346462,2.8138996696416076,5.831624680280382,-2.153427716654262
-2.24764380563823,2.9097486307088736,5.810090403113839,-2.163283230433905
-2.2185463193311414,3.0071831883686153,5.7884575708095,-2.1818296865583107
-2.188474487447455,3.106747690272065,5.766639273943917,-2.209498678397285
-2.1574070105447345,3.2090416828388073,5.744544287159944,-2.246796527885407
-2.1253165937163465,3.314730264920986,5.72207632188109,-2.294318600742396
-2.092169291067137,3.4245567350391046,5.699133135873666,-2.3527658980736823
-2.057923723716746,3.5393578169210897,5.675605476892929,-2.422964348064245
-2.022530145547535,3.660081720548758,5.6513758334122866,-2.505887126687265
-1.9859293283420474,3.7878091609319924,5.626316962145414,-2.6026800812102335
-1.9480512367327274,3.9237771060655553,5.600290161333311,-2.714689757660279
-1.9088134656720719,4.069404253519799,5.573143263756709,-2.843492347727402
-1.8681194231368738,4.226315654881239,5.544708340279435,-2.990919518669845
-1.8258562665880615,4.3963607954267845,5.514799145092736,-3.1590725428213227
-1.7818926586337938,4.581613457421799,5.483208419664523,-3.350307509303877
-1.7360765240595757,4.784330440193048,5.449705344571484,-3.5671582782190066
-1.6882332196576453,5.00682553180053,5.414033761789294,-3.8121343908117225
-1.6381649643396399,5.2511785758509735,5.375912417881176,-4.087279336175169
-1.58565317858113,5.5186394065450175,5.335039624519425,-4.393289767525664
-1.5304667845156799,5.8085023992019105,5.291106726844168,-4.727878218852772
-1.4723817605236607,6.116157769384056,5.24382794465564,-5.082965523195945
-1.41122018282982,6.430133634716805,5.192998289423681,-5.440446066658536
-1.346918846482652,6.728660314189034,5.138593828757095,-5.767291139213803
-1.2796322433407616,6.978240928908595,5.080920917364957,-6.013527394071249
-1.2098498340516757,7.139357363380159,5.020785643424245,-6.1203792145487075
-1.138456260417874,7.182948646460358,4.959581851278758,-6.043761275510945
-1.0666267739532704,7.109408203695624,4.8991442385236486,-5.781475192155487
-0.9955326919163142,6.950790456952472,4.841329486602094,-5.376732698530348
-0.9260247873467895,6.75175805417727,4.78756215961679,-4.891464946831176
-0.8585072068050168,6.549015989695072,4.738647510148478,-4.377165267778361
-0.7930170469080661,6.364146912317229,4.694875857470695,-3.864460381169693
-0.7293755777848938,6.206477762232441,4.656231253658998,-3.366880449721992
-0.6673108001625694,6.078134097451787,4.622562449161778,-2.8878523398583122
-0.6065294591880516,5.9777594467833595,4.593683925763195,-2.4259224006002302
-0.546751864720218,5.9025922839976355,4.569424701757193,-1.9777263136116625
-0.4877259418802416,5.8494622591586785,4.549647438621077,-1.5394641498623112
-0.4292313192886548,5.81520668861495,4.534252797122454,-1.1075695907567014
-0.37107925240250533,5.796806450412788,4.523177101214887,-0.6789868647212147
-0.31311118789837744,5.791396403209073,4.516387232567674,-0.251269660928062
-0.25519722386628674,5.796225839751102,4.513874535958394,0.17739504918854093
-0.19723496546877572,5.808604656230593,4.515648486450279,0.6081918722858202
-0.1391489189064698,5.825851941413779,4.521730405173137,1.0416916588313134
-0.08089039949233201,5.845254896959327,4.53214732176145,1.4778702066979545
-0.022437850522738736,5.864041960721536,4.546926023828429,1.9161312733051377
0.03620256908447663,5.879372060744905,4.5660873365614805,2.3553366715920525
0.09499628969192568,5.888340808954711,4.589640703277401,2.7938468646674455
0.15387969778147279,5.888003570061888,4.617579171924075,3.2295750507603675
0.21275973348209165,5.875414484970068,4.649874922431679,3.6600566737823472
0.2715138783317923,5.847679645006236,4.686475489169503,4.082534893286742
0.3299906747818547,5.802021749388736,4.72730083810237,4.494061038596702
0.38801089227574204,5.735852806998991,4.772241448488337,4.8916076592491144
0.44536942034573196,5.646850823119112,4.821157525080828,5.272190618612357
0.5018379285769231,5.533035963302847,4.873879431266952,5.6329958340503055
0.5571682882099516,5.392841395963311,4.930209389607454,5.971505739068513
0.6110967021695847,5.225173859421337,4.989924446998139,6.285620270209414
0.6633484407637981,5.029458983448453,5.052780649700233,6.573767102286921
0.7136430305982826,4.805666583459667,5.118518320723103,6.834995963839386
0.7616996964328793,4.554311660450475,5.186868280361497,7.069052243289191
