th1 (rad),w1 (rad/s),th2 (rad),w2 (rad/s)
0.4287017627634621,-3.0587954365965158,3.114803381223328,0.29185761503336144
0.39811380839749694,-3.159690758083255,3.117721957373661,0.15746566237295478
0.3665169008166644,-3.258445650541228,3.1192966139973906,0.02414446122836139
0.33393244431125213,-3.3541909340178653,3.1195380586096744,-0.10688898138223465
0.3003905349710735,-3.446016245179398,3.118469168795852,-0.23432838632785652
0.26593037251927953,-3.5329880908519606,3.1161258849325737,-0.3568051374031719
0.23060049161075993,-3.614170270997992,3.112557833558542,-0.4729200734734864
0.19445878890078,-3.6886457595744226,3.107828632823807,-0.5812788364713519
0.15757233130503578,-3.7555389987334187,3.1020158444590935,-0.680529159795276
0.1200169413177016,-3.8140375299031244,3.0952105528611407,-0.7693983113003954
0.08187656601867035,-3.8634119577903006,3.0875165697481366,-0.8467288985132848
0.04324244644076735,-3.903033406018316,3.079049280763004,-0.9115113944496531
0.004212112380584186,-3.932387847106603,3.0699341668185074,-0.9629120194192478
-0.03511176609048185,-3.9510869378378954,3.060305046624315,-1.0002949694738903
-0.0746226354688608,-3.9588752267245906,3.050302096929576,-1.0232383618288585
-0.1142113877361067,-3.955633793720744,3.0400697133112877,-1.0315436233801776
-0.15376772567331415,-3.9413805165667437,3.029754277077486,-1.0252383465194859
-0.1931815308389816,-3.916267230583676,3.019501893612291,-1.0045728618375163
-0.23234420314481835,-3.8805740695237456,3.0094561649939156,-0.970010933358763
-0.2711499438400558,-3.834701263139676,2.999756055660328,-0.9222150857417801
-0.3094969564714526,-3.779158644808618,2.99053390480291,-0.8620271482069541
-0.34728854291953876,-3.714553110326109,2.9819136333208407,-0.7904446698201708
-0.38443407402279983,-3.64157428121068,2.974009186622639,-0.7085939410578457
-0.42084981683490663,-3.5609786680758,2.96692324721206,-0.6177004521503725
-0.4564596035156646,-3.4735726979148605,2.9607462426905564,-0.5190577223982006
-0.49119533049481323,-3.3801950513974846,2.9555556654665742,-0.4139955293732468
-0.5249972810087881,-3.281698835089201,2.9514157101728418,-0.3038486300414755
-0.55781426935968,-3.1789341701058875,2.948377223872427,-0.18992707503173772
-0.5896036110607389,-3.0727317970824948,2.9464779531221095,-0.07348915625484759
-0.6203309290315638,-2.963888267673954,2.945743061559561,0.04428210896094614
-0.6499698117083034,-2.853153213571964,2.94618588264917,0.1622982604560737
-0.678501343844023,-2.7412190621229264,2.9478088652537306,0.27958000531654387
-0.7059135344652523,-2.6287134168264426,2.950604665306896,0.39526699845365715
-0.7322006686335167,-2.516194158973074,2.9545573352914327,0.5086229140654268
-0.7573626102232475,-2.404147171632699,2.959643564432087,0.6190361733907525
-0.7814040819395744,-2.2929864546783083,2.9658339261659945,0.7260168858918836
-0.8043339464863575,-2.1830563002444308,2.9730940950249134,0.8291906874991212
-0.8261645094888018,-2.07463513693859,2.9813860018999048,0.9282902184678434
-0.8469108608581877,-1.9679406277376583,2.990668904084583,1.0231449806554351
-0.8665902671355643,-1.8631356159963963,3.0009003538911374,1.1136702613859082
-0.8852216232955282,-1.7603345488801077,3.0120370565049965,1.1998557232739442
-0.9028249687843293,-1.6596100592810052,3.0240356137377358,1.2817541515166184
-0.9194210693771393,-1.5609994476931146,3.036853155252902,1.3594707356760962
-0.9350310638540704,-1.464510867663844,3.050447862609663,1.4331531524835939
-0.9496761725307089,-1.3701290770950176,3.064779394134499,1.502982617039154
-0.9633774633016591,-1.2778206694206062,3.0798092203048903,1.56916598618497
-0.9761556699958651,-1.1875387417520078,3.09550088016674,1.6319289313968663
-0.9880310574133851,-1.0992269909560592,3.1118201694807084,1.6915101489238027
-0.9990233273229457,-1.0128232537362103,3.1287352709699463,1.7481565404871966
-1.0091515598603078,-0.9282625241128141,3.146216836374818,1.8021192763172798
-1.018434185101436,-0.8454794925150777,3.164238029137991,1.8536506411001732
-1.0268889800265868,-0.7644106563442196,3.1827745355489925,1.9030015600578014
-1.034533086590029,-0.6849960536118519,3.2018045511495705,1.9504197046666396
-1.0413830471261476,-0.6071806702135454,3.221308748196237,1.9961480835786563
-1.047454853828283,-0.5309155684906266,3.2412702290320237,2.040424032654467
-1.0527640095131894,-0.4561587806964552,3.261674469358568,2.0834785275276446
-1.0573255973201539,-0.3828760063715676,3.282509254633845,2.125535751975834
-1.0611543573838695,-0.31104114784615633,3.303764612153603,2.166812865022663
-1.064264768862331,-0.240636713403264,3.3254327408038296,2.2075199187816867
-1.0666711359963637,-0.171654113227732,3.3475079399916465,2.247859887380612
-1.068387677128641,-0.10409386923562756,3.3699865388654526,2.288028774782498
-1.0694286158209971,-0.03796575627379535,3.3928668266132775,2.3282157759387636
-1.069808273383735,0.026711110990910863,3.4161489843726653,2.3686034715044397
-1.069541162273826,0.08990823392303036,3.4398350190877096,2.409368041386584
-1.0686420799345957,0.15158771930007245,3.4639286995015754,2.4506794867647668
-1.067126202741595,0.21170229501967153,3.4884354943692233,2.4927018540056656
-1.0650091797913983,0.27019534662020955,3.51336251290928,2.5355934571782757
-1.0623072263251963,0.32700097052122934,3.5387184474810627,2.5795070987424458
-1.059037216619984,0.38204404107084877,3.564513518468487,2.624590290503645
-1.0552167762092755,0.4352402894631905,3.5907594213735234,2.6709854791638366
-1.0508643733146434,0.4864963933874726,3.6174692761651617,2.7188302828048134
-1.0459994093807687,0.5357100769152642,3.64465757899321,2.768257746458944
-1.040642308611616,0.5827702206429257,3.6723401564577993,2.819396626585212
-1.0348146064051869,0.627556982498918,3.7005341227236515,2.8723717157976134
-1.0285390365801976,0.6699419299155738,3.7292578398816274,2.927304220599257
-1.021839617281042,0.7097881842680214,3.7585308820876198,2.9843122061577927
-1.0147417354383619,0.7469505786190781,3.7883740041491976,3.043511123301169
-1.007272229652171,0.7812758299061136,3.8188091153822095,3.105014433885281
-0.9994594713531099,0.8126027268061425,3.8498592597210624,3.1689343514333106
-0.9913334440850484,0.8407623346829124,3.8815486032353954,3.235382714387883
-0.9829258207382193,0.8655782193520198,3.913902430379274,3.3044720093290194
-0.9742700385446992,0.8868666920437905,3.9469471504725644,3.3763165609141135
-0.9654013716242613,0.9044370791166422,3.9807103160817054,3.4510339038308704
-0.9563570008330949,0.9180920220962788,4.0152206551200145,3.5287463493429856
-0.9471760806121321,0.9276278169555447,4.050508118613444,3.6095827545031653
-0.9378998024425766,0.9328348068835755,4.086603946158476,3.6936804950102817
-0.9285714543737409,0.9334978510995936,4.123540751108579,3.7811876318309654
-0.9192364758627449,0.9293969049564217,4.161352627426889,3.8722652453846242
-0.9099425068131807,0.9203077656806294,4.2000752798807355,3.967089886805677
-0.9007394291563744,0.9060030665269779,4.239746178748792,4.065856059886188
-0.8916793984911047,0.8862536440717533,4.280404739347654,4.168778594407293
-0.8828168620503871,0.8608304648299764,4.322092525291727,4.2760946938665985
-0.8742085574020874,0.8295073869080437,4.364853472230393,4.388065326738743
-0.8659134835330069,0.7920651621011863,4.40873412549778,4.5049754639950415
-0.857992831911995,0.7482972706293711,4.45378388013773,4.627132423363558
-0.8505098592057013,0.6980184477154614,4.500055204371366,4.754861230261576
-0.8435296747285467,0.6410771389876623,4.547603816673981,4.888495402669777
-0.83711890333867,0.5773736480683631,4.596488770700679,5.028360856553119
-0.8313451668579864,0.5068864559584398,4.646772379266211,5.174749645660345
-0.826276302298402,0.42971012973449074,4.698519875722814,5.327878937808434
-0.821979201001057,0.3461093874295715,4.751798665100899,5.48782898090919
-0.8185181071267613,0.25659512275024204,4.806676954909991,5.654451960724786
-0.8159521558992588,0.16202913634842997,4.863221474517238,5.827242068179497
-0.8143318645357746,0.06376407411707988,4.921493895199033,6.00515693170624
-0.8136942237946038,-0.03617816819533373,4.9815454645160955,6.186384217379824
-0.8140560054765571,-0.1348957048479829,5.0434093066898935,6.368058903938829
-0.8154049625250369,-0.2283897684323481,5.107089895729282,6.545962688058907
-0.8176888602093604,-0.31140274679447594,5.172549522609871,6.71428308929651
-0.8208028876773051,-0.3774201055649296,5.239692353502836,6.8655741016541345
-0.8245770887329544,-0.41898673270639486,5.308348094519377,6.991117298497118
-0.8287669560600184,-0.42847544276200944,5.378259267504348,7.0818677129388865
-0.8330517104876385,-0.3993130448875631,5.449077944633737,7.129994722324799
-0.8370448409365141,-0.32740220171816947,5.5203778918569855,7.130673918087977
-0.8403188629536958,-0.21220826870328396,5.591684631037865,7.08343122083337
-0.8424409456407287,-0.056972203854630116,5.662518943246199,6.992338209540555
-0.843010667679275,0.1321021592098157,5.732442325341604,6.86488197628297
-0.8416896460871769,0.3473013825482975,5.801091145104434,6.710043842442549
-0.838216632261694,0.5808578955178735,5.868191583528859,6.536437625345924
-0.8324080533065152,0.8259440536621303,5.933555959782319,6.351101774174462
-0.8241486127698939,1.077098599829547,5.997066977524064,6.159054972896814
-0.8133776267715984,1.3302294753085362,6.058657527253032,5.963399993963808
-0.8000753320185131,1.582399464019041,6.11829152719267,5.765691828606018
-0.7842513373783226,1.8315516697834806,6.17594844547873,5.566362981144785
-0.7659358206804878,2.076259172084993,6.231612075290178,5.365100244710199
-0.7451732289596379,2.315529651829021,6.28526307773728,5.161138761804205
-0.7220179324413477,2.548667092422544,6.336874465355322,4.953475567454276
-0.6965312615171223,2.775181196866201,6.386409221029865,4.741017940694927
-0.6687794495484602,2.9947326751122887,6.433819400436814,4.522683431347554
-0.6388321227973374,3.207103745681508,6.47904623475029,4.297465605816713
-0.6067610853405223,3.412185388674846,6.522020890808457,4.064475874579306
-0.5726392314537738,3.6099749831517167,6.5626656495542495,3.822968590051089
-0.5365394816222566,3.8005796240868484,6.60089533545476,3.5723542948788687
-0.49853368538138815,3.9842216161856667,6.636618878403549,3.312204525373498
-0.45869146921953147,4.161243449344395,6.669740923657284,3.0422507940491084
-0.41707903472608754,4.332110039541824,6.700163431597775,2.7623801575740687
-0.3737579343306693,4.49740620192859,6.727787233173516,2.4726300371152226
-0.3287838723113834,4.6578271980158465,6.752513533544668,2.1731856709141946
-0.28220560033122494,4.8141597077072635,6.77424539025381,1.8643847796718864
-0.2340640032541523,4.967249616961768,6.792889238050529,1.5467358093062802
-0.1843915070845346,5.117951449968428,6.808356596143592,1.220958620229447
-0.13321199258485034,5.267051990981374,6.820566182345886,0.8880598340574597
-0.0805414726750366,5.415157648564566,6.829446780686461,0.5494591502118109
-0.026389896189390936,5.562531847372629,6.834941372188579,0.2071871208593854
0.02923542228433535,5.708866657572357,6.837013243397173,-0.13582304816521706
0.08632408886005892,5.852975636068266,6.835655012915521,-0.475332398466796
0.14485384522074157,5.992409974170228,6.830901688930854,-0.8052879716043584
0.20477794496244386,6.123040158001597,6.82284880921481,-1.1172749893674445
0.26600834654245986,6.238725054333783,6.811676059321136,-1.4001107581816639
0.3283955970857977,6.3313095247195665,6.797674951739319,-1.6399322053399614
0.3917086923329933,6.391295686943653,6.781275629685919,-1.821274430874858
0.45562164920242987,6.409469337304956,6.76306288537717,-1.92953827390175
0.5197163425754794,6.379337157135455,6.7437675026381525,-1.9546223479077107
0.583509714146834,6.2994906152122345,6.724221279159075,-1.894422226801502
0.6465046202989563,6.174559503609903,6.7052770568910605,-1.7562432451097618
0.7082502153350553,6.01400306116828,6.687714624439963,-1.555018881950939
0.7683902459467381,5.829373731368977,6.672164435620453,-1.309242055006528
0.8266839832604279,5.631559419981951,6.659072015070388,-1.0368027908430726
0.8829995774602474,5.429118767714006,6.648703987161957,-0.7523868938112064
0.9372907651373874,5.227854550557831,6.641180118223845,-0.46669085632700597
0.9895693106429657,5.03116857994426,6.636513209660575,-0.18681694271168936
1.0398809964424083,4.840694270648985,6.634645040233458,0.08287984952444322
1.0882879391488982,4.656904063473895,6.635473838728703,0.339943442411163
1.1348569797836372,4.47957899644649,6.638873273152814,0.5831444551751509
1.179652769748102,4.308132080489964,6.644704717704566,0.8120073489993467
1.2227340905530018,4.141815141843398,6.6528247911945595,1.0265009788695671
1.2641522419714357,3.9798438341065716,6.663089800983255,1.2268460009011006
1.3039506803125014,3.8214690432402,6.675358260992266,1.4133998715247285
1.3421653707449033,3.666014630788792,6.689492259707514,1.5865910110900239
1.3788255170527912,3.5128946363553064,6.705358169818414,1.7468830439628091
1.4139544634163443,3.361618227154256,6.722827000258042,1.8947568332258546
1.447570645687887,3.2117875049158457,6.7417745685903006,2.030702619499021
1.4796885207370454,3.063091277154495,6.762081594785291,2.155217549055595
1.5103194335085903,2.915296668890238,6.783633770275847,2.268805763677368
1.5394724001974927,2.768239706998302,6.806321827912621,2.371979407484035
1.5671547972674758,2.6218155645018038,6.830041621987461,2.4652596416554102
1.5933729529124938,2.4759688873952572,6.854694218404015,2.5491772120504703
1.6181326417864463,2.3306844685897636,6.88018599052452,2.624272391454616
1.641439486472344,2.185978437808135,6.906428714439066,2.6910942826487507
1.6632992708504255,2.041890076216171,6.933339657265553,2.7501995613512515
1.6837181716125873,1.898474324787042,6.960841652879066,2.802150784924641
1.7027029148604578,1.7557950271088336,6.988863160728312,2.8475144098792944
1.720260865131546,1.613918925848062,7.0173383048271045,2.886858659227912
1.7364000543900266,1.4729104150479282,7.046206891419383,2.9207513666212037
1.751129158540506,1.3328270369167257,7.075414405085596,2.949757902565587
1.7644574289096733,1.1937157015580573,7.104911984111252,2.974439261941838
1.776394585925254,1.0556096014216416,7.13465637673067,2.995350363422239
1.7869506819394703,0.9185257895280625,7.1646098803648925,3.0130385812527005
1.796135939834751,0.7824633922733195,7.194740266177419,3.0280424985226047
1.8039605737574842,0.6474024344697851,7.225020691162645,3.040890838138513
1.810434598102182,0.5133032669565312,7.25542959954403,3.052101492299919
1.8155676307717474,0.3801066064840558,7.285950614467029,3.0621805318337985
1.819368696836588,0.24773422469006817,7.316572419785367,3.0716210312472785
1.8218460390834887,0.11609035904667678,7.34728863009784,3.080901491341074
1.8230069426739555,-0.014936035033059625,7.378097645011251,3.0904835759941105
1.8228575823236248,-0.1454680140694095,7.409002480771192,3.1008088007654186
1.8214029021829308,-0.2756361120639772,7.440010568778846,3.1122937167289475
1.818646541062291,-0.4055722155071183,7.471133505946136,3.125323024377964
1.8145908189072197,-0.5354014360851952,7.502386736189916,3.140239935415604
1.8092368045463678,-0.6652314893846933,7.533789135544072,3.1573329898248725
1.802584489652521,-0.795139035642036,7.565362465442321,3.1768184622682405
1.7946330992961006,-0.9251524531366732,7.597130650065003,3.1988175103255525
1.785381574764734,-1.0552306596172707,7.629118825168258,3.2233274168550325
1.7748292681685611,-1.1852379661511538,7.661352099336809,3.250186793231036
1.7629768885070496,-1.3149156645434594,7.69385396726912,3.279035615853628
1.7498277318616149,-1.443852247308586,7.726644323427656,3.309272657567089
1.735389209388529,-1.5714559239784076,7.759737050003326,3.3400153770272603
1.719674650148745,-1.6969353527773134,7.793137203773599,3.3700705457253166
1.702705296620972,-1.8192968376961092,7.826837909230852,3.3979272534148555
1.6845123282440109,-1.9373677132532807,7.860817181765,3.421786133647368
1.665138651111478,-2.0498547742703503,7.895035043101474,3.439637612185081
1.6446401033687745,-2.1554417874569785,7.9294314192233255,3.4493954045879134
1.6230856854942048,-2.2529206268411572,7.963925373269205,3.449078312797999
1.6005564792257934,-2.3413380063373643,7.998416156397185,3.4370157649631286
1.5771430991624198,-2.4201287894249224,8.032786314046817,3.4120369632272216
1.5529418112681705,-2.489203718601887,8.06690668367909,3.3735987424291203
1.5280497740821517,-2.548968216024252,8.100642671103381,3.321819100198488
1.502560091921909,-2.600267730411008,8.133860862105367,3.2574092712068126
1.476557414617799,-2.6442759138745084,8.166434954817435,3.1815260906060394
1.450114655479054,-2.6823553540211473,8.198250215723496,3.0955852166594697
1.4232911019388426,-2.7159219484257795,8.229206067890091,3.0010779432084798
1.3961318824545847,-2.7463353646344886,8.259216847322175,2.899422625049736
1.3686685288082399,-2.7748254710719107,8.288211073572672,2.791864555409289
1.3409202740975208,-2.802453830878321,8.316129719126765,2.6794233213471834
1.3128957357887376,-2.8301030360268262,8.342923952340238,2.5628779811106117
1.2845947054284694,-2.8584846963186368,8.368552732151343,2.4427776957263143
1.256009858465283,-2.8881577633113262,8.392980509108606,2.3194666152095125
1.2271282808321697,-2.9195509475067922,8.416175175260701,2.193114650235417
1.1979327713571017,-2.952985180848945,8.438106321763055,2.0637487484656525
1.1684029195486123,-2.9886938611715848,8.45874380924771,1.9312817235992359
1.1385159809368965,-3.026839858886774,8.478056626483703,1.7955373757921573
1.108247582348029,-3.0675290329186518,8.496012000241624,1.6562716829223383
1.0775722920188424,-3.110820419374857,8.512574717070848,1.5131904065491657
1.046464087825094,-3.1567334450515823,8.527706621136339,1.365963710660678
1.014896753374578,-3.2052525728026473,8.541366258242945,1.2142384625765592
0.9828442276465517,-3.2563297710794092,8.55350864286871,1.0576488591018434
0.9502809299357575,-3.3098851553779354,8.564085131459729,0.8958259492776826
0.9171820783819782,-3.365806097870932,8.573043390952506,0.7284065367418574
0.8835240174032689,-3.4239450553807154,8.580327456319925,0.5550418539644537
0.8492845668494617,-3.484116330899734,8.58587787485957,0.3754063129642253
0.8144434035404644,-3.546091962308727,8.589631937989212,0.18920655333851052
0.7789824839173771,-3.60959692402778,8.591524003522597,-0.003809072867462737
0.7428865146770993,-3.6743038322125896,8.591485912793923,-0.2038405208950683
0.7061434763549734,-3.7398273602319083,8.589447507584971,-0.4110256015845908
0.6687452027526544,-3.805718596421308,8.585337251569126,-0.6254291674093471
0.6306880167884413,-3.871459607823288,8.579082959895032,-0.8470321330510076
0.5919734207102084,-3.9364585085078283,8.570612638564523,-1.0757206159356771
0.5526088356251302,-4.000045365228202,8.559855432405167,-1.3112755685636983
0.5126083819728482,-4.061469302196925,8.54674267671953,-1.5533633541467096
0.47199368895087895,-4.119897185958852,8.531209043178063,-1.8015277843435165
0.4307947170912904,-4.174414276026577,8.513193765334627,-2.055184186508976
0.38905057433102463,-4.22402721293956,8.492641923469538,-2.3136160917441297
0.346810302201629,-4.267669679464798,8.469505762552096,-2.5759751290849886
0.30413360540698103,-4.304211010848903,8.443746011261245,-2.841284672153104
0.261091495298492,-4.332467945948513,8.415333164539714,-3.108447711701056
0.2177668158390069,-4.351219603719059,8.384248687422703,-3.376259322496475
0.1742546198018163,-4.359225640968526,8.350486094197738,-3.643423959876419
0.13066236339213105,-4.3552473999421775,8.314051854598974,-3.908577665332096
0.08710988939270928,-4.338071690482198,8.274966077945653,-4.1703150869757035
0.0437291724878873,-4.306536673048691,8.233262927075895,-4.427221033968132
0.0006638057574003889,-4.259559117593515,8.188990716736214,-4.6779060867006
-0.04193178541853476,-4.196162112150222,8.142211655869207,-4.921045578624345
-0.08389340654003698,-4.115502090295616,8.093001200082965,-5.155421054180437
-0.12504842744299313,-4.016893850215741,8.04144698954116,-5.379963097672038
