th1 (rad),w1 (rad/s),th2 (rad),w2 (rad/s)
1.9638149515086578,-2.257673513562128,4.92238475015084,0.29446414949824967
1.9412382163730366,-2.350376933904707,4.925329391645823,0.28987933174357255
1.9177344470339897,-2.4445888325205822,4.928228184963259,0.2839552277343115
1.8932885587087838,-2.5400150569571984,4.9310677372406015,0.2772619102100363
1.8678884081392118,-2.636295993321717,4.933840356342702,0.2704797670652424
1.8415254482059946,-2.7330056394155013,4.936545154013355,0.26440140127947703
1.8141953918118396,-2.8296535600695725,4.939189168026149,0.25992909152329324
1.785898856211144,-2.9256903349162258,4.9417884589413825,0.25806685318793293
1.7566419528619817,-3.020517002422578,4.944369127473262,0.2599063122748457
1.7264367828377558,-3.1134988189838873,4.946968190596011,0.26660590943778334
1.695301794647917,-3.203983386600838,4.949634249690389,0.2793633930667424
1.6632619607819086,-3.2913228658130493,4.9524278836210565,0.29938212540257314
1.6303487321237782,-3.3748996028747182,4.955421704875082,0.3278323795384832
1.596599736095031,-3.4541540949094807,4.958700028670467,0.3658094903439549
1.5620581951459362,-3.5286138384965122,4.962358123573907,0.41429136089821667
1.526772056760971,-3.597921308271347,4.966501037182889,0.4740983260039987
1.4907928436782576,-3.661859147405224,4.971242020442928,0.5458586409711724
1.4541742522042054,-3.7203706702284864,4.97670060685264,0.6299828149981799
1.4169705455019206,-3.773574012011139,4.983000435002622,0.7266495931668729
1.379234805381809,-3.8217687189519913,4.990266930934291,0.8358056076922523
1.3410171181922892,-3.8654342249720006,4.998624987011213,0.9571796283799252
1.302362775942569,-3.905220445569853,5.008196783295012,1.0903110693292912
1.2633105714868706,-3.9419315356734437,5.0190998939883045,1.2345911296653884
1.2238912561301363,-3.9765045950476074,5.031445805284958,1.3893138576144148
1.1841262101796601,-4.009985655624738,5.045338943861102,1.553733707782051
1.1440263536234128,-4.043505576404094,5.060876280938923,1.7271259304566005
1.1035912978593718,-4.078258480271152,5.0781475402434895,1.9088464227795288
1.0628087130566604,-4.115485126941218,5.097236004471284,2.0983884280474987
1.0216538617872482,-4.156463209303083,5.118219888751759,2.2954345640282816
0.9800892296942173,-4.2025060974421375,5.141174234392042,2.4999039335131323
0.9380641687197959,-4.2549711509041135,5.166173273727173,2.711995369043562
0.8955144572107547,-4.315278474540054,5.193293227417609,2.9322290812697354
0.8523616724653542,-4.384940976996035,5.222615518230306,3.1614900710053644
0.8085122626953939,-4.465606840864767,5.2542304189403595,3.401077643073698
0.7638561942867462,-4.559116032412979,5.288241195371096,3.6527662777944463
0.7182650339626164,-4.667573224603777,5.32476885814904,3.9188840173583976
0.6715893017165786,-4.793440351599838,5.363957698322625,4.202415354953638
0.6236548982005802,-4.9396526217396115,5.405981851872161,4.507136030657607
0.5742583719831841,-5.109761342757874,5.451053212178737,4.837786068248186
0.5231607585556053,-5.308103249709375,5.499431072861219,5.200281985772242
0.47007972605851156,-5.539983985364691,5.551433892718941,5.601952232260894
0.4146798862048646,-5.811830312680878,5.60745341504155,6.051733978849842
0.35656158307805585,-6.131181009036781,5.667970754830049,6.560151882703169
0.29524977298768806,-6.506178335274128,5.733572273657081,7.138609931065014
0.2301879896349468,-6.943732348848833,5.8049583729677305,7.79684441954428
0.16075066614645847,-7.444474901426709,5.882926817163173,8.535909947615586
0.08630591713219138,-7.990838174963738,5.968285916639329,9.331570426526394
0.006397535382553998,-8.523991978572997,6.061601620904593,10.102105552887974
-0.07884238440317598,-8.916780086507732,6.162622676433473,10.67048445395686
-0.1680101852682533,-8.993607052129482,6.269327520973041,10.792192818220467
-0.2579462557895481,-8.668289669022773,6.377249449155246,10.347898172761491
-0.3446291524797758,-8.068567417335382,6.480728430882861,9.51667600063688
-0.42531482665312964,-7.406956920299617,6.57589519088923,8.594789771283594
-0.4993843958561258,-6.806754685057383,6.661843088602065,7.753552885522193
-0.5674519427066996,-6.299698354442796,6.739378617457287,7.036969435032434
-0.6304489262511276,-5.879286658533176,6.809748311807612,6.436151091978355
-0.6892417928364594,-5.53012267853257,6.874109822727395,5.930020457306386
-0.744543019621785,-5.237531341858945,6.933410027300459,5.498580597719754
-0.7969183330403745,-4.989643351724538,6.988395833277656,5.125766125036369
-0.8468147665576199,-4.777295211533973,7.03965349452802,4.79929447035899
-0.8945877186729596,-4.5934706943561165,7.08764643923161,4.509897182439632
-0.9405224256165208,-4.432758289825824,7.132745411056006,4.2505809331286075
-0.984850008514779,-4.2909226528374385,7.175251220387292,4.016049814076646
-1.0277592350431535,-4.164586588621786,7.215411718528058,3.8022818135366947
-1.0694051009293712,-4.050999476359455,7.253434536663425,3.6062245267374435
-1.1099150956929658,-3.947869114912642,7.2894967819308,3.4255767581799264
-1.1493937868420923,-3.853239458633496,7.323752549512599,3.25863004603535
-1.1879261814284272,-3.765401941683214,7.3563388499729525,3.1041510078421384
-1.2255802008452594,-3.682832116186806,7.387380360051374,2.9612905933389895
-1.2624085220071275,-3.6041461893325835,7.416993265984764,2.8295100232093993
-1.2984499839004533,-3.5280739561240693,7.445288366216857,2.708515855576942
-1.333730723461694,-3.4534457772343927,7.472373524772626,2.5981986969154334
-1.3682651812340378,-3.3791917748303937,7.498355511741781,2.498571909234234
-1.4020570989823418,-3.304351408307862,7.523341230834123,2.4097084962170334
-1.4351006130654205,-3.228091147703647,7.547438315796293,2.331676280569212
-1.4673815245424568,-3.149727231344201,7.570755078601985,2.264473463623727
-1.4988787968558988,-3.068749690752448,7.593399813238221,2.207968477708656
-1.5295662937634233,-2.984843226532113,7.615479498015308,2.1618493648588997
-1.5594147260287445,-2.8979004162557014,7.637097991663897,2.125588360239992
-1.5883937301913016,-2.8080233560682295,7.658353875266297,2.0984266299659824
-1.6164739637519838,-2.71551124996202,7.679338141565957,2.0793821467350013
-1.643629076251604,-2.620833509509231,7.700131963033307,2.0672807470977004
-1.6698374113466963,-2.524590238103849,7.720804770504285,2.0608070848034235
-1.6950833137277348,-2.4274640436709514,7.741412841352319,2.0585692401231963
-1.7193579541644444,-2.330168471700188,7.761998533753551,2.0591688799411085
-1.7426596388814461,-2.2333986770212095,7.782590222552962,2.0612685181423123
-1.7649936256516583,-2.1377892365882047,7.803202907734385,2.0636486095547
-1.7863715180175403,-2.043882497488095,7.823839393829932,2.065249529840971
-1.8068103429924214,-1.952108976244564,7.844491889128341,2.065196311122836
-1.826331432754867,-1.8627795228645179,7.865143852239569,2.0628066604226776
-1.844959227983512,-1.7760875752915735,7.885771918843796,2.057584796500532
-1.8627201037364278,-1.692119021734407,7.906347766808801,2.049204776084802
-1.8796412939537719,-1.6108669526710941,7.926839814569648,2.037487271796922
-1.8957499634804829,-1.5322487950970947,7.947214687287618,2.022373410378725
-1.9110724514314539,-1.456123802978484,7.967438421391405,2.003898546260951
-1.9256336894612387,-1.3823094625563483,7.987477406854015,1.9821679783163801
-1.9394567840868022,-1.3105959340114435,8.007299086637179,1.9573357968781844
-1.9525627434269166,-1.2407581187743049,8.02687244460596,1.9295873760113313
-1.9649703246146597,-1.1725652863132479,8.046168318366073,1.899125538793138
-1.9766959774777921,-1.105788418616608,8.065159573754004,1.8661601125888134
-1.9877538616639583,-1.0402055548094515,8.083821174879892,1.830900425233421
-1.9981559172120529,-0.9756054682880271,8.102130179132226,1.7935502325738057
-2.007911971894933,-0.9117900092378075,8.120065681457964,1.7543045763925935
-2.017029871987311,-0.8485754167974666,8.13760872722189,1.7133481198175675
-2.025515626155286,-0.7857928624185663,8.154742208420066,1.67085457356792
-2.0333735547794713,-0.7232884391468355,8.171450754155744,1.6269868968112273
-2.0406064391709395,-0.6609227666357939,8.187720623123857,1.5818980227796156
-2.0472156668372974,-0.5985703418448932,8.203539603351654,1.5357319174998632
-2.053201370255746,-0.5361187318173839,8.218896922526653,1.4886248285800454
-2.05856255757392,-0.47346767776946475,8.233783170812453,1.4407066200982497
-2.063297234351615,-0.4105281584196838,8.248190237013436,1.392102120217492
-2.067402515935812,-0.34722144423607637,8.26211125821561,1.342932431506028
-2.0708747303781725,-0.28347816220014954,8.27554058253067,1.2933161714255614
-2.073709512000174,-0.2192373819506177,8.288473744244925,1.2433706233095863
-2.07590188581968,-0.15444572804620177,8.300907450478022,1.1932127874658836
-2.0774463431001418,-0.08905651896521906,8.31283957835268,1.1429603286855619
-2.078336908289794,-0.02302893084577322,8.324269181639535,1.0927324211284228
-2.0785671975982516,0.043672817526520955,8.335196505850819,1.0426504948227793
-2.0781304694229865,0.1110802626592452,8.345623010799047,0.9928388902745202
-2.077019666796394,0.17922148149901895,8.355551399701792,0.9434254292233875
-2.075227451981404,0.2481218677529539,8.364985653994026,0.8945419106259332
-2.0727462333038744,0.31780490277401396,8.373931073100286,0.8463245416291586
-2.069568184276134,0.38829292363711887,8.382394318516576,0.7989143137197439
-2.065685255039763,0.45960789016220904,8.390383461653773,0.7524573344455433
-2.061089176138141,0.531772151709954,8.397908034998228,0.70710512513394
-2.0557714546210413,0.6048092136178884,8.404979086249567,0.6630148948792853
-2.0497233624848623,0.6787445021782422,8.411609235198359,0.6203498007262186
-2.0429359174630797,0.7536061260904392,8.41781273320562,0.5792792034120577
-2.0353998562021753,0.8294256313473259,8.423605525239742,0.5399789272148727
-2.027105599888702,0.9062387455207973,8.42900531451189,0.5026315313414831
-2.018043212433494,0.984086106376133,8.434031629825306,0.4674265988315155
-2.0082023513697327,1.0630139686321671,8.438705895813621,0.43456104709295484
-1.997572211683411,1.1430748814543337,8.44305150628455,0.40423946185739124
-1.9861414628688676,1.2243283278688317,8.447093900903125,0.37667445347796896
-1.9738981795901793,1.306841315659768,8.450860645437904,0.3520870310105981
-1.9608297664335816,1.3906889073915012,8.454381515748011,0.33070698533218484
-1.9469228773596667,1.4759546749152246,8.457688585601334,0.31277326756439644
-1.9321633306105146,1.562731061000283,8.460816318276978,0.29853434318904354
-1.9165360200005117,1.6511196275083855,8.463801661708867,0.2882484953625756
-1.9000248237254278,1.7412311657444426,8.466684146662493,0.2821840429708639
-1.8826125120679833,1.833185640232595,8.469505987092202,0.2806194298391321
-1.8642806556656573,1.927111932174018,8.472312181390594,0.283843131190212
-1.8450095363439172,2.0231473432876004,8.475150612702496,0.29215331195357275
-1.8247780629110413,2.121436814730053,8.478072145822031,0.3058571589892389
-1.8035636947637408,2.222131809550587,8.481130717411924,0.32526979596484734
-1.7813423766682348,2.3253888009986445,8.484383415371573,0.3507126759633471
-1.7580884886582484,2.431367303477689,8.487890542131206,0.38251133361230255
-1.7337748156234716,2.5402273787316427,8.49171565546733,0.4209923666496831
-1.708372541836155,2.652126547905177,8.495925579133827,0.46647950781003844
-1.6818512763571032,2.7672160416322824,8.500590374211928,0.5192886436226533
-1.6541791159407804,2.8856363267302654,8.505783260648155,0.5797216395444968
-1.6253227526734777,3.00751186107236,8.5115804770436,0.6480588436610188
-1.5952476340627542,3.132945049559537,8.51806106548021,0.7245501671974515
-1.5639181835671587,3.262009405526406,8.525306567152183,0.8094046826492325
-1.5312980895118946,3.3947419647773986,8.533400613978676,0.902778742568389
-1.4973506698641206,3.53113505442472,8.54242840140436,1.004762706214261
-1.4620393193198733,3.6711275852729455,8.552476028466502,1.1153664680873485
-1.4253280434671438,3.8145961124471075,8.563629693147377,1.2345041100219658
-1.3871820823426728,3.961345989884396,8.575974734247596,1.36197814180419
-1.3475686224438288,4.111103023292159,8.589594515665638,1.4974639448043614
-1.3064575922109072,4.263506093824496,8.604569155113682,1.6404951749427794
-1.2638225312726623,4.418101269720669,8.620974106863109,1.7904509974126535
-1.2196415185754557,4.574337933433121,8.638878616837236,1.9465460952893603
-1.1738981392411245,4.731567416480449,8.65834407779013,2.107824396786945
-1.12658246507632,4.889044546119311,8.679422321757999,2.273157384530057
-1.077692019615127,5.045932365804099,8.702153895603299,2.4412476758513417
-1.0272326959570859,5.201310102332508,8.726566372361813,2.610638298848178
-0.9752195949337608,5.354184232587597,8.752672755350295,2.7797277522990678
-0.9216777526078848,5.503502275902769,8.780470032873286,2.9467905605896108
-0.866642729848857,5.648168733264581,8.809937938479182,3.110002660786209
-0.8101610425162112,5.787062441002982,8.841037965087045,3.2674706360159536
-0.7522904181061814,5.919054528165343,8.873712671447205,3.417263581883072
-0.6930998728245279,6.04302617703639,8.907885307266035,3.5574462931316777
-0.632669611054164,6.157885485533194,8.943459770197352,3.6861124997075674
-0.571090756198832,6.262582905111868,8.980320895194428,3.80141705657372
-0.5084649271477133,6.356124953878321,9.018335065760166,3.901606271563575
-0.44490367760893007,6.437586150769448,9.057351128475801,3.985045896664882
-0.3805278161012356,6.5061193507707795,9.09720158744245,4.050246659488333
-0.3154666225935278,6.560964854558649,9.137704054037334,4.095887522954749
-0.24985697404794133,6.60145879678814,9.178662929266881,4.120837089234955
-0.18384238608005993,6.6270413713607335,9.21987130015923,4.124173676771175
-0.11757197236645259,6.637265422458308,9.261113036926941,4.1052045778458
-0.05119931814186951,6.631805815764402,9.3021650827054,4.0634848427302135
0.015118740015774512,6.610469808538901,9.342799931132703,3.9988356416959516
0.08122343810116352,6.5732083680074815,9.382788287549662,3.9113618478095216
0.14695552178123833,6.520128058812041,9.421901906027758,3.801467995615946
0.21215680236935874,6.451502754854925,9.459916585983917,3.6698712544855723
0.276671829917908,6.36778406373508,9.496615298528774,3.5176095800383886
0.3403496705552588,6.269609032277347,9.531791394329158,3.346042859516071
0.40304576087803223,6.157803491300821,9.565251822924319,3.1568447445644483
0.46462379579104046,6.033379364468878,9.596820270369964,2.951983060680242
0.5249575894357292,5.897524469950733,9.626340100976766,2.733687262734846
0.5839328341352366,5.7515838187596735,9.653676973604114,2.504402382726373
0.6414486723228333,5.5970321486643355,9.678720997431377,2.2667302235880458
0.6974189938094767,5.4354383575514476,9.701388299667258,2.0233600377500474
0.7517733773849912,5.268423487068286,9.721621900044758,1.77699236249911
0.804457612255674,5.097614789344825,9.739391823669749,1.5302608027109499
0.8554337601491223,4.924599016764467,9.754694431696858,1.285657118617981
0.904679750316767,4.750878278312124,9.767551002883039,1.0454648469544339
0.9521885330998882,4.577831555389285,9.778005651352583,0.8117058509229689
0.997966848653781,4.406684309247668,9.786122709861813,0.5861027972514229
1.0420336917462578,4.238487668942757,9.791983737834327,0.37005884876023104
1.0844185684356853,4.074107638893519,9.795684326321929,0.1646541364861255
1.1251596448246204,3.9142237868826046,9.79733086768679,-0.02934289303671922
1.1643018826934464,3.7593361056935293,9.797037438756423,-0.21145218761136095
1.2018952437503816,3.6097782603130946,9.794922916880308,-0.3814503034263501
1.2379930263535126,3.4657352470302887,9.791108413846045,-0.5393336044976944
1.2726503788238155,3.3272635576403604,9.785715077801068,-0.6852795878102689
1.3059230144002192,3.1943121882468386,9.778862281922965,-0.8196088976131581
1.3378661362826876,3.066743177573982,9.770666192946834,-0.9427499157658104
1.3685335680584274,2.9443507336835104,9.761238693789176,-1.0552071485215841
1.3979770753952625,2.8268783586884716,9.75068662230396,-1.1575340467613577
1.4262458589821472,2.7140336773645553,9.739111281836346,-1.2503104336633188
1.4533861957557928,2.605500904401833,9.726608177499713,-1.3341243797090927
1.4794412047998111,2.5009510464868763,9.713266933702622,-1.4095581493041154
1.5044507152646798,2.4000500375079534,9.69917135220958,-1.4771777255191965
1.5284512156397594,2.302465059659296,9.684399574954389,-1.5375253756553378
1.5514758662363524,2.207869322441465,9.669024321197835,-1.5911147277857394
1.573554559460767,2.1159455666899607,9.653113173919978,-1.6384278679507454
1.5947140151276666,2.0263885409625457,9.63672889524047,-1.6799140244260695
1.6149779005372922,1.938906669805189,9.619929754996209,-1.7159894688116188
1.634366967235344,1.853223102485477,9.602769860308092,-1.7470383265460974
1.6528991982601988,1.7690762999339125,9.58529947704263,-1.773414047594181
1.6705899612595378,1.6862202887810163,9.56756533656669,-1.795441339272222
1.687452164147348,1.6044246855101851,9.549610923173967,-1.8134184066596786
1.70349641100245,1.5234745712295799,9.53147673910737,-1.8276193818540825
1.7187311567147459,1.4431702783790525,9.51320054528883,-1.838296852047015
1.7331628594985364,1.363327134589491,9.49481757676836,-1.8456844188649393
1.7467961308444313,1.2837751955592018,9.47636073257971,-1.849999238563247
1.7596338828000233,1.204358987836665,9.457860740194079,-1.8514445054112154
1.77167747267839,1.124937273453489,9.439346295139966,-1.8502118498278688
1.7829268454129248,1.0453828411339372,9.420844176641687,-1.8464836293088869
1.7933806738242641,0.9655823230726478,9.402379340348597,-1.8404350946162291
1.8030364970549906,0.8854360318317682,9.383974989402434,-1.832236416688169
1.8118908573733084,0.8048578086250627,9.365652625235553,-1.822054561784401
1.819939435459559,0.7237748720323429,9.34743207961771,-1.8100550039424859
1.8271771841798825,0.642127654952551,9.329331529578285,-1.796403265241067
1.833598460729408,0.5598696173004917,9.311367496925874,-1.7812662759142213
1.839197156902413,0.4769670225214801,9.29355483416673,-1.7648135482300447
1.843966827127628,0.39339866736669893,9.27590669868443,-1.7472181603414965
1.847900813801295,0.30915555644221626,9.258434517081016,-1.7286575490614526
1.850992369365717,0.22424051568861483,9.241147941590402,-1.70931411364956
1.8532347745226032,0.13866774200703014,9.224054800453906,-1.689375636096684
1.8546214519426736,0.052462289535290474,9.20716104409294,-1.6690355268663555
1.8551460748380264,-0.034340503608279296,9.190470688824277,-1.648492908375924
1.8548026698019435,-0.1216956411624992,9.173985759740518,-1.6279525514327293
1.8535857133903186,-0.20954913743221254,9.15770623422619,-1.6076246821537887
1.8514902220159966,-0.2978387169362635,9.141629987404652,-1.5877246784003312
1.8485118348466338,-0.3864945314959103,9.12575274062065,-1.5684726753204665
1.8446468895316748,-0.4754398804152915,9.110068013867444,-1.5500930991607365
1.8398924907275218,-0.5645919192719202,9.094567082875837,-1.5328141471114491
1.8342465715348026,-0.6538623433559396,9.079238941404723,-1.516867228705929
1.8277079481012433,-0.7431580328573043,9.064070269117664,-1.502486381386515
1.8202763677726703,-0.8323816483460352,9.049045405303799,-1.4899076695196807
1.81195255128921,-0.9214321667464824,9.034146328608601,-1.4793685726566446
1.8027382296217453,-1.0102053496943095,9.019352642882035,-1.4711073654632039
1.7926361761248022,-1.0985941377239758,9.004641569227402,-1.4653624887274284
1.7816502347475625,-1.1864889650376218,8.989987944340129,-1.4623719083935927
1.7697853450971863,-1.2737779905719042,8.975364225256193,-1.4623724577999757
1.7570475651914672,-1.360347241678218,8.960740500678193,-1.4655991572808889
1.743444092774685,-1.4460806669879325,8.946084509105384,-1.4722845050227986
1.7289832861048058,-1.5308600950205777,8.931361664055157,-1.4826577334710416
1.7136746851546,-1.6145650949219699,8.916535086720446,-1.4969440265487644
1.6975290342053804,-1.6970727355311037,8.901565646454959,-1.5153636943243236
1.6805583068500693,-1.7782572389227114,8.886412009511716,-1.5381313033887831
