th1 (rad),w1 (rad/s),th2 (rad),w2 (rad/s),a1 (rad/s^2),a2 (rad/s^2)
3.1270128857376767,-2.574086193312332,0.10861847823781066,-0.2578771658738335,-0.5321397117446698,-0.7762373892059342
3.1012720238045532,-2.5794075904297786,0.10603970657907233,-0.2656395397658929,-0.8485284491064595,-0.9063863719940913
3.0754779479002554,-2.5878928749208434,0.1033833111814134,-0.2747034034858338,-1.1579988025342884,-1.0230241064941903
3.049599019151047,-2.5994728629461865,0.10063627714655507,-0.2849336445507757,-1.4592665601452917,-1.1232325876473113
3.023604290521585,-2.6140655285476395,0.0977869407010473,-0.2961659704272488,-1.751188732214464,-1.204314638086448
2.997463635236109,-2.631577415869784,0.09482528099677481,-0.30820911680811325,-2.032766006466656,-1.263799592397296
2.971147861077411,-2.6519050759344505,0.09174318982869369,-0.3208471127320862,-2.303142431442021,-1.2994449751900492
2.9446288103180662,-2.6749365002488705,0.08853471870137282,-0.3338415624839867,-2.5616029085922873,-1.3092349321847148
2.9178794453155774,-2.7005525293347934,0.08519630307653295,-0.3469339118058339,-2.8075691420158404,-1.291376235079694
2.8908739200222295,-2.7286282207549517,0.0817269639584746,-0.3598476741566308,-3.040594725362707,-1.2442926892013821
2.86358763781468,-2.759034168008579,0.0781284872169083,-0.37229060104864464,-3.260360040148995,-1.1666187303955724
2.835997296134594,-2.7916377684100686,0.07440558120642185,-0.3839567883526004,-3.4666676022252356,-1.057192909346453
2.8080809184504933,-2.826304444432321,0.07056601332289585,-0.39452871744606494,-3.659438428448507,-0.9150518340978789
2.77981787400617,-2.8628988287168062,0.0666207261484352,-0.40367923578704373,-3.838709909369192,-0.7394249824026701
2.751188885719002,-2.9012859278104983,0.06258393379056476,-0.41107348561107043,-4.004635571756564,-0.5297306122288661
2.722176026440897,-2.9413322835280638,0.05847319893445406,-0.4163707917333591,-4.157487002667793,-0.28557279871878744
2.6927627036056165,-2.982907153554742,0.054309491017120466,-0.419226519720547,-4.29765808980484,-0.006739416207374488
2.662933632070069,-3.02588373445279,0.050117225819915,-0.4192939138826207,-4.4256716161108836,0.30679932864655696
2.632674794725541,-3.070140450613899,0.04592428668108879,-0.41622592059615515,-4.5421881348134345,0.6548924153243701
2.601973390219402,-3.115562331962033,0.041762027475127236,-0.40967699644291145,-4.648016949424521,1.0372103804681752
2.570817766899782,-3.1620425014562783,0.03766525751069812,-0.3993048926382297,-4.744128936926086,1.45324952326006
2.539197341885219,-3.2094837908255394,0.03367220858431583,-0.38477239740562913,-4.831670887453512,1.902339083310754
2.5071025039769634,-3.2578004997000747,0.029824484610259536,-0.3657490065725216,-4.911980996890218,2.3836526540677876
2.474524498979963,-3.306920309668977,0.02616699454453432,-0.3419124800318437,-4.986605147229884,2.896225181747068
2.441455295883273,-3.356786361141276,0.02274786974421588,-0.312950228214373,-5.057313651181462,3.4389769440371727
2.40788743227186,-3.4073594976530908,0.01961836746207215,-0.27856045877400126,-5.126118230298821,4.010745902108692
2.3738138372953292,-3.458620679956079,0.016832762874332136,-0.23845299975291434,-5.1952891476825025,4.610329775670367
2.3392276304957687,-3.5105735714329036,0.014448232876802993,-0.19234970199621065,-5.267372634104796,5.236539111509067
2.3041218947814395,-3.5632472977739518,0.012524735856840887,-0.13998431088111998,-5.345209036289614,5.888262515926975
2.2684894218037,-3.616699388136848,0.011124892748029688,-0.08110168572185023,-5.431952482931785,6.564545124137309
2.2323224279223317,-3.671018912966166,0.010313875890811185,-0.01545623448047713,-5.531093311938495,7.264681317984832
2.19561223879267,-3.7263298460855507,0.010159313546006413,0.05719057869937119,-5.646485035464457,7.988322720376819
2.158348940331815,-3.7827946964401953,0.010731219333000126,0.1370738059031394,-5.782378243411748,8.735602643574245
2.1205209933674127,-3.8406184788743127,0.01210195739203152,0.22442983233888184,-5.943464571007649,9.507278511339146
2.0821148085786696,-3.9000531245843892,0.014346255715420338,0.3195026174522733,-6.134934698685091,10.304894382343969
2.0431142773328257,-3.9614024715712404,0.01754128188994307,0.42255156127571303,-6.362555339877844,11.130966651206442
2.0035002526171133,-4.025028024970019,0.0217667975027002,0.5338612277877774,-6.632771344791094,11.989197375035337
1.963249972367413,-4.0913557384179295,0.027105409780577974,0.6537532015381309,-6.952840460270848,12.884721547971713
1.9223364149832338,-4.160884143020638,0.03364294179595928,0.782600417017848,-7.3310100029105225,13.824397094020993
1.8807275735530273,-4.2341942430497435,0.04146894596613776,0.9208443879580579,-7.776746786993439,14.817149406518691
1.83838563112253,-4.311961710919678,0.05067738984571834,1.069015882023245,-8.301034125256697,15.874385883023848
1.7952660140133332,-4.394972052172245,0.06136754866595079,1.2277597408534835,-8.916752494967275,17.010499839885096
1.7513162934916107,-4.484139577121918,0.07364514607448562,1.3978647392523345,-9.6391631477281,18.243486745860018
1.7064748977203914,-4.580531208599199,0.08762379346700896,1.5802996067109347,-10.486515486920366,19.595697216285732
1.6606695856343994,-4.685396363468403,0.10342678953411831,1.776256578873792,-11.4807969362504,21.09474688773758
1.6138156219997153,-4.800204332830907,0.12118935532285623,1.9872040477511679,-12.648632647821836,22.774584910996342
1.5658135786714062,-4.926690659309125,0.14106139580036792,2.2149498968611314,-14.0223094510938,24.676672637653773
1.516546672078315,-5.066913753820064,0.16321089476897924,2.461716623237669,-15.640817403117579,26.851104266017792
1.4658775345401143,-5.22332192785124,0.18782806100135593,2.730227665897847,-17.55061629463869,29.35723103516575
1.4136443152616018,-5.398828090797626,0.2151303376603344,3.0237999762495043,-19.805422033683385,32.26275831467729
1.3596560343536255,-5.59688231113446,0.24536833742282946,3.346427559396277,-22.46341157334698,35.63900787544677
1.3036872112422808,-5.82151642686793,0.27883261301679224,3.7028176381507447,-25.578330416966455,39.547324200973776
1.2454720469736016,-6.077299731037595,0.3158607893982997,4.098290880160483,-29.176997820280164,44.0059728579778
1.1846990496632257,-6.369069709240397,0.3568436981999045,4.538350608740261,-33.20780795162266,48.91576715240579
1.1210083525708217,-6.701147788756623,0.4022272042873071,5.027508280264319,-37.43097752936104,53.90324132647371
1.0539968746832553,-7.075457564050233,0.45250228708995033,5.566540693529056,-41.204631162794726,58.01701836998712
0.983242299042753,-7.487503875678181,0.5081676940252409,6.146710877228927,-43.1335672911997,59.23179230813329
0.9083672602859711,-7.918839548590178,0.5696348027975301,6.73902880031026,-40.71777892070496,53.956039827025705
0.8291788648000693,-8.326017337797227,0.6370250908006327,7.278589198580518,-30.72276085878279,37.5669802333714
0.745918691422097,-8.633244946385055,0.709810982786438,7.654259000914232,-11.707699045579465,8.004129895436662
0.6595862419582464,-8.75032193684085,0.7863535727955803,7.734300299868599,11.846110881202788,-28.36768109563237
0.5720830225898379,-8.631860828028822,0.8636965757942663,7.450623488912274,30.481642492164767,-58.06638365311262
0.48576441430954964,-8.327044403107175,0.9382028106833891,6.869959652381148,38.495591281070325,-72.83850203257072
0.4024939702784779,-7.942088490296472,1.0069024072072006,6.141574632055441,37.845454392607685,-75.26843792149309
0.32307308537551316,-7.563633946370395,1.068318153527755,5.38889025284051,33.08129030353379,-71.6968931951089
0.2474367459118092,-7.232821043335057,1.1222070560561601,4.671921320889421,27.283918658121248,-66.4694395019383
0.17510853547845862,-6.959981856753845,1.1689262692650544,4.007226925870038,21.798410156409908,-61.50955250064394
0.10550871691092016,-6.741997755189746,1.2089985385237547,3.3921314008635983,17.038222328637502,-57.42212200115105
0.0380887393590227,-6.571615531903371,1.2429198525323908,2.817910180852088,13.04491393139332,-54.2723629297677
-0.027627415960011018,-6.441166392589437,1.2710989543409117,2.2751865515544107,9.74308487892407,-51.943928523408346
-0.09203907988590539,-6.3437355438001966,1.2938508198564558,1.7557472663203273,7.037629069384472,-50.27744897629702
-0.15547643532390737,-6.273359253106352,1.311408292519659,1.252972776557357,4.845624715654157,-49.11752982270363
-0.2182100278549709,-6.224903005949811,1.3239380202852327,0.7617974783303207,3.10370071364299,-48.32533283618363
-0.280459057914469,-6.193865998813381,1.3315559950685358,0.2785441499684845,1.7669436921970172,-47.77945924238901
-0.3423977179026028,-6.176196561891411,1.3343414365682207,-0.19925044245540563,0.8052960400524992,-47.373689117745876
-0.40415968352151693,-6.168143601490886,1.3323489321436666,-0.6729873336328644,0.19952188556331438,-47.01461291942164
-0.4658411195364258,-6.166148382635253,1.325619058807338,-1.1431334628270808,-0.06259799157234988,-46.620082631806035
-0.5275026033627783,-6.166774362550976,1.3141877241790672,-1.6093342891451412,0.010340913927007082,-46.1186070218915
-0.5891703469882881,-6.166670953411706,1.2980943812876158,-2.070520359364056,0.41043793058450895,-45.449508703476745
-0.6508370565224051,-6.162566574105861,1.2773891776939752,-2.5250154463988235,1.1280576989365803,-44.56354875530859
-0.7124627222634637,-6.151285997116495,1.252139023229987,-2.9706509339519096,2.1499419728976528,-43.42370133456079
-0.7739755822346287,-6.129786577387518,1.222432513890468,-3.4048879472975173,3.457899274345229,-42.005791070787474
-0.8352734480085039,-6.095207584644066,1.1883836344174927,-3.824945858005392,5.0280829734032135,-40.298775670467556
-0.8962255238549446,-6.044926754910033,1.1501341758374388,-4.227933614710068,6.830827416036036,-38.30455120356669
-0.9566747914040449,-5.976618480749673,1.107854839690338,-4.610979126745735,8.830968801146966,-36.03725891643636
-1.0164409762115416,-5.888308792738203,1.0617450484228808,-4.971351715910099,10.988546961270078,-33.52215840987366
-1.0753240641389237,-5.778423323125502,1.0120315312637798,-5.306573300008835,13.259776019623807,-30.794184629041297
-1.1331082973701787,-5.645825562929264,0.9589657982636914,-5.614515146299248,15.598187834597562,-27.896317260580766
-1.1895665529994714,-5.489843684583289,0.902820646800699,-5.893478318905056,17.955884952738142,-24.877865631569076
-1.2444649898453044,-5.310284835055908,0.8438858636116484,-6.1422569752207465,20.284875897540736,-21.79272598527474
-1.2975678381958635,-5.107436076080501,0.7824632938594409,-6.360184235073494,22.53849017528455,-18.69762236019717
-1.3486421989566686,-4.882051174327655,0.718861451508706,-6.547160458675466,24.672872778698046,-15.650316397458395
-1.397462710699945,-4.635322446540675,0.6533898469219512,-6.70366362265005,26.648535862145984,-12.707775861037641
-1.443815935165352,-4.368837087919215,0.5863532106954508,-6.8307413812604265,28.43190566980329,-9.924325250632569
-1.487504306044544,-4.084518031221182,0.5180457968828465,-6.929984633766752,29.99675997967217,-7.349852386135726
-1.528349486356756,-3.7845504314244605,0.44874595054517896,-7.00348315762811,31.32542205243565,-5.028193526560686
-1.5661949906710007,-3.471296210900104,0.37871111896889786,-7.053765092893717,32.409574872174225,-2.9958478609113466
-1.6009079527800016,-3.147200462178362,0.3081734680399607,-7.083723571502831,33.250589842543036,-1.281168011521032
-1.6323799574017852,-2.8146945637529317,0.2373362323249324,-7.096535251618041,33.85932252062486,0.09586506979525433
-1.6605269030393146,-2.476101338546683,0.16637087980875198,-7.095576600920089,34.25540136622237,1.123237763273467
-1.6852879164247814,-2.1335473248844594,0.09541511379955109,-7.084344223287355,34.466106681654736,1.7958973541082837
-1.706623389673626,-1.7888862580679121,0.02457167156667754,-7.066385249746272,34.524990129342676,2.1142350382434496
-1.7245122522543053,-1.4436363567744854,-0.04609218093078518,-7.045242899363838,34.4704104366063,2.0821927600232226
-1.7389486158220502,-1.0989322524084224,-0.11654460992442356,-7.024420971763606,34.34415563157955,1.7051446445976028
-1.7499379383461344,-0.7554906960926269,-0.18678881964205962,-7.00736952531763,34.190290093578966,0.98769721530053
-1.7574928453070606,-0.4135877951568372,-0.2568625148952359,-6.997492553164625,34.05431203857009,-0.06846540427294445
-1.761628723258629,-0.0730446747711363,-0.3268374404268822,-6.9981772072073545,33.98263742276465,-1.466575889508379
-1.7623591700063403,0.2667816994565102,-0.39681921249895574,-7.012842966102438,34.022334662098075,-3.2164784910377335
-1.7596913530117753,0.607005046077491,-0.46694764215998014,-7.0450077510128155,34.22089945585062,-5.335783089057294
-1.7536213025510003,0.9492140406359972,-0.5373977196701083,-7.098365581903389,34.62562909489871,-7.849980373175113
-1.7441291621446404,1.2954703315849843,-0.6083813754891422,-7.17686538563514,35.281725860074886,-10.790461562611869
-1.7311744588287905,1.648287590185733,-0.6801500293454936,-7.284770001261259,36.22742702499495,-14.188246478945128
-1.7146915829269331,2.0105618604356827,-0.7529977293581063,-7.42665246605071,37.48285724315855,-18.058989556113
-1.6945859643225762,2.3853904328672684,-0.8272642540186134,-7.607242361611839,39.02634004141529,-22.37066956914791
-1.6707320599939035,2.7756538332814213,-0.9033366776347318,-7.830949057303319,40.74696202222273,-26.97835185981159
-1.6429755216610893,3.1831234535036486,-0.981646168207765,-8.100732575901436,42.35592231211438,-31.501352251555954
-1.6111442871260528,3.6066826766247924,-1.0626534939667793,-8.415746098416996,43.23893280047168,-35.11700546529381
-1.575077460359805,4.039072004629509,-1.1468109549509493,-8.766916153069934,42.2668236600151,-36.2924632495464
-1.5346867403135098,4.46174024122966,-1.2344801164816486,-9.129840785565397,37.72392256476379,-32.672650649872324
-1.4900693379012133,4.838979466877298,-1.3257785243373026,-9.45656729206412,27.816910005984592,-21.764745946308725
-1.4416795432324403,5.117148566937144,-1.4203441972579438,-9.674214751527208,12.29929736064918,-3.1658328526927924
-1.3905080575630688,5.240141540543635,-1.517086344773216,-9.705873080054136,-5.666034295272536,18.873021947770795
-1.3381066421576324,5.183481197590909,-1.6141450755737572,-9.517142860576428,-20.5534505966601,36.88904766422064
-1.2862718301817233,4.977946691624308,-1.7093165041795215,-9.14825238393422,-28.81622719229365,46.15513874092439
-1.2364923632654803,4.689784419701372,-1.8007990280188637,-8.686700996524976,-30.982303974578354,47.48381541002909
-1.1895945190684665,4.3799613799555885,-1.8876660379841135,-8.211862842424685,-29.530439659024346,44.26527564526343
-1.1457949052689105,4.084656983365345,-1.9697846664083603,-7.76921008597205,-26.577974852154036,39.32869953715862
-1.104948335435257,3.818877234843805,-2.0474767672680807,-7.375923090600464,-23.303355291974068,34.20293366493656
-1.066759563086819,3.5858436819240644,-2.121235998174085,-7.033893753951099,-20.217456775267973,29.515598599920953
-1.0309011262675782,3.3836691141713846,-2.191574935713596,-6.738737767951889,-17.488963793703785,25.444557912809852
-0.9970644351258644,3.208779476234347,-2.258962313393115,-6.48429218882379,-15.138325907008173,21.98076588773369
-0.9649766403635209,3.057396217164265,-2.3238052352813527,-6.264484529946453,-13.130827731056499,19.051394612940697
-0.9344026781918783,2.9260879398537,-2.386450080580817,-6.073970583817046,-11.416645969809844,16.57107079514703
-0.9051417987933412,2.811921480155602,-2.4471897864189875,-5.908259875865576,-9.946564316789296,14.460824671150357
-0.8770225839917852,2.7124558369877088,-2.506272385177643,-5.763651629154072,-8.677242868160308,12.653590768314187
-0.8498980256219082,2.625683408306106,-2.563908901469184,-5.637115721470931,-7.572251741763593,11.09451238282002
-0.8236411915388472,2.5499608908884697,-2.620280058683893,-5.52617059764273,-6.601532370616048,9.739498802103107
-0.7981415826299625,2.4839455671823094,-2.6755417646603203,-5.4287756096217,-5.740389869928206,8.553409466751177
-0.7733021269581394,2.4265416684830274,-2.7298295207565375,-5.343241514954188,-4.968449711004829,7.5083673277437875
-0.7490367102733091,2.376857171372979,-2.7832619359060793,-5.26815784167675,-4.268730540909863,6.582347299640644
-0.7252681385595793,2.3341698659638803,-2.835943514322847,-5.202334368680344,-3.6268718801187685,5.758046330894209
-0.7019264398999405,2.2979011471626927,-2.8879668580096505,-5.1447539053714015,-3.0305149316640656,5.021991053642861
-0.6789474284283136,2.267595997846052,-2.9394143970633646,-5.094533994834973,-2.4688255931465086,4.363822458328167
-0.6562714684498531,2.242907741914587,-2.9903597370117145,-5.0508957702516915,-1.9321532391202365,3.775691408730583
-0.6338423910307072,2.2235862095233845,-3.0408686947142316,-5.013138856164385,-1.411828997587404,3.2516950358830305
-0.6116065289354733,2.2094679195475107,-3.0910000832758753,-4.980621905805555,-0.9001184691763878,2.7872804008290193
-0.5895118497399982,2.200466734855747,-3.1408063023339308,-4.952749101797265,-0.39035130997363354,2.378541949007402
-0.5675071823914407,2.1965632217560107,-3.1903337933519036,-4.928963682307191,0.12275338879461159,2.0213523017338404
-0.5455415501738806,2.1977907556439567,-3.2396234301749756,-4.908750159289852,0.6425716957494243,1.7103061093630252
-0.523563642617441,2.204216472601451,-3.288710931767874,-4.891647098196222,1.1699318846371913,1.4375394994590065
-0.5015214778914265,2.215915791447823,-3.337627402749836,-4.8772717032016315,1.7024981863091617,1.1916182038253647
-0.4793623199769483,2.2329407733109146,-3.3864001197818525,-4.865355521163377,2.234443191368006,0.9568401875401316
-0.45703291224383913,2.2552852052245944,-3.4350536749934864,-4.855787119287976,2.7567391997164417,0.7133978347720175
-0.4344800601915932,2.282852597221759,-3.483611546186366,-4.8486531409402565,3.2583426309026486,0.4387726184039206
-0.4116515342193756,2.3154360235307854,-3.532098077595769,-4.844265414756217,3.7282981742429766,0.11039843311535084
-0.38849717398406775,2.352719005273215,-3.580540731743331,-4.843161430425064,4.158386011102272,-0.2909243067966514
-0.3649699839313356,2.3943028653842378,-3.6289723460475813,-4.84607067349303,4.545563339452199,-0.7778955621896916
-0.3410269552774932,2.43975849877876,-3.6774330527825114,-4.853849629114928,4.893370789340032,-1.3550093654573883
-0.3166293702897056,2.48869220667216,-3.7259715490736607,-4.867399722769502,5.211815495499132,-2.0189535236737037
-0.291742448222984,2.5408103616271513,-3.7746455463013557,-4.887589258006239,5.515852987547942,-2.7609574859589463
-0.2663343446067125,2.595968891502631,-3.8235214388814183,-4.915198832865828,5.823117847050978,-3.5702086781649176
-0.2403746556916862,2.6542000699731405,-3.8726734272100765,-4.950900919647477,6.151718513267566,-4.437236671963444
-0.2138326549919548,2.715717255105816,-3.922182436406551,-4.995273286367111,6.518702266956339,-5.35646067811813
-0.18667548244089666,2.7809042777753796,-3.9721351692702225,-5.048837893148293,6.9394175994981095,-6.327625057773039
-0.15886643966314284,2.850298453770361,-4.022623548201706,-5.112114143726023,7.427680537678965,-7.35629646413673
-0.13036345512543923,2.9245752591471503,-4.073744689638966,-5.185677108367391,7.996498535744047,-8.453815921630309
-0.10111770253396773,3.004540244504591,-4.12560146072264,-5.270215267583694,8.659105247307751,-9.637112927382297
-0.07107230008892182,3.091131296977668,-4.1783036133984774,-5.366586396857517,9.430141079616412,-10.928696316578105
-0.04016098711914513,3.185432707773832,-4.231969477367053,-5.475873360023298,10.326913432782442,-12.357028422864017
-0.008306660041406816,3.2887018421016565,-4.2867282109672855,-5.599443644251939,11.370752322428926,-13.957412730538092
0.02458035837960975,3.402409365325946,-4.342722647409805,-5.73901777155732,12.588532097695776,-15.77349104557822
0.05860445203286921,3.5282946863029037,-4.400112825125378,-5.896752682013102,14.01445919369817,-17.859442233571407
0.09388739889589826,3.6684392782398856,-4.4590803519455084,-6.0753471043488165,15.692226385591924,-20.282974308288274
