th1 (rad),w1 (rad/s),th2 (rad),w2 (rad/s)
3.620475214948302,1.3674826832701374,6.222800670486701,-0.9942358213925979
3.6341500417810035,1.4404636987079233,6.212858312272775,-0.9353004251911411
3.648554678768083,1.5134832567130645,6.203505308020864,-0.8777324328970292
3.6636895113352135,1.5864783233210702,6.194727983691894,-0.8218216467740385
3.6795542945684243,1.6593974972030858,6.186509767224154,-0.7678492411844858
3.6961482695404553,1.7322004106467626,6.178831274812309,-0.7160882518815619
3.713470273646923,1.8048570776996975,6.1716703922934935,-0.6668041939598751
3.73151884442392,1.8773472333301415,6.165002350353895,-0.6202557643283542
3.7502923167572213,1.9496597032123693,6.158799792710611,-0.5766955905455206
3.7697889137893448,2.02179183930603,6.1530328368051554,-0.5363709945936962
3.790006832182405,2.093749052045943,6.147669126859219,-0.4995247473695994
3.8109443227028645,2.1655444658963714,6.142673879385523,-0.46639579712294843
3.8325997673618284,2.2371987213967124,6.138009921414294,-0.4372199626486875
3.8549717545757956,2.308739943731995,6.133637721787807,-0.4122305896653214
3.8780591540131155,2.3802038953679423,6.129515415891153,-0.3916591764788765
3.901861192966795,2.4516343284463114,6.125598824126365,-0.3757359827689808
3.926377536251258,2.523083551489097,6.121841464298675,-0.36469064320295225
3.951608371766149,2.594613224568785,6.118194557866645,-0.3587528156738276
3.977554504011837,2.6662953975487107,6.114607029709907,-0.3581529023795628
4.004217457987324,2.7382138074011078,6.111025500686111,-0.3631228908470017
4.031599596061335,2.8104654531357918,6.107394271777641,-0.37389737151808794
4.059704250592693,2.883162470742649,6.10365529806246,-0.3907147988586538
4.08853587530012,2.9564343360586136,6.099748150073873,-0.4138190743780705
4.118100218660706,3.0304304309882206,6.095609959330092,-0.4434615427925736
4.148404522970588,3.10532301850434,6.091175343902167,-0.47990350725842934
4.179457753155631,3.18131068490915,6.086376308829583,-0.5234193867047281
4.211270860004723,3.2586223246443464,6.081142114962535,-0.5743006585283387
4.243857083251167,3.337521764337137,6.075399108377252,-0.632860754172793
4.277232300894538,3.4183131497218455,6.069070500835524,-0.6994411044751621
4.311415432391756,3.50134725266133,6.062076089790772,-0.7744185673407339
4.34642890491837,3.587028896808682,6.054331904117365,-0.8582145134985855
4.382299193886457,3.675825750421745,6.04574975898238,-0.9513058976721515
4.419057451390675,3.768278793776877,6.0362367000056585,-1.0542387023131878
4.456740239328443,3.8650148353007836,6.025694312982527,-1.1676442065275596
4.495390387681451,3.9667615203701523,6.014017870917251,-1.2922585962613569
4.535058002885153,4.0743653381788025,6.001095284954638,-1.4289464750847491
4.575801656266941,4.188813159598069,5.986805820203791,-1.5787288192385363
4.617689787862921,4.311257779289013,5.9710185320114055,-1.7428157668654085
4.660802365655811,4.443047680754802,5.953590374342752,-1.9226441819144422
4.705232842463359,4.58576057938591,5.934363932523607,-2.119918878113058
4.7510904482572185,4.741238804101856,5.913164743742477,-2.336654122291619
4.798502836298237,4.91162142808798,5.88979820251956,-2.5752073828994977
4.847619050579117,5.099361653338615,5.864046128690565,-2.83828797855909
4.898612667112503,5.307205233997334,5.835663248904974,-3.1289049919032634
4.9516847194524765,5.538081018830816,5.804374198985942,-3.450183562923021
5.007065529640784,5.794808152881517,5.769872363356711,-3.804912652134988
5.0650136111696,6.079441484165498,5.731823236835361,-4.194570197594966
5.125808026011255,6.391944972735728,5.689877534859412,-4.617386563149281
5.189727475738612,6.727730498525291,5.643703669227919,-5.064795361656204
5.2570047807238645,7.073623976415063,5.5930557156113565,-5.515663703300103
5.327741020488015,7.402677633028892,5.537899078578356,-5.928921046361555
5.401767796818304,7.671177808672893,5.478609868114741,-6.239371792087553
5.478479574905033,7.826029196353264,5.416216150193865,-6.368328412456886
5.556739866868566,7.829420469600352,5.352532866069296,-6.258891071454134
5.6350340715645695,7.687318758548744,5.289943955354755,-5.916834627418252
5.711907259150057,7.449093614154753,5.230775609080573,-5.410642644229509
5.786398195291604,7.175159484927703,5.176669182638278,-4.825889594358401
5.858149790140882,6.908972038085413,5.128410286694694,-4.225227645724686
5.927239510521736,6.67206395273071,5.0861580102374475,-3.640777478395298
5.993960150049043,6.471157610085818,5.049750235453494,-3.083798233433988
6.0586717261499015,6.305554622475748,5.018912253119154,-2.5550067449320544
6.121727272374659,6.1715756424736945,4.993362185669834,-2.05088035290387
6.183443028799395,6.064687188902383,4.972853382140795,-1.5667508296624664
6.244089900688419,5.980374558064481,4.95718587384417,-1.0981387504869302
6.303893646269064,5.9144317947530025,4.946204486339301,-0.6412572650781492
6.363037964216594,5.8630067329869915,4.93979191368852,-0.19315569969296265
6.421668031546464,5.8225559131911755,4.937860356691591,0.2482815794230641
6.479893590678375,5.789776620418349,4.9403431724858216,0.6843886064539042
6.5377913568825585,5.761543873241263,4.947187058550361,1.115786944828056
6.595406795614971,5.7348629726788785,4.958344927998641,1.5424582541097553
6.65275542534176,5.706840797105879,4.973769510539738,1.9638181061311868
6.709823833312819,5.6746757861149675,4.993407691601051,2.378792453647445
6.766570591173968,5.635665026260506,5.017195616137525,2.7858988135511717
6.822927241436573,5.587225994726258,5.045054604273036,3.183333577035806
6.878799501383836,5.526929935211479,5.076887940043394,3.5690656917181873
6.93406880073595,5.452543416283124,5.112578596960576,3.9409356987581545
6.988594234898781,5.36207434760067,5.151987953948158,4.296757996944791
7.042214978374788,5.253818620777451,5.1949555339176055,4.634423382951223
7.0947531645825626,5.126403604815329,5.241299767747118,4.951998436838713
7.146017200630716,4.978824947059585,5.290819752115505,5.247818173212836
7.195805450101312,4.810473485197185,5.343297933847634,5.520568508854767
7.243910184953283,4.621149545360277,5.398503618936181,5.769355444546969
7.2901216804068865,4.411062484603116,5.456197173381651,5.993758377345635
7.334232305252917,4.180814048037908,5.516134757155107,6.193865636753943
7.376040445733296,3.931364967880858,5.578073413522646,6.370291186700972
7.415354095412105,3.663985226171519,5.641776325389656,6.524172468725878
7.45199394767382,3.380189481599592,5.707018050076915,6.657150563986793
7.485795842489816,3.081660216128914,5.773589555716783,6.771335153056863
7.516612444651106,2.7701620406459218,5.841302907247352,6.869258027460268
7.544314065057565,2.4474511555036997,5.909995487521955,6.9538199958335705
7.568788576612602,2.115184073779358,5.9795336874802905,7.0282367749616075
7.5899404173503955,1.7748293421150874,6.049816055229907,7.095989749588012
7.607688710771546,1.4275851980289327,6.120775952725787,7.160787277280493
7.6219645627518355,1.074305053695315,6.192383825498593,7.226541510430741
7.6327076132887886,0.7154316717787561,6.2646492406029,7.297364506691077
7.639861930006576,0.3509403010915266,6.337622885669811,7.377585583218856
7.643371333017492,-0.019708525270828725,6.4113987415019995,7.47178900219181
7.643174247764784,-0.39760333828661476,6.486116631523918,7.58486604259071
7.639198214381918,-0.7843935964806371,6.561965291949825,7.722065854140478
7.631354278417112,-1.1822553373584177,6.63918595049123,7.889010096096559
7.619531725043528,-1.5937579102832005,6.718076051452195,8.091597073435349
7.603594145940695,-2.021521698855927,6.798992022186549,8.335642722235661
7.583378928952136,-2.467448369110525,6.882348449408905,8.625956004728442
7.558704445261031,-2.9311191500474414,6.968608009456189,8.964285605099368
7.529393253760557,-3.4067074602955123,7.058250865507183,9.34521814631636
7.495326179157602,-3.877681178291344,7.151703046970347,9.748981264472931
7.456549367374689,-4.309639904003949,7.249192859615077,10.131535052840638
7.413452968334649,-4.645961674212855,7.3505082101434835,10.4182722737951
7.36699335159252,-4.818722001973519,7.454690932881435,10.518428725166181
7.318806131572785,-4.785089077892211,7.5598752201330965,10.374296669697028
7.270955240793863,-4.565111080244736,7.663618186830067,10.012222980713604
7.225304129991415,-4.231422863406014,7.763740416637202,9.527955785757891
7.182989901357355,-3.859585451623343,7.859019974494782,9.019312333824615
7.144394046841121,-3.4969272770371305,7.949213097833028,8.545210461231642
7.10942477407075,-3.163708423103093,8.034665202445344,8.128521877744072
7.077787689839719,-2.8647309703899326,8.115950421222784,7.772290810343382
7.04914038013582,-2.598099606118696,8.193673329326218,7.471539599730881
7.023159384074633,-2.3597063638429296,8.268388725323527,7.2191097638269115
6.999562320436204,-2.145136913407496,8.340579822961796,7.008018631829184
6.978110951302129,-1.9503621661935218,8.410660009280088,6.832224625289749
6.958607329640193,-1.7719212752043727,8.478982255532985,6.68675451407059
6.940888116888149,-1.6069116585407337,8.545849800673691,6.56760652499792
6.924819000302742,-1.4529175058079393,8.61152586592367,6.4715947446931485
6.9102898252446625,-1.3079284683471841,8.676241813370602,6.396195337212831
6.897210540561191,-1.1702671535312708,8.74020376674273,6.339412915159839
6.885507869025878,-1.0385308741320942,8.80359789589433,6.299669301278501
6.875122560284558,-0.9115482432537612,8.866594588907114,6.275711319476729
6.86600707785202,-0.7883497430344455,8.929351702101881,6.266532720312981
6.858123580421675,-0.6681512688509992,8.99201702930501,6.271305266988468
6.851442067733165,-0.5503499903122916,9.054730081974895,6.289314368132506
6.845938567830043,-0.43453229250129277,9.11762322565622,6.319895099344588
6.84159324490503,-0.32049386213114656,9.180822176649666,6.362364963839957
6.8383883062837185,-0.20827200005082008,9.244445826288066,6.415950422145871
6.836305586283211,-0.0981897828956566,9.308605330509526,6.4797053063367684
6.835323688454254,0.00908948404767497,9.373402383572893,6.5524210609846465
6.835414583294731,0.1125012737379766,9.438926594182739,6.632531724144038
6.836539596032111,0.2105195173651777,9.50525191142418,6.718021049649709
6.838644791205763,0.30110894507504726,9.572432121920677,6.806345293181007
6.841655880656513,0.3817076727408896,9.640495574852487,6.894392402230288
6.845472957383922,0.4492626016524845,9.70943949887479,6.978504941589826
6.849965583400447,0.5003418464818963,9.779224548290689,7.054596715252736
6.854969001865266,0.5313429359559265,9.849770515443216,7.118386998002426
6.860282431224825,0.5387994279121074,9.92095438542324,7.165757129261464
6.8656704255039465,0.5197613477319872,9.992611956715855,7.1932012077118825
6.870868038981266,0.47219218180361255,10.064543968792973,7.198302676208265
6.875589960799302,0.395299806389066,10.136526995555055,7.180137402791595
6.879542958863193,0.28971616113355986,10.20832836958297,7.139500430284743
6.882440120474529,0.15746933669088026,10.279723373885817,7.078888395294605
6.884014813841437,0.001745332380730935,10.350512257838764,7.0022343083960665
6.884032267165245,-0.17350633356689102,10.420534600922725,6.914459744837463
6.882297203829576,-0.36403293843683104,10.4896791983711,6.820952271657388
6.878656874445207,-0.5657119558938877,10.557888721087673,6.727078468426231
6.872999754886268,-0.7748905895849292,10.625159505771936,6.637811681956663
6.865250848990419,-0.9886026387366719,10.691537622591502,6.557508458690865
6.855364822603052,-1.2046679648490957,10.757112707178411,6.489827877370514
6.843318142954561,-1.4217008661902635,10.822010985952117,6.4377641052670915
6.829101134292658,-1.6390609355475698,10.886388627004788,6.40375500456992
6.812710524937183,-1.85677756896294,10.950426177050486,6.389833545109738
6.794142749247554,-2.075472319321825,11.014324512501585,6.397798138138581
6.773388026054335,-2.296295649928195,11.07830249388297,6.429388337930915
6.750425069555053,-2.52088846945426,11.14259637726228,6.48646133187249
6.7252161848605105,-2.7513748333646975,11.207460990581005,6.57117156075021
6.697702436526863,-2.9903902408970526,11.273172706188507,6.686160858781466
6.6677985341178925,-3.2411494494874438,11.340034314776322,6.834770047060812
6.635387039623018,-3.5075576783657603,11.40838201524693,7.021284879383327
6.600311462839361,-3.794367628180895,11.478594864040764,7.251228177468263
6.5623677865575525,-4.107377751178787,11.551107145815447,7.5317010405212015
6.521294009045764,-4.453644489442561,11.62642415622066,7.871745795204402
6.476757564151339,-4.841617199666404,11.705141614172703,8.28261704917876
6.428341392154675,-5.280935294219195,11.78796778466449,8.777616526125481
6.375532039212483,-5.781198187844048,11.875743949925745,9.370556962429799
6.317720057334042,-6.347993086112201,11.969449519550043,10.070497376590385
6.25424012647292,-6.972337249620675,12.070154493315947,10.867415814566193
6.184516753976713,-7.607029899005773,12.17882865146161,11.699708098083393
6.108446454986655,-8.128836438363004,12.295825732442443,12.401776248195953
6.0271580906030255,-8.329048841194417,12.419843494924402,12.690471528907317
5.943867602191081,-8.045667445625112,12.546748210213476,12.347283825906565
5.86341092773483,-7.376121594036855,12.670221048472541,11.510145521999913
5.789649711794461,-6.586757672600132,12.78532250369254,10.54433941404785
5.72378213506846,-5.850839902086231,12.890765897833019,9.682538054369017
5.665273736047598,-5.2146236163309165,12.987591278376708,8.983133102526207
5.613127499884289,-4.670574862588271,13.077422609401971,8.432859835351977
5.566421751258407,-4.199368637383762,13.16175120775549,8.004129852603937
5.524428064884569,-3.7828567968885025,13.241792506281529,7.67215373616082
5.486599496915684,-3.4065472018329745,13.318514043643138,7.4178642359295
5.452534024897354,-3.0593200714970616,13.392692686002432,7.227231040849374
5.421940824182384,-2.732669233458726,13.464964996410925,7.090025404400271
5.3946141318477965,-2.4200327028138093,13.535865250454929,6.9987508316447515
5.370413804819658,-2.1163052516732335,13.605852758771377,6.947830924203471
5.349250752302926,-1.8175137215828991,13.675331068013412,6.933004867582372
5.331075615087097,-1.5206196351601613,13.744661116689235,6.950866017634569
5.315869418735495,-1.2234192427941835,13.814169776865581,6.998491754563887
5.303635226307554,-0.924518624192173,13.88415469441122,7.07312862568117
5.2943900400656325,-0.6233659101238562,13.954885980668033,7.171911161926036
5.288156380964394,-0.3203230820410846,14.026605092287292,7.291606042686341
5.284953150143983,-0.016756186494957026,14.099521152714155,7.4283866679091055
5.284785588279034,0.28488413051589667,14.173805019393246,7.577657095580869
5.287634429584193,0.5810282941945162,14.249581590349054,7.733957484890053
5.293444712526138,0.8670425779555435,14.326921165197955,7.89099209452274
5.302115138305693,1.1374147698673494,14.405831086143182,8.041819664168335
5.3134892860043665,1.3860977704714086,14.486249282784867,8.179228156170812
5.32735026370908,1.6070062032991266,14.568041564346574,8.29627818576481
5.343420325742072,1.794615469797781,14.651004346204221,8.386947523271772
5.36136648044005,1.944567016223123,14.734873821436938,8.44675998678583
5.3808121506022815,2.054158789414198,14.819341421304797,8.473260316044046
5.401353738496423,2.1226134370936984,14.904074024465237,8.466220767932679
5.42257987286736,2.1510699207097597,14.988736232144563,8.427533074672114
5.444090572074458,2.142317121414231,15.073011562891283,8.360824827396273
5.4655137432886,2.1003501575673256,15.156619811165246,8.270905968557464
5.486517244864273,2.029858275205713,15.239328870850821,8.163174401654404
5.50681582761633,1.935743501764647,15.320960614867365,8.043089499513226
5.526173262633976,1.8227351727972807,15.401391509862497,7.9157773784830985
5.544400614361948,1.695125940914843,15.480549283647328,7.785785153368546
5.5613518737710965,1.556623873514284,15.558407135181014,7.6569679596424445
5.576918112506239,1.410297851183772,15.634976814777438,7.532476281355262
5.591021091018077,1.2585880949683848,15.710301577590991,7.414808588123773
5.603606971967761,1.1033559062409193,15.784449663472229,7.305899580101208
5.61464053103017,0.9459523718099467,15.857508659273241,7.207222439698239
5.624100054748269,0.7872920079733744,15.929580883670225,7.1198913197189135
5.631972974828003,0.627922637732126,16.000779796867413,7.044756518917021
5.638252201205325,0.46808674507387094,16.071227362056582,6.982489158780419
5.642933068656063,0.3077721868697084,16.141052253644386,6.933654948708671
5.646010790524761,0.14675173239418776,16.210388803131472,6.898778234255995
5.6474783078487025,-0.015388259292331202,16.279376585474033,6.878398363442991
5.647324425255779,-0.17922936815721763,16.34816056910846,6.873120788911575
5.645532131574207,-0.34551214791373774,16.416891776997577,6.883665462003794
5.642077010095069,-0.5151360826665579,16.485728431617616,6.910915097400097
5.636925649268403,-0.6891680487332656,16.554837582591617,6.955965849093412
5.6300339687810705,-0.868858973809632,16.62439724108255,7.020182819092871
5.621345379042975,-1.0556682824606622,16.69459906927348,7.105262490963462
5.610788696218368,-1.2512951260758778,16.765651694183113,7.21330332276634
5.598275744957609,-1.4577137733009236,16.837784727410778,7.346883655612203
5.5836986072245995,-1.67720678095983,16.9112535639669,7.5091413389871455
5.566926539415001,-1.9123814286664031,16.98634497735677,7.703839019489011
5.547802725128337,-2.1661378291016113,17.06338336755166,7.935376676717241
5.526141346837321,-2.441522061265374,17.142737134318832,8.20866622067495
5.501726126224667,-2.741327394031987,17.22482379652558,8.52868774730965
5.474312852284347,-3.067171906003673,17.310110673998675,8.899361906324076
5.443641133224311,-3.417546429015358,17.399104293061917,9.321046191212988
5.409465668934158,-3.7840135508157524,17.492314754974046,9.785516413527532
5.371625533426,-4.144685689766949,17.59016991910932,10.267183960773806
5.33017867652833,-4.455682874353809,17.69284175871706,10.71139728988042
5.2856218477847925,-4.647370419095251,17.799955731615864,11.029002146911226
5.23914814359384,-4.642074863970456,17.910245753084975,11.119935582210802
5.192727394954136,-4.402268133489249,18.021445108907084,10.938017280060484
5.148704713619243,-3.968518077633341,18.13082528170769,10.541039086488498
5.10901953284291,-3.4306888150299613,18.236235672572576,10.049944640680259
5.07471264469261,-2.8669286349990872,18.33673511897938,9.566353801813765
5.04604335834262,-2.3187683646540234,18.432398656997517,9.140972420386387
5.022855674696079,-1.800157501697729,18.52380838120138,8.78755441256944
5.004854099679102,-1.3116201436598933,18.611683925327075,8.502583830709124
4.991737898242503,-0.8488498983395312,18.696709763634168,8.276755343142783
4.983249399259108,-0.4065777037459794,18.779477317065595,8.09988074063483
4.979183622221648,0.01996604600978491,18.860476124471944,7.962560539911046
4.979383282681746,0.4346054229500304,18.940101729871056,7.856544833348777
4.983729336911246,0.840156569466225,19.018667178204545,7.774635825761444
4.992130902605908,1.2384920643817259,19.09641353646216,7.710469437275734
5.004515823249725,1.6306361100137918,19.173518230834915,7.6582989541308635
5.020822184349862,2.016859526139706,19.250101220376223,7.612820337763605
5.04099077961126,2.3967685327925645,19.32622942375386,7.569048095262087
5.064958464939186,2.7693900809491945,19.401919904706478,7.522240055394826
5.092652365748678,3.1332586580156123,19.477142305260426,7.467866040071977
5.123984952328834,3.486508898962579,19.551820965661147,7.401614277262902
5.158850041318459,3.8269765488748133,19.625837108433775,7.319428683900413
5.1971198068072075,4.152308078128145,19.69903139527278,7.217569389682229
5.238642887588489,4.460076994584437,19.7712070891696,7.092688151932262
5.283243657534333,4.747902984724554,19.842133970688923,6.941909895355234
5.330722687381579,5.013568738249612,19.911553069642476,6.76291175997291
5.380858374764075,5.255128848828551,19.979182187242206,6.5539918860448525
5.433409663252361,5.471005555620552,20.044722106102654,6.314121642241704
