th1 (rad),w1 (rad/s),th2 (rad),w2 (rad/s),a1 (rad/s^2),a2 (rad/s^2)
6.234153360666118,2.5583690796394825,0.12022289881285934,2.8465347398797105,4.444748172339742,-6.659117454458154
6.259737051462513,2.60281656136288,0.14868824621165644,2.7799435653351288,4.232675886218456,-6.782317699579192
6.2857652170761416,2.6451433202250647,0.17648768186500774,2.7121203883393368,3.989805432879784,-6.860908939425927
6.312216650278392,2.6850413745538626,0.2036088857484011,2.6435112989450773,3.717381685764845,-6.894710425784968
6.339067064023931,2.722215191411511,0.2300439987378519,2.5745641946872277,3.4167545504013774,-6.883772446099822
6.366289215938046,2.7563827369155245,0.25578964068472415,2.5057264702262296,3.089370504969166,-6.828408257002015
6.393853043307201,2.7872764419652163,0.2808469053869864,2.4374423876562097,2.736773253924338,-6.729234158671364
6.421725807726854,2.8146441745044597,0.3052213292635485,2.370150046069496,2.3606121760133316,-6.587214741826179
6.449872249471898,2.838250296264593,0.32892282972424347,2.3042778986512342,1.9626567550497807,-6.403709822058828
6.478254752434545,2.8578768638150907,0.35196560871075583,2.2402408004306458,1.5448147256755607,-6.1805191305422165
6.5068335210726955,2.8733250110718465,0.37436801671506226,2.1784356091252235,1.1091512731957147,-5.919920493993169
6.535566771183414,2.8844165238038038,0.3961523728063145,2.119236404185292,0.6579063404036997,-5.624697072858273
6.564410936421452,2.8909955872078408,0.4173447368481674,2.062989433456709,0.19350697167755485,-5.298149314118337
6.59332089229353,2.8929306569246163,0.4379746311827345,2.0100079403155258,-0.28142827467179116,-4.944087695247449
6.622250198862776,2.8901163741778984,0.4580747105858898,1.9605670633630512,-0.7640954408386769,-4.566803152937749
6.651151362604555,2.8824754197695115,0.4776803812195203,1.9148990318336736,-1.2515237334894065,-4.171013329389573
6.67997611680225,2.8699601824346175,0.496829371537857,1.8731888985397778,-1.7406075032660628,-3.76178439641833
6.708675718626596,2.8525541074019567,0.5155612605232548,1.8355710545755946,-2.2281514266869924,-3.34443012796695
6.7372012597006155,2.8302725931350867,0.5339169710690107,1.802126753295925,-2.7109273865111216,-2.9243919084795666
6.765503985631966,2.8031633192699754,0.55193823860197,1.7728828342111294,-3.185740293232337,-2.507105257751793
6.793535618824666,2.771305916337652,0.5696670669440813,1.7478117816336114,-3.649499040125373,-2.097859971537439
6.821248677988042,2.734810925936398,0.5871451847604174,1.726833181918237,-4.099288090456653,-1.7016618943520865
6.8485967872474065,2.693818045031832,0.6044135165795999,1.7098165629747162,-4.532434968284087,-1.323104499163222
6.875534967697725,2.648493695348991,0.621511682209347,1.696585517983084,-4.946569206544087,-0.9662577958726482
6.9020199046512145,2.59902800328355,0.6384775373891779,1.6869229400243575,-5.339669062267434,-0.6345806953738644
6.92801018468405,2.5456313126608756,0.6553467667894215,1.680577133070619,-5.71009343033648,-0.33086099823555415
6.953466497810658,2.488530378357511,0.6721525381201277,1.6772685230882634,-6.0565977140669505,-0.057184914266764676
6.978351801594234,2.4279644012168413,0.6889252233510103,1.6766966739455957,-6.378333762519547,0.1850642615955481
7.002631445606402,2.364181063591646,0.7056921900904662,1.6785473165615512,-6.674835193163604,0.3951807251319641
7.026273256242318,2.29743271166001,0.7224776632560818,1.6824991238128708,-6.945990356935483,0.5730879830429727
7.049247583358918,2.227972808090655,0.7393026544942105,1.6882300036433004,-7.192005799607568,0.719272932332983
7.071527311439825,2.1560527500945796,0.7561849545306435,1.6954227329666303,-7.413363316197936,0.8347076523822904
7.093087838940771,2.0819191169326,0.7731391818603098,1.7037698094904532,-7.610773621247537,0.9207642760029245
7.113907030110097,2.0058113807201248,0.7901768799552144,1.7129774522504824,-7.785129338285628,0.9791278043916545
7.133965143917298,1.9279600873372684,0.8073066544777192,1.7227687302943988,-7.937459533228349,1.0117109527687382
7.153244744790671,1.848585492004985,0.8245343417806632,1.732885839822086,-8.068887464379152,1.0205741961809096
7.17173059971072,1.7678966173611934,0.841863200178884,1.7430915817838952,-8.180592668912109,1.0078532473853938
7.189409565884333,1.6860906906720723,0.859294115996723,1.7531701142577492,-8.273778005833972,0.9756953307343383
7.206270472791053,1.6033529106137325,0.8768258171393005,1.7629270675650925,-8.349641861370513,0.9262048752835143
7.222304001897191,1.5198564920000275,0.8944550878149514,1.7721891163179277,-8.409355408793797,0.861398665227498
7.2375025668171915,1.4357629379120895,0.9121769789781307,1.7808031029702027,-8.454044600574356,0.7831700608717482
7.251860196196312,1.351222491906346,0.9299850100078327,1.7886348035789201,-8.48477644613971,0.6932616267469939
7.265372421115376,1.2663747274449488,0.947871358043622,1.79556741984639,-8.502549077569421,0.5932453532666216
7.278036168389825,1.1813492366692546,0.9658270322420859,1.8014998733790561,-8.508285110245257,0.4845096081595225
7.289849660756517,1.096266385566802,0.9838420309758764,1.8063449694606515,-8.502827848079697,0.368251976860293
7.300812324612186,1.011238107086005,1.001905480670483,1.8100274892292545,-8.486939947491882,0.24547722209897194
7.310924705683045,0.9263687076110863,1.0200057555627755,1.8124822614502443,-8.461304227242609,0.11699969027777604
7.320188392759156,0.8417556653386602,1.038130578177278,1.8136522583530221,-8.42652638161755,-0.01655040236519186
7.328605949412542,0.7574904015224847,1.0562671007608082,1.8134867543293702,-8.383139413745301,-0.15471727199914462
7.336180853427766,0.6736590073850317,1.074401968304102,1.8119395816093788,-8.331609647743862,-0.2972068452458221
7.342917443501617,0.590342910907593,1.0925213641201958,1.8089675131569207,-8.272344198596976,-0.44387134601404715
7.348820872610693,0.5076194689216234,1.110611039251765,1.8045287996967803,-8.205699774778898,-0.5946915015786308
7.3538970672999096,0.4255624711738344,1.1286563272487327,1.798581884680994,-8.13199266026049,-0.7497566901972784
7.358152692011648,0.3442425445712295,1.1466421460955425,1.7910843177790212,-8.05150967139316,-0.9092433980156365
7.36159511745736,0.26372744785729785,1.1645529892733326,1.7819918837988649,-7.964519814423879,-1.0733924277475084
7.364232391935933,0.18408224971305906,1.1823729081113212,1.7712579595213898,-7.871286287747427,-1.2424853974394812
7.366073214433063,0.10536938683558479,1.2000854877065352,1.758833105546995,-7.7720783886677545,-1.4168211725010784
7.367126908301419,0.02764860294890724,1.217673818762005,1.7446648938219842,-7.667182808750534,-1.5966929727179955
7.367403394330908,-0.049023225138598095,1.235120467700225,1.7286979640948041,-7.556913747398249,-1.782366970563801
7.366913162079522,-0.12459236261258058,1.252407447341173,1.7108742943891662,-7.441621252571599,-1.9740632298157745
7.365667238453396,-0.19900857513829656,1.2695161902850647,1.6911336620910085,-7.321697221268389,-2.1719398083777013
7.363677152702013,-0.2722255473509805,1.2864275269059748,1.6694142640072314,-7.197578567298151,-2.376080755297207
7.360954897228503,-0.344201333023962,1.3031216695460472,1.6456534564542593,-7.069747191292633,-2.5864885657049044
7.357512883898263,-0.41489880493688835,1.31957820411059,1.6197885707972102,-6.9387265621611,-2.8030814246467055
7.353363895848894,-0.48428607055849937,1.335776089818562,1.591757756550743,-6.805074927621328,-3.025695287346314
7.348521035143309,-0.5523368198347126,1.3516936673840694,1.56150080367728,-6.669375395157768,-3.2540905339995643
7.342997666944961,-0.6190305737862903,1.3673086754208421,1.5289598983372843,-6.532223340986452,-3.4879626324554587
7.336807361207098,-0.6843528071961549,1.382598274404215,1.4940802720127297,-6.394211789791678,-3.7269559745183245
7.329963833135137,-0.7482949250940717,1.397539077124342,1.4568107122675464,-6.255915541410107,-3.9706798503932905
7.322480883884197,-0.8108540805081728,1.4121071842470176,1.4171039137636134,-6.117874887657494,-4.218725412491798
7.314372343079115,-0.8720328293847477,1.4262782233846538,1.3749166596386955,-5.980579756921841,-4.470682464795881
7.3056520147852675,-0.9318386269539661,1.4400273899810407,1.3302098349907368,-5.844455049047981,-4.726154995110039
7.296333628515728,-0.9902831774444459,1.4533294883309482,1.2829482850396363,-5.709847789956398,-4.984774530981023
7.286430796741284,-1.0473816553440098,1.4661589711813445,1.233100539729826,-5.577016562221426,-5.246210623088337
7.275956980187844,-1.103151820966224,1.4784899765786428,1.1806384334989426,-5.4461234755704915,-5.510178014874936
7.264925461978182,-1.157613055721929,1.4902963609136322,1.1255366533501932,-5.317228751006989,-5.776440316012203
7.253349331420963,-1.210785343231999,1.5015517274471342,1.067772250190071,-5.190287822155226,-6.044810235353306
7.241241477988643,-1.2626882214535513,1.512229449949035,1.007324147836538,-5.0651507207415065,-6.315146627950385
7.228614595774108,-1.3133397286609663,1.5223026914274003,0.9441726815570342,-4.941563417338227,-6.587348759710344
7.215481198487498,-1.3627553628343485,1.5317444182429707,0.8782991939599307,-4.819170735428007,-6.861348289093994
7.201853644859154,-1.4109470701886286,1.5405274101825701,0.8096857110689908,-4.697520443576642,-7.137099511065227
7.187744174157268,-1.4579222746243952,1.54862426729326,0.7383147159583385,-4.576068150765835,-7.414568412005629
7.173164951411024,-1.5036829561320535,1.5560074144528433,0.6641690318382822,-4.454182675608803,-7.693721055851044
7.158128121849703,-1.5482247828881415,1.562649104771226,0.5872318212797718,-4.331151622641228,-7.9745117723615095
7.142645874020822,-1.5915362991145539,1.5685214229840239,0.5074867035561567,-4.206186970095453,-8.256871558595277
7.126730511029677,-1.6335981688155083,1.5735962900195855,0.42491798797020386,-4.078430546709754,-8.540697043061696
7.110394529341521,-1.674382474282606,1.5778454698992874,0.3395110175395869,-3.946959344932147,-8.82584030528045
7.093650704598695,-1.7138520677319273,1.5812405800746834,0.2512526144867824,-3.8107906806624023,-9.112099795942136
7.076512183921376,-1.7519599745385515,1.5837531062195511,0.16013161652736102,-3.6688872631538643,-9.399212566846991
7.05899258417599,-1.78864884717009,1.5853544223848248,0.0661394908588911,-3.52016228170567,-9.686847995853261
7.041106095704289,-1.8238504699871467,1.5860158172934138,-0.030728989099641515,-3.3634846479499383,-9.974603179398102
7.022867591004418,-1.857485316466646,1.5857085274024174,-0.13047502089362253,-3.1976845540054923,-10.262000161989244
7.0042927378397515,-1.889462162006701,1.5844037771934811,-0.233095022513515,-3.021559517896906,-10.548485175982133
6.9853981162196845,-1.91967775718567,1.582072826968346,-0.33857987427333636,-2.8338810888440777,-10.833430073148003
6.966201338647828,-1.9480165680741108,1.5786870282256127,-0.4469141750048164,-2.6334023766690655,-11.116136139005532
6.946721172967087,-1.9743505918408015,1.5742178864755645,-0.5580755363948717,-2.4188665518856878,-11.39584048858769
6.926977667048679,-1.9985392573596583,1.5686371311116158,-0.6720339412807487,-2.189016436174914,-11.671725245250979
6.9069922744750825,-2.0204294217214076,1.5619167916988084,-0.7887511937332584,-1.942605267007947,-11.942929699439466
6.886787980257869,-2.039855474391487,1.5540292797614759,-0.9081804907276531,-1.6784086753306402,-12.208565629306824
6.866389425513954,-2.0566395611447934,1.5449474748541994,-1.0302661470207213,-1.3952378618531958,-12.467735937339016
6.845823029902506,-2.0705919397633252,1.534644813383992,-1.1549435063941114,-1.091953896373906,-12.719556714463605
6.8251171105048725,-2.081511478727064,1.523095378320051,-1.2821390735387475,-0.7674829970789633,-12.963182783780349
6.804301995717601,-2.0891863086978537,1.5102739875846634,-1.411770901376551,-0.42083257510724914,-13.197836698567281
6.783410132630623,-2.0933946344489263,1.496156278570898,-1.5437492683622238,-0.051107757147486575,-13.4228410725198
6.762476186286134,-2.093905712020401,1.4807187858872757,-1.677977679087422,0.3424719698687444,-13.637654003423046
6.74153712916593,-2.0904809923217136,1.4639390090964015,-1.8143542191216524,0.7605564063892095,-13.841907213804374
6.720632319242712,-2.0828754282578217,1.445795466905185,-1.9527732912596962,1.2036490342957884,-14.03544637229577
6.699803564960134,-2.0708389379148637,1.426267733992588,-2.093127754982654,1.672092621273837,-14.218372875016934
6.6790951755809855,-2.0541180117021254,1.4053364564427615,-2.2353114837328234,2.16605646472295,-14.391086152482126
6.658553995463964,-2.0324574470548957,1.3829833416054333,-2.3792223452576446,2.6855256066327877,-14.554325315413719
6.638229420993415,-2.0056021909885677,1.3591911181528569,-2.524765598411782,3.2302921655438364,-14.70920864669082
6.618173399083529,-1.9732992693331293,1.3339434621687392,-2.67185768487869,3.7999486268829012,-14.857269060079979
6.598440406390198,-1.9352997830643002,1.3072248853199522,-2.8204303754794897,4.393882465827748,-15.000483136744405
6.579087408559555,-1.8913609584060227,1.2790205815651572,-2.970435206846934,5.011270789287649,-15.14129065097539
6.560173798975495,-1.8412482505131462,1.2493162294966877,-3.121848113356688,5.651072695311085,-15.28260050488395
6.541761316470364,-1.7847375235600353,1.2180977483631208,-3.2746741184055277,6.312015646998569,-15.427777554606983
6.523913941234763,-1.7216173670900496,1.1853510071790656,-3.4289518939515977,6.992570185771232,-15.580602702040363
6.506697767563863,-1.6516916652323372,1.1510614882395496,-3.5847579209720015,7.690904543254904,-15.745195519222595
6.49018085091154,-1.5747826197997883,1.1152139090298296,-3.7422098761642273,8.404806842258417,-15.925884103252008
6.474433024713542,-1.4907345513772041,1.0777918102681874,-3.9014687171967473,9.131557183198032,-16.127000186723286
6.4595256791997695,-1.3994189795452239,1.03877712309622,-4.06273871906398,9.867724441131518,-16.352567900171092
6.445531489404317,-1.3007417351339088,0.9981497359055801,-4.226264398065691,10.6088523835776,-16.60584094063098
6.432524072052978,-1.1946532112981327,0.9558870919249232,-4.392322807472001,11.348986080545076,-16.88862409424946
6.4205775399399965,-1.081163350492682,0.9119638638502031,-4.561209048414496,12.079972130330093,-17.2002902334152
6.409765906435069,-0.9603636291893811,0.8663517733660582,-4.7332119507486485,12.790445630348875,-17.536373474304533
6.400162270143175,-0.8324591728858923,0.8190196538585717,-4.9085756854916935,13.464396443488816,-17.886587022601237
6.3918376784143165,-0.6978152084510042,0.7699338970036548,-5.087441555717706,14.079196535305122,-18.232092210655267
6.384859526329806,-0.5570232430979529,0.7190594814464777,-5.269762477824258,14.60299053640047,-18.541861597583875
6.379289293898826,-0.4109933377339482,0.6663618566682351,-5.455181093800097,14.991446928422732,-18.768092369088638
6.375179360521487,-0.26107886844972084,0.6118100457302341,-5.642862017490984,15.18411609575398,-18.84094396524239
6.3725685718369895,-0.10923770749218104,0.5553814255553243,-5.831271457143408,15.101164568927947,-18.663563068461897
6.371476194762068,0.04177393819709843,0.49706871098389027,-6.017907087828027,14.64218611890191,-18.109610777454296
6.3718939341440395,0.18819579938611752,0.43688964010561,-6.19900319560257,13.690145814356294,-17.027359538815972
6.373775892137901,0.32509725752968044,0.3748996081495843,-6.36927679099073,12.1248583792823,-15.256314627897215
6.377026864713198,0.44634584132250343,0.311206840239677,-6.521839937269702,9.850327223575427,-12.662339567972356
6.381490323126423,0.5448491135582577,0.24598844086697996,-6.648463332949425,6.836190679738526,-9.191906532680889
6.386938814262005,0.613211020355643,0.1795038075374857,-6.740382398276234,3.16327895150657,-4.932370135315774
6.393070924465562,0.6448438098707087,0.11209998355472338,-6.789706099629392,-0.9501407171296172,-0.14706281451907363
6.399519362564269,0.6353424026994124,0.04420292255842946,-6.791176727774582,-5.169064104283884,4.751666492896333
6.405872786591263,0.5836517616565736,-0.023708844719316363,-6.743660062845619,-9.117535560731293,9.302023736871298
6.411709304207829,0.4924764060492607,-0.09114544534777255,-6.6506398254769055,-12.479931921392312,13.124872115152316
6.416634068268322,0.36767708683533756,-0.1576518436025416,-6.519391104325383,-15.075546743438856,16.01869255435931
6.420310839136675,0.216921619400949,-0.22284575464579542,-6.3592041787817895,-16.87293530981801,17.973930045087094
6.422480055330685,0.04819226630276888,-0.28643779643361333,-6.1794648783309185,-17.952281705694222,19.119618577491
6.422961977993713,-0.13133055075417335,-0.34823244521692254,-5.988268692556009,-18.44911979093884,19.647726777904154
6.421648672486171,-0.3158217486635618,-0.40811513214248263,-5.791791424776967,-18.5077664788668,19.75259823260794
6.418490454999535,-0.5008994134522298,-0.4660330463902523,-5.5942654424508875,-18.254758764806535,19.598031676522545
6.413481460865013,-0.6834470011002951,-0.5219757008147612,-5.398285125685662,-17.789370749503068,19.307079737130795
6.40664699085401,-0.8613407085953257,-0.5759585520716178,-5.205214328314354,-17.18417966853274,18.964684336516513
6.398033583768057,-1.0331825052806531,-0.6280106953547614,-5.015567484949189,-16.489834210416305,18.62527057115318
6.3877017587152505,-1.1980808473848161,-0.6781663702042533,-4.829314779237658,-15.740627725220795,18.32089445491869
6.375720950241402,-1.3554871246370241,-0.7264595179966299,-4.646105834688471,-14.959382947955039,18.06812713119436
6.362166078995032,-1.5050809541165746,-0.7729205763435146,-4.465424563376527,-14.161225447385009,17.873260181265064
6.347115269453866,-1.6466932085904247,-0.8175748219772799,-4.286691961563877,-13.356299051665177,17.736006765845357
6.330648337367962,-1.7802561991070764,-0.8604417415929186,-4.1093318939054235,-12.551631471839618,17.652039924027708
6.312845775376891,-1.9057725138254726,-0.9015350605319729,-3.9328114946651462,-11.752371121535493,17.614697187500976
6.2937880502386365,-2.0232962250408275,-0.9408631754786243,-3.7566645227901363,-10.962579505432508,17.616112657977528
6.273555087988228,-2.1329220200951524,-0.9784298207065256,-3.580503396210361,-10.185718229191602,17.647965500744647
6.252225867787277,-2.2347792023870685,-1.0142348546686293,-3.4040237412029146,-9.424930325291491,17.701974529506508
6.2298780757634065,-2.3290285056399833,-1.0482750920806585,-3.2270039959078494,-8.68318553154187,17.77022487799065
6.206587790707006,-2.415860360955402,-1.080545132039737,-3.049301747127943,-7.963337569906358,17.84538240527323
6.182429187097452,-2.4954937366544656,-1.1110381495110164,-2.8708479230752104,-7.268126426697351,17.92083117249737
6.157474249730908,-2.568175000921439,-1.1397466287417686,-2.6916396113502365,-6.6001482656145845,17.990756117377554
6.131792499721693,-2.6341764835775847,-1.166663024855271,-2.511732050176461,-5.961808440014474,18.05018467797173
6.105450734885918,-2.6937945679777293,-1.1917803453570355,-2.3312302033967436,-5.355268050921702,18.094995953038023
6.07851278920614,-2.747347248486946,-1.2150926473910029,-2.1502802438663635,-4.7823909000399425,18.121902902735293
6.051039316721271,-2.7951711574873457,-1.2365954498296665,-1.9690612148390105,-4.244695036594563,18.128411317662838
6.023087605146397,-2.837618107853291,-1.2562860619780567,-1.7877771016623822,-3.7433110878931144,18.112758292432932
5.994711424067864,-2.875051218732222,-1.2741638329946805,-1.606649518738053,-3.2789480036219705,18.073832380053442
5.965960911880542,-2.907840698768442,-1.290230328182061,-1.4259111949375185,-2.85186561316757,18.01107724270873
5.936882504892857,-2.9363593549001177,-1.3044894401314362,-1.245800422510431,-2.4618524191493587,17.92438030548046
5.907518911343856,-2.9609778790916113,-1.3169474443565405,-1.0665566194556264,-2.1082062830895514,17.81394757787601
5.87790913255294,-2.9820599419225067,-1.3276130105510968,-0.8884171436768663,-1.7897150749393156,17.68016540006216
5.848088533133715,-2.9999570926718997,-1.3364971819878655,-0.7116154896762447,-1.5046339490827627,17.523449407806233
