th1 (rad),w1 (rad/s),th2 (rad),w2 (rad/s),a1 (rad/s^2),a2 (rad/s^2)
5.540052959580215,-3.0120003931308443,6.278982913072979,1.2025490094343851,12.879299205888902,-15.589127755547464
5.509932955648906,-2.8832074010719553,6.291008403167323,1.0466577318789105,12.483941574931727,-14.794854508278092
5.481100881638186,-2.758367985322638,6.3014749804861125,0.8987091867961297,12.115442342915381,-14.006259296922266
5.45351720178496,-2.637213561893484,6.310462072354074,0.758646593826907,11.780666761147177,-13.237495591937947
5.427145066166025,-2.5194068942820125,6.318048538292343,0.6262716379075275,11.48237105216719,-12.496669915175646
5.401950997223205,-2.4045831837603404,6.324311254671419,0.501304938755771,11.220720843999594,-11.788009630462865
5.377905165385601,-2.2923759753203443,6.329324304058977,0.38342484245114233,10.994316212907782,-11.113333891989571
5.354981405632398,-2.1824328131912667,6.333158552483488,0.27229150353124665,10.80086921395568,-10.473029793480475
5.333157077500486,-2.07442412105171,6.335881467518801,0.1675612055964419,10.637643832822967,-9.866687492105479
5.312412836289969,-1.9680476827234803,6.337557079574766,0.0688943306753871,10.501736729197924,-9.293504893493074
5.292732359462734,-1.863030315431501,6.33824602288152,-0.02404071825954364,10.390252814027512,-8.752538840093719
5.274102056308419,-1.7591277872912259,6.338005615698925,-0.11156610666048082,10.300412146905296,-8.24285526906558
5.256510778435507,-1.656123665822173,6.33688995463232,-0.19399465935113663,10.229612440144274,-7.763613669056059
5.2399495417772854,-1.5538275414207303,6.334950008038809,-0.2716307960416972,10.175463172529362,-7.314109435428904
5.224411266363078,-1.4520729096954368,6.332233700078392,-0.34477189039598627,10.135801774774123,-6.893789802340042
5.209890537266124,-1.3507148919476957,6.328785981174432,-0.4137097884193867,10.108698680158417,-6.50225372275259
5.196383388346646,-1.2496279051461114,6.324648883290238,-0.4787323256469126,10.092455623715267,-6.139242526418765
5.183887109295185,-1.1487033489089589,6.319861560033769,-0.5401247509111002,10.085600000548942,-5.804625827543171
5.172400075806095,-1.0478473489034694,6.314460312524658,-0.598171009186532,10.086877074365619,-5.498385583656402
5.161921602317061,-0.9469785781598132,6.308478602432793,-0.653154865023096,10.095241171386592,-5.220600161070619
5.1524518165354625,-0.8460261664459473,6.301947053782562,-0.7053608666338023,10.109846576499052,-4.971429564409267
5.143991554871003,-0.7449277006809568,6.294893445116224,-0.755075162277895,10.130038584314216,-4.751102521381974
5.136542277864193,-0.6436273148378147,6.287342693493445,-0.8025861874917147,10.155344992463675,-4.559905801580515
5.130106004715815,-0.5420738649131779,6.2793168316185275,-0.8481852455075198,10.185468221256196,-4.398175937653035
5.124685266066683,-0.44021918270061594,6.270834979163452,-0.8921670048840502,10.22027817816203,-4.2662933735327755
5.120283074239676,-0.33801640091899565,6.261913309114612,-0.9348299386193779,10.25980594072983,-4.164678962901522
5.116902910230486,-0.23541834151169735,6.252565009728418,-0.9764767282483932,10.304238295573825,-4.093792663782976
5.114548726815369,-0.1323759585559591,6.2428002424459335,-1.0174146548862228,10.353913134860143,-4.054134207794367
5.113224967229809,-0.028836827207357668,6.232626095897071,-1.0579559969641665,10.40931566730898,-4.046245452339303
5.112936598957735,0.07525632946573214,6.222046535927429,-1.0984184514875595,10.471075339980107,-4.070714037761342
5.113689162252393,0.1799670828655332,6.211062351412553,-1.1391255918651728,10.539963280416513,-4.128177853927613
5.115488833081048,0.28536671566969835,6.199671095493902,-1.1804073704044489,10.61688994355284,-4.219329652474481
5.118342500237745,0.3915356151052267,6.187867021789858,-1.2226006669291938,10.702902466896461,-4.344920895993148
5.122257856388797,0.4985646397741913,6.175641015120566,-1.2660498758891252,10.799180976506271,-4.505763577786127
5.127243502786539,0.606556449539254,6.162980516361674,-1.3111075116669866,10.907032710539855,-4.702728225029686
5.133309067281931,0.7156267766446526,6.149869441245005,-1.3581347939172834,11.027882287149115,-4.936735543060483
5.140465335048377,0.8259055995161437,6.136288093305832,-1.4075021493478883,11.163255668980325,-5.2087380686820595
5.1487243910435385,0.9375381562059469,6.122213071812353,-1.4595895300347088,11.314754268279708,-5.519686634945445
5.158099772605598,1.050685698888744,6.107617176512006,-1.5147863963841632,11.484014056229999,-5.870474212950836
5.1686066295944855,1.1655258394510442,6.092469312548165,-1.5734911385136716,11.672642297944725,-6.261846520151711
5.180261887988996,1.2822522624304913,6.076734401163028,-1.6361096037151888,11.882121377561534,-6.694264313338213
5.1930844106133005,1.4010734762061066,6.060373305125876,-1.703052246848571,12.113664783692567,-7.167696065248012
5.207095145375361,1.5222101240430321,6.04334278265739,-1.774729207501051,12.36800431511153,-7.681311226279083
5.222317246615791,1.6458901671941475,6.02559549058238,-1.8515423197638419,12.645079565030223,-8.233032975933424
5.238776148287733,1.7723409628444498,6.0070800673847415,-1.9338726495231762,12.94359054546139,-8.818894997709016
5.256499557916177,1.9017768682990637,5.98774134088951,-2.022061599500266,13.260362272137144,-9.432129883516971
5.275517326599168,2.034380491020435,5.9675207248945075,-2.116382898335436,13.589457954280988,-10.061899735487696
5.295861131509373,2.1702750705632448,5.946356895911153,-2.217001895690313,13.92096973514452,-10.691568946999691
5.317563882215005,2.30948476791469,5.92418687695425,-2.3239175851603098,14.23942295901707,-11.29642955615421
5.340658729894152,2.4518789975048607,5.900947701102647,-2.436881880721852,14.52177187460068,-11.840849563906875
5.3651775198692,2.5970967162508676,5.876578882295429,-2.555290376360921,14.735077011256072,-12.274974444300886
5.391148487031709,2.7444474863634283,5.85102597853182,-2.6780401208039297,14.834191166255243,-12.531448155829658
5.418592961895343,2.8927893980259807,5.82424557732378,-2.8033546023622264,14.760205144095314,-12.52322166512595
5.447520855875603,3.040391449466934,5.796212031300158,-2.928586819013486,14.441043431023484,-12.144423196674925
5.477924770370272,3.184801883777169,5.766926163110023,-3.0500310509802353,13.796330087818664,-11.277300559844907
5.509772789208044,3.3227651846553554,5.73642585260022,-3.1628040565786844,12.748993413283317,-9.808744019658057
5.543000441054597,3.4502551187881885,5.704797812034434,-3.260891496775265,11.245063583013046,-7.658471634201799
5.577502992242479,3.5627057546183187,5.672188897066681,-3.337476213117283,9.279552848581705,-4.815925410369531
5.613130049788662,3.655501283104136,5.638814134935508,-3.3856354672209785,6.920162420768454,-1.374231681102163
5.649685062619703,3.7247029073118205,5.604957780263298,-3.399377784032,4.315089574643402,2.458194409771204
5.686932091692821,3.7678538030582547,5.570964002422978,-3.374795839934288,1.6729834083482025,6.385396447391421
5.724610629723403,3.7845836371417367,5.537216044023635,-3.310941875460374,-0.7838365118859824,10.089601585714608
5.762456466094821,3.776745272022877,5.504106625269031,-3.210045859603228,-2.874224083032169,13.308748874888824
5.80022391881505,3.7480030311925554,5.472006166672999,-3.07695837085434,-4.495713300569092,15.890012304347632
5.8377039491269755,3.7030458981868644,5.441236582964456,-2.9180582478108636,-5.630747834788627,17.799478812718082
5.874734408108845,3.6467384198389783,5.412056000486348,-2.740063459683683,-6.326801312982714,19.094986755219008
5.911201792307234,3.583470406709151,5.384655365889511,-2.549113592131493,-6.66633772037203,19.88439042542637
5.947036496374325,3.5168070295054306,5.359164229968196,-2.3502696878772293,-6.740540130624236,20.2888145513432
5.982204566669379,3.449401628199188,5.335661533089424,-2.147381542363797,-6.632774453309341,20.41936604345642
6.0166985829513715,3.383073883666095,5.314187717665786,-1.943187881929233,-6.411293177659963,20.366713524118587
6.050529321788033,3.3189609518894954,5.294755838846494,-1.7395207466880471,-6.12806932589556,20.19924981795613
6.083718931306928,3.25768025863054,5.277360631379613,-1.5375282485084858,-5.820706571901797,19.965596707228293
6.116295733893233,3.1994731929115217,5.2619853488945285,-1.3378722814362027,-5.515378586516782,19.69859783265779
6.148290465822349,3.144319407046354,5.248606626080167,-1.1408863031096248,-5.229724044286241,19.419295662776797
6.179733659892812,3.0920221666034915,5.23719776304907,-0.9466933464818568,-4.975266878229144,19.14028358126318
6.210653881558847,3.0422694978212,5.227730829584251,-0.7552905106692249,-4.759272652764141,18.86830072132583
6.241076576537059,2.9946767712935585,5.220177924477559,-0.5666075034559666,-4.586099302054091,18.60614407846153
6.271023344249994,2.9488157782730178,5.214511849442999,-0.38054606267135127,-4.458145311157673,18.35403630080463
6.300511502032725,2.904234325161441,5.210706388816286,-0.19700569966330497,-4.376497391470414,18.110587177397704
6.329553845284339,2.8604693512467367,5.208736331819653,-0.015899827889327922,-4.341362498844941,17.8734635665932
6.358158538796807,2.817055726258287,5.2085773335407595,0.16283480777660406,-4.35234917072214,17.639855218214
6.38632909605939,2.7735322345510656,5.210205681618525,0.33923335995874404,-4.408645767112171,17.406799903146357
6.414064418404901,2.729445776879944,5.213598015218113,0.5133013589902076,-4.509129598868008,17.171412376386627
6.4413588761737,2.684354480891264,5.2187310288080155,0.6850154827540739,-4.652430889689605,16.93104771697433
6.468202420982613,2.637830171994368,5.225581183635557,0.8543259599238172,-4.836968348389101,16.683419593667
6.4945807227025565,2.5894604885104773,5.234124443234795,1.0211601558604873,-5.060968094998386,16.42668702401626
6.520475327587661,2.538850807560493,5.2443360447934,1.1854270261006499,-5.322474175217007,16.15951840446423
6.545863835663266,2.485626065808323,5.256190315054407,1.3470222101452922,-5.619356444645109,15.881138360579172
6.57072009632135,2.429432501361872,5.269660537155859,1.5058335937510838,-5.949319868482585,15.591360840703334
6.595014421334969,2.369939302677046,5.28471887309337,1.6617472021581172,-6.3099180267523804,15.290610527122377
6.6187138143617394,2.3068401224095223,5.301336345114951,1.814653307429341,-6.698572677796244,14.979933837244612
6.641782215585835,2.2398543956315597,5.319482878189245,1.964452645801787,-7.112600505995613,14.661000371832897
6.66418075954215,2.1687283905716037,5.339127404647263,2.111062649520116,-7.549247593535195,14.336095522828277
6.685868043447866,2.0932359146362516,5.3602380311424636,2.2544236047483985,-8.00573166688443,14.008104995176701
6.7068004025942285,2.0131785979674075,5.382782267189947,2.3945046547001656,-8.479291750472505,13.680492160576184
6.726932188573903,1.9283856804626824,5.4067273137369485,2.5313095763059277,-8.967244497956997,13.35726939366921
6.74621604537853,1.8387132354831124,5.432040409500008,2.66488227024262,-9.467046156886768,13.042964797048748
6.764603177733361,1.7440427739142448,5.458689232202434,2.795311918213107,-9.976358848519828,12.74258595693229
6.782043605472503,1.6442791854290464,5.486642351384565,2.92273777778243,-10.493119601439608,12.461582541052893
6.798486397326793,1.5393479894146502,5.5158697291623895,3.047353603192959,-11.015610347959923,12.205809602218892
6.8138798772209395,1.429191885935051,5.546343265194319,3.1694116992151478,-11.54252684434312,11.981493320051172
6.82817179608029,1.3137666174916198,5.578037382186471,3.2892266324156596,-12.073044154565709,11.795200511639479
6.841309462255206,1.1930361759459627,5.610929648510628,3.4071786375320543,-12.606875851644206,11.653812442676184
6.853239824014666,1.0669674174295207,5.645001434885948,3.5237167619588163,-13.144323293976644,11.564502083619267
6.863909498188961,0.9355241844897543,5.680238602505536,3.639361782795009,-13.68630999575089,11.534711685981703
6.873264740033858,0.7986610845322454,5.716632220333486,3.754708899654826,-14.234393869320206,11.57212393890154
6.881251350879181,0.6563171458390433,5.754179309330034,3.8704301390438416,-14.79074641271565,11.6846142734769
6.887814522337571,0.5084096817118868,5.792883610720472,3.9872762817786107,-15.358081879104283,11.880162955028746
6.89289861915469,0.35482886292084403,5.832756373538258,4.1060779113288985,-15.939509761480673,12.166691626382262
6.896446907783899,0.1954337653060373,5.873817152651547,4.227744827592721,-16.53826852415064,12.551767130455126
6.898401245436959,0.03005108006453086,5.916094600927474,4.353262498897272,-17.15727439189165,13.042081508353283
6.898701756237605,-0.14152166385438564,5.959627225916447,4.483683313980805,-17.79838185997053,13.64256490404804
6.897286539599061,-0.31950548245409094,6.004464059056255,4.620108963021285,-18.461196756613138,14.354909504073282
6.89409148477452,-0.5041174500202223,6.050665148686467,4.763658058062018,-19.141202039781742,15.17516839253932
6.8890503102743175,-0.6955294704180398,6.098301729267087,4.915409741987411,-19.826848015223288,16.08993784785081
6.882095015570137,-0.8937979505702727,6.1474558266869614,5.076309120465919,-20.49513283622313,17.070447610541596
6.873157036064434,-1.098749278932504,6.19821891789162,5.247013596571335,-21.105105946617982,18.06373705678745
6.862169543275109,-1.3098003383986838,6.250689053857333,5.4276509671392095,-21.58881244727998,18.980184122492716
6.849071539891122,-1.5256884628714835,6.304965563528725,5.617452808364137,-21.839806028936696,19.677454189641125
6.833814655262407,-1.7440865231608504,6.361140091612366,5.8142273502605475,-21.701173130509645,19.943394311767634
6.816373790030799,-1.961098254465947,6.419282365114972,6.013661293378224,-20.959039920430474,19.485931236001274
6.7967628074861395,-2.170688653670252,6.479418978048754,6.2085206057382365,-19.35435240690807,17.947489259270196
6.775055920949437,-2.3642321777393325,6.541504184106136,6.387995498330938,-16.6327464444006,14.97133541507845
6.751413599172044,-2.5305596421833383,6.605384139089446,6.537708852481723,-12.64888033349445,10.342867700141175
6.726108002750211,-2.657048445518283,6.670761227614263,6.641137529483134,-7.508789323344245,4.183971722390109
6.699537518295028,-2.732136338751725,6.737172602909094,6.682977246707035,-1.6685037377332905,-2.9113548034747807
6.6722161549075105,-2.748821376129058,6.8040023753761645,6.653863698672287,4.130746525809217,-9.964199702488834
6.64472794114622,-2.707513910870966,6.870541012362887,6.554221701647399,9.120679486269701,-15.961233182358123
6.617652802037511,-2.6163071160082687,6.936083229379361,6.394609369823818,12.80254256665937,-20.255370106244193
6.591489730877428,-2.488281690341675,7.000029323077599,6.192055668761376,15.071833542749268,-22.72984924305351
6.566606913974011,-2.3375633549141823,7.061949879765213,5.964757176330841,16.127908985305,-23.670270807467087
6.54323128042487,-2.1762842650611325,7.121597451528522,5.72805446825617,16.296454862887717,-23.522138156050445
6.521468437774258,-2.0133197164322554,7.178877996211083,5.492833086695666,15.892541879423728,-22.707416014112717
6.501335240609936,-1.854394297638018,7.23380632707804,5.265758926554539,15.16031619550052,-21.546614948068832
6.482791297633556,-1.702791135683013,7.286463916343585,5.05029277707385,14.266003651817263,-20.252677374780095
6.465763386276725,-1.5601310991648403,7.336966844114324,4.84776600332605,13.313208174854902,-18.953855202180044
6.450162075285077,-1.4269990174162912,7.385444504147584,4.658227451304249,12.361958028492383,-17.72056915292889
6.435892085110914,-1.3033794371313674,7.432026778660626,4.48102175977496,11.444364142365444,-16.58696685048042
6.4228582907396,-1.188935795707713,7.476836996258376,4.315152091270156,10.575612621603545,-15.565784643114595
6.410968932782523,-1.0831796694916775,7.519988517171077,4.15949424483901,9.761081879269865,-14.657799344834874
6.400137136087606,-0.9855688506989789,7.5615834596194675,4.012916251390661,9.000736473606507,-13.857546780560519
6.390281447580616,-0.8955614859629139,7.601712622133374,3.8743407835850556,8.291754031890978,-13.156656981238354
6.381325832720987,-0.8126439456440041,7.640456029969225,3.7427742137726723,7.630054709363978,-12.545733684018773
6.373199393264547,-0.7363433985503643,7.677883772106951,3.6173168769324846,7.0111665917396735,-12.015369784298933
6.365835959279043,-0.6662317326329676,7.714056940876276,3.4971631790894953,6.430696378021129,-11.556661142700019
6.359173641952713,-0.6019247688527564,7.749028572667171,3.381596567662495,5.884568920422187,-11.1614354791479
6.353154394264186,-0.5430790796485345,7.782844538343795,3.2699822128710156,5.36913360972145,-10.822323910113232
6.3477236034677,-0.48938774355132003,7.815544360472505,3.1617589737698832,4.8811957565258925,-10.532749220336068
6.342829726032186,-0.4405757859860611,7.847161950210204,3.0564314815665226,4.418007197479015,-10.286873301591296
6.338423968172326,-0.396395714011271,7.877726265025869,2.9535627485506097,3.9772360859998788,-10.07952760171503
6.334460011032213,-0.3566233531512722,7.907261892511375,2.8527674725334595,3.5569273535200567,-9.906139591877377
6.330893777500701,-0.32105407961607163,7.93578956723671,2.753706076614686,3.155460317034994,-9.762661999210918
6.32768323670454,-0.2894994764457217,7.963326628002856,2.6560794566225767,2.771506963444954,-9.645507979527103
6.324788241940083,-0.2617844068112722,7.989887422569082,2.5596243768273057,2.4039927248443966,-9.551493407054025
6.32217039787197,-0.2377444795628282,8.015483666337355,2.4641094427567656,2.0520605726022847,-9.477786378096457
6.319792953076342,-0.21722387383680536,8.040124760764922,2.369331578975801,1.7150387036882684,-9.421863476306012
6.3176207143379735,-0.20007348679992268,8.06381807655468,2.275112944212741,1.3924117921197414,-9.381472101135978
6.315619979469974,-0.18614936887872527,8.086569205996808,2.181298223201381,1.0837956252360708,-9.354598084323078
6.313758485781187,-0.17531141262636457,8.108382188228822,2.08775224235815,0.7889148753478866,-9.339437833703089
6.312005371654923,-0.1674222638728857,8.129259710652404,1.9943578640211193,0.5075837345856566,-9.33437430396629
6.310331149016194,-0.16234642652702913,8.149203289292615,1.9010141209814564,0.23968914244380085,-9.337956174109795
6.308707684750924,-0.15994953510259113,8.16821343050243,1.8076345592403584,-0.014823651116164282,-9.348879696783403
6.307108189399898,-0.16009777161375277,8.186289776094833,1.7141457622725245,-0.2559634261809672,-9.36597276758595
6.305507211683761,-0.16265740587556243,8.20343123371756,1.620486034596665,-0.48370345742568593,-9.388180838678942
6.303880637625005,-0.1674944404498193,8.219636094063526,1.5266042262098756,-0.6979903053318535,-9.414554369114999
6.302205693220507,-0.1744743435031378,8.234902136325625,1.4324586825187255,-0.8987511207263078,-9.444237563566553
6.300460949785475,-0.18346185471040088,8.249226723150812,1.33801630688306,-1.0858996351355028,-9.476458201917847
6.2986263312383715,-0.19432085106175592,8.262606886219643,1.2432517248638815,-1.2593409969888252,-9.510518405045381
6.296683122727754,-0.20691426103164418,8.275039403468282,1.1481465408134277,-1.4189756026334366,-9.545786217825814
6.294613980117438,-0.22110401705797855,8.286520868876417,1.0526886786351697,-1.5647020611272682,-9.581687919806804
6.292402939946858,-0.23675103766925124,8.297047755662769,0.9568717994371017,-1.6964194225748663,-9.617700997887946
6.290035429570166,-0.2537152318949999,8.30661647365714,0.8606947894582222,-1.8140287911375788,-9.653347734585406
6.287498277251216,-0.2718555198063757,8.315223421551723,0.7641613121123682,-1.9174344356210777,-9.688189380743049
6.284779722053152,-0.29102986416258647,8.322865034672846,0.6672794183049376,-2.0065445026117175,-9.72182089358815
6.281869423411526,-0.31109530918870365,8.329537828855896,0.5700612093690561,-2.081271429434398,-9.75386623042421
6.278758470319639,-0.33190802348304765,8.335238440949587,0.472522547064814,-2.1415321467051944,-9.783974195544946
6.2754393900848084,-0.3533233449500996,8.339963666420235,0.3746828051093645,-2.187248152935661,-9.811814843601862
