th1 (rad),w1 (rad/s),th2 (rad),w2 (rad/s),a1 (rad/s^2),a2 (rad/s^2)
3.1249314978587677,2.8698443390058745,3.3777186076991756,-2.5742734937612637,1.040441126054428,-0.7746378468481645
3.1536299412488265,2.8802487502664187,3.351975872761563,-2.582019872229745,1.102957118354154,-0.6694294280859359
3.1824324287514907,2.89127832144996,3.3261556740392657,-2.5887141665106044,1.141708488109477,-0.5287915366969959
3.21134521196599,2.902695406331055,3.30026853237416,-2.594002081877574,1.1573815828608784,-0.3525511853911544
3.240372166029301,2.914269222159664,3.274328511555384,-2.5975275937314857,1.1525886348198127,-0.14326387156388404
3.2695148582508975,2.925795108507862,3.248353235618069,-2.5989602324471246,1.1318794880147884,0.09377710438391544
3.298772809335976,2.9371139033880103,3.2223636332935977,-2.5980224614032856,1.1014247270179538,0.3509972687609396
3.3281439483698563,2.94812815065819,3.196383408679565,-2.5945124887156763,1.0683997977795983,0.6194224367176787
3.357625229876438,2.958812148635986,3.170438283792408,-2.5883182643484997,1.0401891976760538,0.8898170857414993
3.387213351362798,2.9692140406127465,3.144555101148923,-2.5794200934910845,1.0235848624786252,1.1538334936202372
3.4169054917689254,2.9794498892375327,3.118760900214012,-2.5678817585548823,1.0241486489212583,1.4049310824848706
3.4466999906613007,2.9896913757267454,3.0930820826284635,-2.553832447730034,1.045849032699331,1.6389096614714938
3.4765969044185683,3.000149866053739,3.0675437581511633,-2.5374433511153187,1.090996096442267,1.8540218510245732
3.5065984030791055,3.0110598270181614,3.0421693246400103,-2.518903132605073,1.1604229321696218,2.050737494203036
3.536709001349287,3.0226640563398575,3.0169802933139596,-2.498395757663043,1.2538196745070491,2.2312923880421893
3.5669356419126856,3.035202253084928,2.991996335737329,-2.476082833782621,1.3701221467589826,2.399159963188142
3.597287664443535,3.048903474552518,2.967235507399503,-2.4520912341507395,1.5078789272248416,2.5585539350736872
3.6277766991890603,3.0639822638247662,2.9427145950579954,-2.4265056948000026,1.6655522633156215,2.7140253929389404
3.658416521827308,3.0806377864579226,2.9184495381099955,-2.3993654408706133,1.8417370428985824,2.8701771404940617
3.689222899691887,3.0990551568869082,2.8944558837012893,-2.3706636694656726,2.0353019077838255,3.0314899550486123
3.720213451260756,3.1194081759647463,2.8707492470066325,-2.3403487699151864,2.245466931757777,3.2022407123976273
3.7514075330204038,3.141862845282324,2.8473457593074807,-2.30832636279121,2.4718353200024543,3.3864878951521384
3.782826161473227,3.166581198482348,2.8242624956795686,-2.274461483839689,2.7143952403839955,3.588101740831417
3.8144919734580505,3.193725150886188,2.8015178808411716,-2.2385804664313746,2.9735045919156478,3.8108207659190936
3.8464292249669123,3.2234601968053447,2.779132076176858,-2.2004722587721837,3.2498678161861196,4.05832139818728
3.878663826934966,3.255958874967206,2.757127353589136,-2.1598890447903107,3.544510565699415,4.334291806864108
3.911223415684638,3.2914039806242,2.735528463141233,-2.1165461267216696,3.8587554418001675,4.642504310960991
3.94413745549088,3.329991535042202,2.714363001874016,-2.07012108361206,4.1942000978801905,4.9868829453177455
3.9774373708413022,3.371933536021004,2.6936617910378957,-2.0202522541588825,4.5526976371434715,5.3715640205504265
4.011156706201512,3.4174605123924384,2.6734592684963068,-1.9665366139533782,4.9363382511258225,5.8009480166538605
4.0453313113254366,3.4668238949036967,2.653793902356773,-1.9085271337868397,5.347430290074128,6.279741066825043
4.079999550274474,3.520298197804438,2.634708631018905,-1.8457297231185892,5.7884783024207165,6.812983739193204
4.1152025322525185,3.5781829808286454,2.616251333787719,-1.777599885726657,6.2621549325551475,7.40606388558048
4.150984362060805,3.6408045301541967,2.5984753349304524,-1.7035392468708523,6.771262858077775,8.064709040059569
4.1873924073623465,3.7085171587349746,2.581439942461744,-1.6228921564702568,7.318682142338975,8.794952240063544
4.224477578949696,3.7817039801583645,2.565211020897041,-1.5349426340696213,7.907297468957749,9.60306323617589
4.26229461875128,3.860776954847942,2.549861594556345,-1.4389120017078625,8.539898744871614,10.495434909484356
4.300902388299759,3.9461759422966582,2.5354724745392665,-1.333957652613019,9.219047593771798,11.478412446293257
4.340364147722726,4.038366418234376,2.5221328980131363,-1.2191735281500864,9.946901474675037,12.558050654527326
4.38074781190507,4.137835432981126,2.5099411627316353,-1.093593021604813,10.724986817024943,13.739783131485533
4.422126166234881,4.245085301151376,2.499005232515587,-0.9561951902899577,11.55391306560801,15.027986420823247
4.464577019246395,4.360624431807456,2.4894432806126874,-0.8059153260817252,12.433021438749611,16.425423726240634
4.50818326356447,4.484954646194952,2.48138412735187,-0.6416610888193188,13.35996625132021,17.93255740228258
4.553032810026419,4.618554308708154,2.474967516463677,-0.46233551479649304,14.33023369335782,19.546728836423217
4.599218353113501,4.761856645641732,2.470344161315712,-0.2668682264322609,15.336613833297266,21.26122012852913
4.646836919569918,4.915222783974705,2.4676754790513895,-0.05425602514696959,16.36865691170591,23.064235595554656
4.695989147409666,5.078909353091764,2.46713291879992,0.176386330808577,17.412164585338463,24.93787313100439
4.746778240940583,5.253030998945149,2.468896782108006,0.4257650621186209,18.44878924678148,26.857194520806438
4.799308550930035,5.437518891412964,2.473154432729192,0.6943370073266852,19.45583647997208,28.78954559334314
4.853683739844165,5.632077256212685,2.480097802802459,0.9822324632601167,20.406381249812,30.694313067292764
4.910004512406291,5.836141068710805,2.48992012743506,1.2891755939330443,21.26980937384116,32.523322259710916
4.968365923093399,6.048839162449216,2.5028118833743904,1.6144088165301533,22.0128729968747,34.22206258166293
5.028854314717892,6.268967892417963,2.518955971539692,1.9566294423467827,22.601294925960417,35.73186121366302
5.091543993642071,6.494980841677567,2.53852226596316,2.313948054483413,23.001870781668327,36.99300250985152
5.156493802058847,6.72499954949425,2.561661746507994,2.683878079581928,23.184909677192543,37.94862003794336
5.22374379755379,6.956848646266175,2.5885005273038133,3.0633642799613616,23.12674600899297,38.54899901021838
5.2933122840164515,7.188116106356104,2.6191341701034268,3.4488542700635456,22.81197904680494,38.755767365020375
5.3651934450800125,7.416235896824154,2.6536227128040624,3.8364119437137494,22.235085555274534,38.545378809361296
5.439355804048254,7.6385867523768995,2.6919868322412,4.2218657318073625,21.401122227888337,37.91134177854086
5.515741671572023,7.852597974655783,2.734205489559274,4.600979149592771,20.325382428776177,36.864830898483646
5.594267651318581,8.055851798943545,2.7802152810552014,4.969627458577607,19.032060932609028,35.43359432436426
5.674826169308016,8.246172408269635,2.8299115556409773,5.323963401821249,17.552158968143864,33.65936875619357
5.757287893390712,8.421693997951074,2.88315118965919,5.660557089383185,15.920980218448012,31.59425315611544
5.841504833370223,8.580903800135554,2.939756760553022,5.97649962094434,14.175598492791424,29.29661377700345
5.927313871371578,8.722659785063469,2.9995217567624652,6.269465758714374,12.352622238852886,26.82708073613115
6.014540469222213,8.846186007451998,3.062216414349609,6.537736566075686,10.486468355216362,24.24507591780815
6.103002329296733,8.951050691004161,3.127593780010366,6.780187325253767,8.608227496042641,21.606134845304705
6.192512836206775,9.037132965964588,3.1953956532629038,6.9962486737068135,6.745090211938146,18.960105502294773
6.28288416586642,9.104583868083969,3.265358139999972,7.185849728729761,4.920228338326965,16.350164319242726
6.37393000454726,9.153786151467239,3.33721663728727,7.349351371922189,3.1529933540879664,13.812501378369793
6.465467866061933,9.185316085008118,3.4107101510064917,7.487476385705887,1.4592954998461607,11.376491981972553
6.557321026912014,9.19990904000658,3.4855849148635505,7.601241305525613,-0.14794856211114588,9.065177256099151
6.6493201173120795,9.198429554385468,3.5615973279188067,7.691893078086604,-1.6583785567179994,6.895906009914422
6.741304412855934,9.181845768818288,3.638516258699673,7.760852138185748,-3.0638099814374837,4.881029083810901
6.833122870544117,9.151207669003913,3.7161247800815302,7.809662429023857,-4.357929083489635,3.0285756798229797
6.924634947234156,9.107628378169016,3.794221404371769,7.839948185822086,-5.536063244193349,1.3428730226085432
7.015711231015846,9.052267745727082,3.87262088622999,7.8533769160481715,-6.595015067512177,-0.17490590963888528
7.106233908473117,8.986317595051961,3.9511546553904715,7.851627856951783,-7.532943233572508,-1.526266673729945
7.196097084423636,8.910988162716237,4.02967093395999,7.836365190214484,-8.349272440591124,-2.7149813931127484
7.285206966050798,8.827495438310326,4.108034585862135,7.8092153762833565,-9.044616835302893,-3.7467289026460677
7.3734819204339015,8.737049269957296,4.186126739624968,7.771748087256896,-9.620704856159655,-4.628775323949589
7.460852413133474,8.6408422213957,4.263844220497537,7.7254603340173995,-10.080297392312714,-5.369685222843274
7.547260835347431,8.540039247472572,4.3410988238377115,7.671763481788966,-10.427094943192195,-5.97905616408754
7.632661227822156,8.435768298040651,4.417816458655601,7.611972920148091,-10.665632671983115,-6.467272250728307
7.717018910802563,8.32911197132082,4.493936187857082,7.547300197640808,-10.801164708942027,-6.845274674305275
7.800310030515771,8.2211003242314,4.56940918983349,7.478847450897755,-10.839540745658834,-7.124349181624782
7.882521033758085,8.112704916774812,4.644197664342467,7.407603959081507,-10.787078927768805,-7.315931612240716
7.963648082925833,8.004834127497123,4.718273703933282,7.3344446429591,-10.650439411918558,-7.431433310261722
8.043696424200805,7.898329733377937,4.791618150362873,7.260130309856483,-10.436502837405119,-7.482088358753643
8.122679721534585,7.793964705003886,4.864219453461438,7.1853094262689465,-10.152257512039217,-7.478824349066627
8.200619368584624,7.692442129883494,4.936072547724127,7.11052118277828,-9.804698453882871,-7.432157911495351
8.27754378988346,7.594395145344666,5.00717775955191,7.036199603663326,-9.400740675828649,-7.352115618341879
8.353487741336906,7.5003877385863795,5.077539755588543,6.962678447479908,-8.947148336124672,-7.248180225909293
8.42849161872277,7.410916255225133,5.147166540063342,6.890196645220815,-8.450480668486847,-7.129261622872057
8.50260078127502,7.326411448540265,5.21606850651555,6.818904028992095,-7.9170549908471815,-7.003691346660741
8.575864895760423,7.247240898631793,5.284257546805471,6.748867115525488,-7.352926591861096,-6.879239139487727
8.648337304746741,7.173711632713181,5.351746217960726,6.68007472413061,-6.7638849114657935,-6.763149741956966
8.720074421073873,7.106072783598523,5.418546965202032,6.61244322671104,-6.155465154697447,-6.662197947538535
8.791135148909857,7.044518132051548,5.484671397469143,6.545821247235654,-5.5329742849245225,-6.582759834589005
8.861580330230373,6.989188389202303,5.550129609941499,6.4799936488897645,-4.9015302044499816,-6.530898013175418
8.931472214122396,6.940173087157803,5.614929546430397,6.41468466875801,-4.2661128125674415,-6.512458623759879
9.000873944993973,6.897511959032129,5.6790763931179775,6.349560082520411,-3.6316254951206424,-6.533177650723702
9.069849064584295,6.861195704080923,5.742571993943182,6.2842283060131745,-3.0029654034493447,-6.598793808558425
9.138461021625105,6.83116605004643,5.8054142770033135,6.21824036792759,-2.3851005787917625,-6.715164761551339
9.20677268212557,6.807315044258512,5.867596680682589,6.151088720312077,-1.783151521290107,-6.8883826851364285
9.274845832568154,6.7894835290456115,5.92910756788571,6.082204893460713,-1.202474137111914,-7.12488410339355
9.34274066785861,6.777458787674492,5.9899296168203175,6.010956052426778,-0.6487400659483364,-7.431547479238704
9.410515255735355,6.770971387015009,6.050039177344585,5.936640577634391,-0.12800913710282374,-7.815770138378721
9.478224969605504,6.76969129564398,6.109405583120929,5.858482876250603,0.3532129249716665,-8.285513746176324
9.545921882561943,6.773223424893697,6.167990411883435,5.77562773878884,0.7879404561567765,-8.849304747807283
9.61365411681088,6.781102829455264,6.225746689271324,5.687134691310767,1.168708803415684,-9.516173032399713
9.681465145105433,6.792789917489421,6.282618036184431,5.59197296098677,1.4876243327034084,-10.295508838214348
9.749393044280326,6.8076661608164555,6.338537765794299,5.489017872604627,1.73648037176118,-11.196815040097839
9.817469705888492,6.825030964534068,6.393427944520345,5.377049722203649,1.9069584605166723,-12.229330218517807
9.885720015533833,6.844100549139235,6.447198441742381,5.254756420018471,1.9909357765928832,-13.401498464671075
9.954161021025225,6.864009906905164,6.499746005942566,5.120741435371761,1.980919075374895,-14.7202663547317
10.022801120094277,6.883819097658913,6.550953420296283,4.973538771824444,1.8706215318792456,-16.19019800082056
10.091639311070866,6.902525312977705,6.600688808014527,4.811636791816238,1.6556897744237935,-17.81241788731586
10.160664564200642,6.9190822107219425,6.648805175932689,4.63351261294308,1.3345723547875625,-19.58342043936381
10.229855386307861,6.9324279342698185,6.69514030206212,4.437678408549441,0.909496534995307,-21.493825948900717
10.29917966565056,6.9415228996197715,6.739517086147614,4.222740149060434,0.38748751103536155,-23.52721314750984
10.368594894646757,6.945397774730125,6.7817444876382185,3.9874680175853356,-0.21867456188959514,-25.659213780646713
10.438048872394058,6.94321102911123,6.821619167814072,3.7308758797788686,-0.8897030124584353,-27.857102791619475
10.50748098268517,6.934313998986645,6.858927926611861,3.452304851862674,-1.599429795589075,-30.080141969978424
10.576824122675037,6.918319701030754,6.893450975130487,3.15150343216289,-2.3149815853026916,-32.28091411146974
10.646007319685344,6.895169885177727,6.924966009452116,2.8286942910481923,-2.9976442791465234,-34.40779979015564
10.71495901853712,6.8651934423862615,6.953252952362598,2.484616293146636,-3.6044671380448197,-36.40859208675005
10.783610952960982,6.829148771005813,6.978099115294064,2.120530372279135,-4.0905250671937115,-38.235030382710114
10.85190244067104,6.788243520333876,6.999304419016855,1.7381800684520339,-4.411599578372898,-39.8478052608623
10.91978487587438,6.744127524550147,7.016686219701376,1.339702015843411,-4.5268947087638605,-41.22140900817711
10.98722615111988,6.6988585774625085,7.0300832398598105,0.9274879257616399,-4.40132024008011,-42.348151172715816
11.054214736894506,6.654845375061707,7.039358119117427,0.5040064140344817,-4.006887165001491,-43.24077236349959
11.120763190645123,6.614776503411692,7.044398183257772,0.07159869039948574,-3.322876531368049,-43.933367298917105
11.18691095567924,6.581547738098012,7.045114170161766,-0.3677349825896853,-2.3346317978172015,-44.48070737577631
11.25272643306022,6.55820142011984,7.0414368203358695,-0.8125420563474484,-1.0310265382513215,-44.95643379838507
11.318308447261417,6.547891154737327,7.033311399772395,-1.2621063943312991,0.5991927088386563,-45.45087759957238
11.38378735880879,6.553883081825713,7.020690335829082,-1.716615170327023,2.571941085617486,-46.06939751264658
11.449326189627048,6.579602492681888,7.003524184125812,-2.1773091454534885,4.913023332467122,-46.93211298412981
11.515122214553866,6.628732726006559,6.981751092671277,-2.6466302752947866,7.66401580169113,-48.17579055357251
11.581409541813931,6.70537288402347,6.955284789918329,-3.1283881808305116,10.888923809879579,-49.95845267005234
11.648463270654165,6.8142621221222655,6.924000908110024,-3.627972707531035,14.681787124685926,-52.466962996591946
11.716605891875387,6.9610799933691245,6.887721181034713,-4.152642337496954,19.17507439618186,-55.92708945398956
11.786216691809079,7.152830737330943,6.8461947576597435,-4.711913232036849,24.547279351660443,-60.61337810966736
11.857744999182389,7.3983035308475475,6.799075625339375,-5.318047013133523,31.023647407999945,-66.84982314656936
11.931728034490865,7.708540004927547,6.74589515520804,-5.986545244599216,38.850995383891096,-74.97415160637996
12.00881343454014,8.097049958766458,6.686029702762048,-6.736286760663016,48.19150534265198,-85.18800636510177
12.089783934127805,8.578965012192977,6.618666835155418,-7.588166824314033,58.7852217910956,-97.08195793863496
12.175573584249735,9.166817230103934,6.542785166912277,-8.558986403700382,69.01490906600114,-108.32135483841512
12.267241756550774,9.856966320763945,6.457195302875274,-9.642199952084534,73.74847793141568,-111.61736766801387
12.365811419758414,10.594451100078102,6.360773303354429,-10.758373628764673,61.418988514488284,-90.63690173602285
12.471755930759194,11.208640985222985,6.253189567066782,-11.664742646124902,18.363877752724907,-26.1443007203012
12.583842340611424,11.392279762750235,6.136542140605533,-11.926185653327913,-44.71863960088059,66.75373866496699
12.697765138238926,10.945093366741428,6.017280284072254,-11.258648266678243,-84.13441566021095,126.50865476959285
12.80721607190634,10.103749210139318,5.904693801405472,-9.993561718982315,-85.1564756883292,132.22140723631705
12.908253564007733,9.252184453256026,5.804758184215649,-8.671347646619145,-69.93214910234008,114.81141787482058
13.000775408540294,8.552862962232625,5.718044707749457,-7.523233467870939,-53.858084659701234,95.90534676251417
13.08630403816262,8.014282115635613,5.642812373070748,-6.564180000245797,-40.79040373725281,81.02615266251037
13.166446859318976,7.606378078263084,5.5771705730682894,-5.7539184736206925,-30.698494494985965,70.23159952725321
13.242510640101607,7.299393133313225,5.5196313883320824,-5.05160247834816,-22.873714965407842,62.59074965719847
13.315504571434738,7.0706559836591465,5.4691153635486005,-4.425694981776175,-16.68426471941868,57.244864319666625
13.38621113127133,6.903813336464959,5.424858413730838,-3.853246338579509,-11.675659292264305,53.5530901305315
13.45524926463598,6.787056743542316,5.386325950345043,-3.317715437274194,-7.540773861865407,51.05320845529463
13.523119832071401,6.711649004923662,5.3531487959723005,-2.8071833527212475,-4.078401028507031,49.40466299261999
13.590236322120639,6.670864994638592,5.325076962445088,-2.3131367227950475,-1.1613290275284784,48.34462114253124
13.656944972067025,6.6592517043633075,5.301945595217138,-1.829690511369735,1.285952862182296,47.65859886287439
13.723537489110658,6.672111232985131,5.2836486901034405,-1.353104522740991,3.303080320479766,47.16251990490475
13.79025860144051,6.705142036189929,5.270117644876031,-0.8814793236919436,4.905938638972917,46.69338060583123
13.857310021802409,6.754201422579658,5.261302851639111,-0.4145455176336313,6.096905438132563,46.10647633774118
13.924852036028206,6.815170476960983,5.257157396462775,0.046519245743780524,6.874115195449991,45.27751554630053
13.993003740797816,6.883911628915483,5.257622588920213,0.4992944012067858,7.23984989902436,44.10786992217019
14.06184285708697,6.956310127905726,5.262615532932281,0.9403731004284877,7.207535244263897,42.53090974791524
14.131405958366027,7.028385480348366,5.272019263936565,1.3656821979076401,6.806483333709407,40.517176966609156
14.20168981316951,7.09645031368546,5.285676085915641,1.7708539675737316,6.083581404038284,38.076362075676435
14.272654316306365,7.157286127725842,5.303384625591379,2.1516175883304958,5.101592540825507,35.25481656745348
14.344227177583624,7.208302053134098,5.324900801474684,2.5041657540050304,3.9344556951253917,32.12851920594213
14.416310198114966,7.247646610085352,5.349942459014735,2.8254509460644517,2.660665525683313,28.79264513587623
14.48878666421582,7.2742532653421845,5.37819696847538,3.113377397423214,1.356194722995418,25.349721271530342
14.561529196869241,7.287815212572139,5.409330742449612,3.3668746101385176,0.08835553934140561,21.898518952067008
14.634407348994962,7.288698767965553,5.442999488550997,3.585859799659188,-1.0884475963832183,18.525364078659596
