th1 (rad),w1 (rad/s),th2 (rad),w2 (rad/s),a1 (rad/s^2),a2 (rad/s^2)
3.305840316669051,2.377309181110984,5.286236723886781,1.9098852022535717,4.216253552679307,4.725212004607842
3.3296134084801605,2.419471716637777,5.305335575909317,1.9571373222996502,4.48081014433897,4.511882807861787
3.3538081256465384,2.4642798180811667,5.3249069491323135,2.002256150378268,4.742988263557189,4.274128530517239
3.37845092382735,2.5117097007167386,5.344929510636097,2.0449974356834404,5.001944202730695,4.010676952353711
3.4035680208345176,2.5617291427440456,5.365379484992931,2.0851042052069775,5.256784530467462,3.7202140659599467
3.429185312261958,2.61429698804872,5.386230527045001,2.1223063458665767,5.506574954085629,3.4013954439397214
3.455328282142445,2.6693627375895765,5.407453590503667,2.156320300305974,5.750351342350092,3.052859736858675
3.482021909518341,2.7268662510130777,5.429016793506727,2.186848897674561,5.987133182711575,2.6732443856565635
3.5092905720284717,2.7867375828401935,5.450885282483473,2.2135813415311265,6.21593974686032,2.261203569902136
3.5371579478568735,2.8488969803087967,5.473021095898784,2.2361933772301477,6.435809229747178,1.815428331259427
3.5656469176599614,2.9132550726062685,5.4953830296710855,2.254347660542742,6.645821108731162,1.3346687067768694
3.594779468386024,2.97971328369358,5.517926506276513,2.2676943476105107,6.845121939644299,0.8177575760549995
3.62457660122296,3.048164503090023,5.540603449752618,2.2758719233710605,7.032954764041698,0.26363576720313164
3.6550582462538603,3.11849405073044,5.563362168986329,2.278508281043092,7.208692245953392,-0.3286222234795974
3.686243186761165,3.1905809731899737,5.58614725179676,2.275222058808296,7.371873587135182,-0.959782765280174
3.7181489964930647,3.2642997090613255,5.608899472384842,2.265624231155494,7.522245188450446,-1.6304290016783498
3.750791993583678,3.33952216094583,5.631555714696398,2.249319941138711,7.659804934711724,-2.3409395394853707
3.7841872151931364,3.4161202102929473,5.6540489141077845,2.225910545743857,7.784849886578184,-3.091471634368495
3.818348417296066,3.4939687091587293,5.676308019565223,2.194995829400172,7.898027074528605,-3.881950917506995
3.8532881043876532,3.5729489799040155,5.698257977859225,2.1561763202251023,8.00038701885484,-4.712070045704887
3.8890175941866936,3.652952850092564,5.7198197410614755,2.1090556197680534,8.093439562763727,-5.581298990710544
3.925547122687619,3.7338872457202013,5.740910297259156,2.053242629860948,8.179211624544584,-6.488909997867602
3.962885995144821,3.815679361965647,5.761442723557765,1.9883535298822719,8.260306575756701,-7.4340205240574235
4.001042788764478,3.898282427723214,5.781326258856589,1.9140133246416977,8.339965166436777,-8.415657696430198
4.04002561304171,3.981682079387582,5.800466392103005,1.8298567476773957,8.42212827985937,-9.432848007771277
4.079842433835585,4.065903362186176,5.818764959579779,1.7355282675996828,8.511502344577753,-10.484736081203332
4.120501467457447,4.151018385631954,5.836120242255776,1.6306809067876495,8.613628995507153,-11.570736408133984
4.162011651313766,4.237154675587025,5.8524270513236525,1.5149735427063098,8.734961588882902,-12.690722015041649
4.204383198069636,4.324504291475854,5.867576786750716,1.3880663225558934,8.882952457360913,-13.845254085525251
4.247628240984395,4.413333816049463,5.881457449976275,1.2496137817006407,9.066156340445307,-15.035856695673644
4.2917615791448895,4.503995379453916,5.893953587793281,1.0992552147439043,9.294357204473593,-16.26534103343398
4.336801532939429,4.596938951498652,5.90494613994072,0.9366018044095645,9.578727571100854,-17.53818371328113
4.382770922454416,4.69272622720966,5.914312157984816,0.7612199672767532,9.932031271677987,-18.86096383781783
4.4296981847265124,4.7920465399264405,5.921924357657583,0.5726103288985749,10.368881756713536,-20.242862697697802
4.477618650125777,4.895735357493576,5.927650460946569,0.37018170192159683,10.906067742434907,-21.696227090527437
4.526576003700713,5.004796034917925,5.931352277965785,0.15321943101632246,11.562954117295725,-23.23718934826811
4.576623964049892,5.120425576090883,5.932884472275949,-0.07915246246635865,12.361954746685633,-24.886318555289268
4.627828219810801,5.244045123557739,5.932092947651285,-0.3280156480192513,13.329047268495442,-26.669236664680575
4.680268671046378,5.377335596242693,5.928812791171093,-0.594708014666057,14.494242482777546,-28.617047547391515
4.7340420270088055,5.522278021070468,5.922865711024432,-0.8808784901399722,15.891801150006229,-30.766251398734497
4.78926480721951,5.68119603257053,5.914056926123032,-1.1885410041273172,17.559746464629338,-33.15746239046887
4.846076767545215,5.856793497216824,5.902171516081759,-1.520115628032006,19.53772799491307,-35.831539716363174
4.904644702517383,6.052170777165955,5.886970359801438,-1.8784310251956378,21.86131535638635,-38.820347758903644
4.965166410289043,6.270783930729818,5.8681860495494815,-2.266634502784674,24.548905125964154,-42.126676026165065
5.027874249596341,6.51627298198946,5.845519704521635,-2.687901263046325,27.57392284720417,-45.68291901567058
5.093036979416235,6.792012210461502,5.818640691891172,-3.1447304532030307,30.80918693994969,-49.269992477075334
5.16095710152085,7.100104079860999,5.7871933873591415,-3.637430377973784,33.92314407261478,-52.368134967998834
5.23195814231946,7.4393355205871465,5.750819083579404,-4.161111727653772,36.20856666107839,-53.91320772933289
5.306351497525331,7.80142118719793,5.709207966302866,-4.7002438049471005,36.36975903082333,-51.99788246100691
5.3843657093973105,8.165118777506164,5.662205528253395,-5.22022262955717,32.4717016402665,-43.810409542318574
5.466016897172372,8.48983579390883,5.610003301957823,-5.6583267249803555,22.609536932865186,-26.607825931998388
5.55091525511146,8.715931163237482,5.55342003470802,-5.924404984300339,6.848330673074716,-0.5049826289267133
5.638074566743835,8.78441446996823,5.4941759848650165,-5.929454810589606,-10.867267013312471,28.775360146302383
5.725918711443517,8.675741799835105,5.43488143675912,-5.641701209126582,-24.483540329966225,52.403491252402134
5.812676129441868,8.430906396535443,5.378464424667855,-5.117666296602561,-30.80002530905484,65.55022495607044
5.896985193407222,8.122906143444894,5.327287761701829,-4.462164047041856,-31.03630173231161,69.72848998564909
5.978214254841671,7.812543126121778,5.2826661212314105,-3.7648791471853653,-28.042157107720243,68.88934653411765
6.056339686102889,7.532121555044576,5.245017329759557,-3.075985681844189,-23.98219921240397,66.09773394170188
6.131660901653334,7.292299562920536,5.2142574729411155,-2.41500834242717,-19.97122940621943,62.95612202718662
6.204583897282539,7.092587268858342,5.190107389516844,-1.7854471221553037,-16.45540861837143,60.111414861169784
6.275509769971123,6.9280331826746275,5.172252918295291,-1.1843329735436057,-13.562503368122579,57.74094025750477
6.344790101797869,6.792408148993402,5.160409588559855,-0.606923570968558,-11.293126891348551,55.82380004562053
6.412714183287804,6.679476880079916,5.154340352850169,-0.04868557051235267,-9.606824754445542,54.26686183165336
6.479508952088603,6.583408632535461,5.153853497145046,0.4939830478041809,-8.456293496799077,52.9582283529898
6.545343038413957,6.49884569756747,5.158793327623088,1.023565331334079,-7.798783786098919,51.788584463307586
6.610331495389632,6.420857859706481,5.169028980936429,1.5414511759671548,-7.5981116679067995,50.65927856142267
6.674540073986697,6.344876743027413,5.184443492696101,2.0480439615813815,-7.823099015213739,49.485314040028264
6.737988841416971,6.2666457528752755,5.204923932311915,2.542897101981664,-8.444910119684677,48.19660368061797
6.800655298945724,6.182196651678429,5.230352903331731,3.0248631387878437,-9.434333815695435,46.73873554008315
6.862477265462508,6.0878533135214745,5.260601534719609,3.492250494188675,-10.759473569652934,45.07359845743071
6.923355798597723,5.980258577824945,5.295524039661496,3.9429864787629825,-12.384063028960322,43.1798473393271
6.983158384375972,5.856417947535342,5.334953904449126,4.374784952156253,-14.266513065617747,41.05306211656426
7.041722563851326,5.713752816879165,5.378701753970688,4.785315573321896,-16.359732310810024,38.7054418611995
7.098860092020117,5.550155493771064,5.426554909703907,5.172369991933891,-18.611713454169504,36.164917350927695
7.1543616469578275,5.364038359229369,5.4782786096232465,5.534019165443168,-20.966831336607264,33.4736308235527
7.208002030550121,5.154370045863296,5.533618801277679,5.8687554736786955,-23.367753895364633,30.685804096018707
7.259545731008754,4.92069250690965,5.592306356014466,6.175613514638883,-25.75782418068302,27.86508666011115
7.308752656077851,4.66311426510282,5.654062491160855,6.4542643812399945,-28.08373339734182,25.081539075851886
7.355383798728879,4.382276931129402,5.718605134973255,6.705079771998514,-30.29827552012868,22.4084604736034
7.3992065680401735,4.079294175928116,5.78565593269324,6.929164376734548,-32.362959751219094,19.91930766941892
7.4399995097994545,3.755664578415925,5.854947576460586,7.128357453428737,-34.250264890872614,17.684970932335073
7.477556155583613,3.413161929507199,5.926231150994873,7.305207162752088,-35.945354369070195,15.77166107310285
7.511687774878685,3.053708385816497,5.9992832226223936,7.462923773483116,-37.44713132421147,14.239619838340154
7.54222485873685,2.679237072574382,6.073912460357224,7.605319971866518,-38.76859044676911,13.142790579796232
7.5690172294625935,2.291551168106691,6.14996566007589,7.73674787766448,-39.93649890813212,12.529482326938075
7.59193274114366,1.8921861790253698,6.227333138852535,7.862042700933861,-40.99048547657695,12.443929021153897
7.610854602933914,1.4822813242596002,6.3059535658618735,7.9864819911454,-41.9815981420318,12.92847383329878
7.62567741617651,1.0624653428392823,6.3858183857733275,8.115766729478388,-42.97025231292588,14.025848040771026
7.636302069604903,0.6327628197100235,6.4669760530681115,8.256025209886097,-44.0231409095726,15.780544747081885
7.642629697802003,0.19253141061429746,6.549536305166972,8.413830657356916,-45.20793404837316,18.23734956824803
7.644555011908146,-0.25954792986943415,6.633674611740542,8.596204153039396,-46.58310004303795,21.43315740415817
7.641959532609452,-0.7253789302998137,6.7196366532709355,8.810535727080978,-48.17724914218205,25.374282752799523
7.634705743306453,-1.2071514217216341,6.807742010541745,9.064278554608974,-49.9469229189154,29.98392660989698
7.622634229089237,-1.7066206509107882,6.898384796087835,9.364117820707943,-51.692668615442976,34.9916413564231
7.605568022580129,-2.223547337065218,6.992025974294914,9.714034234272173,-52.90303218945044,39.72158251826744
7.5833325492094765,-2.7525776589597224,7.089166316637636,10.111250059454848,-52.5048650257961,42.74622168454701
7.55580677261988,-3.277626309217683,7.190278817232184,10.538712276300318,-48.60135948807248,41.51084167166429
7.523030509527703,-3.763639904098408,7.295665939995187,10.953820693016961,-38.63246150402664,32.51929313526054
7.485394110486719,-4.149964519138674,7.405204146925357,11.279013624369567,-20.913863094686,13.396638769763204
7.443894465295332,-4.359103150085534,7.5179942831690525,11.412980012067198,2.285238523750401,-12.93774314162395
7.400303433794477,-4.33625076484803,7.632124083289725,11.283602580650959,23.882286339580073,-37.12323688287687
7.356940926145996,-4.097427901452229,7.744960109096234,10.91237021182219,37.373600837623826,-50.68925747336135
7.315966647131474,-3.7236918930759906,7.854083811214456,10.405477637088575,42.11588764416896,-53.07041161229448
7.278729728200714,-3.302533016634301,7.958138587585341,9.87477352096563,41.394995326146535,-48.8029473620419
7.245704398034372,-2.8885830633728355,8.056886322794998,9.386744047345212,38.394741406598435,-42.089368313897324
7.216818567400643,-2.5046356493068513,8.150753763268451,8.96585036420624,34.89272876547607,-35.164865897790854
7.191772210907574,-2.1557083616520907,8.240412266910514,8.614201705228332,31.631932789557954,-28.881619423708745
7.170215127291053,-1.839389033756511,8.326554283962798,8.325385510991245,28.84411339581203,-23.4381488271961
7.151821236953488,-1.5509478997983908,8.40980813907271,8.091004022719284,26.552275386410173,-18.784473174558727
7.136311757955504,-1.2854251459342891,8.490718179299904,7.903159290973697,24.707539882125783,-14.79821539897238
7.123457506496161,-1.0383497471130312,8.569749772209642,7.755177136983973,23.244150678811465,-11.351320938229977
7.113074009025031,-0.8059082403249165,8.647301543579482,7.641663927601673,22.099305572473884,-8.33155337356435
7.105014926621782,-0.5849151846001777,8.7237181828555,7.558348393866029,21.2188831211685,-5.6468638051535835
7.09916577477578,-0.3727263533884927,8.79930166679416,7.501879755814493,20.55785223357515,-3.223966063721328
7.095438511241895,-0.16714783105274117,8.874320464352305,7.46964009517728,20.07887820157559,-1.0054530126028762
7.093767032931368,0.033640950963014754,8.949016865304078,7.459585565051252,19.75046629190056,1.0529970902031078
7.094103442440998,0.23114561388202035,9.02361272095459,7.4701155359532825,19.545107839156675,2.9848465985003165
7.096414898579818,0.4265966922735871,9.098313876314123,7.499964001938285,19.43754922436595,4.81426971961035
7.100680865502554,0.6209721845172466,9.173313516333506,7.548106699134389,19.40317636587165,6.557108255178024
7.106890587347726,0.8150039481759631,9.24879458332485,7.613677781686169,19.41646845670049,8.22128045953663
7.115040626829486,1.009168632742968,9.324931361141712,7.695890586281536,19.449473976948266,9.806711354404648
7.125132313156915,1.2036633725124508,9.401890267004527,7.793957699825582,19.47028130472149,11.304851412080033
7.137168946882039,1.3983661855596656,9.479829844002783,7.907006213946382,19.441491605536424,12.697862074339428
7.151152608737636,1.59278110161503,9.558899906142246,8.033984834689777,19.318755779469246,13.957580780409346
7.167080419753787,1.7859686594097224,9.639239754489143,8.17356064249387,19.04951560189497,15.044443711997976
7.184940106347884,1.976463815428672,9.720975360914082,8.32400507961385,18.57219691298035,15.906648741730798
7.2047047445021715,2.1621857845584755,9.80421541171022,8.483071567031157,17.816239703594672,16.47998643225766
7.226326602347756,2.3403481815944223,9.889046127380531,8.647871431353733,16.703503008682443,16.688942384531522
7.2497300841637005,2.5073832116812467,9.97552484169407,8.814760855199049,15.151713697534303,16.449842161580793
7.274803916280513,2.65890034865659,10.06367245024606,8.979259276814856,13.080661723551009,15.676890020940169
7.301392919767079,2.7897069658921,10.153465043014208,9.136028177024258,10.421660251425306,14.291811492856029
7.329289989426,2.893923568406353,10.24482532478445,9.278946291952819,7.130241434808396,12.237276931386921
7.358229225110064,2.965225982754437,10.337614787703979,9.401319061266689,3.201041989424785,9.49322048501386
7.3878814849376075,2.997236402648685,10.431627978316646,9.496251266116827,-1.3175909461737043,6.0936118750504225
7.417853848964095,2.984060493186948,10.526590490977814,9.557187384867332,-6.313193914116738,2.1395707302450426
7.447694453895964,2.920928554045781,10.622162364826487,9.578583092169781,-11.607630758217637,-2.1962597347743045
7.4769037394364215,2.8048522464636045,10.717948195748184,9.556620494822038,-16.96815344183755,-6.678445761685244
7.504952261901058,2.635170712045229,10.813514400696404,9.489836037205185,-22.131895648108124,-11.03199553285754
7.53130396902151,2.413851755564148,10.908412761068455,9.37951608187661,-26.840207943082987,-14.976834251373113
7.555442486577151,2.145449676133318,11.002207921887221,9.229747739362878,-30.875187612175832,-18.26582248820567
7.576896983338484,1.8366978000115597,11.09450539928085,9.047089514480822,-34.089205428617525,-20.71669219322494
7.5952639613386,1.4958057457253844,11.184976294425658,8.839922592548573,-36.42026712035096,-22.23008960503655
7.610222018795854,1.1316030745218748,11.273375520351143,8.617621696498208,-37.89080285208229,-22.790662180311045
7.621538049541073,0.752695046001052,11.359551737316126,8.389715074695097,-38.59264182460181,-22.453459403550525
7.629065000001083,0.3667686277550338,11.443448888063077,8.165180480659592,-38.6642487019462,-21.321490380568658
7.632732686278634,-0.019873859264428195,11.525100692869673,7.951965576853905,-38.26685146925699,-19.521072324573467
7.63253394768599,-0.4025423739569981,11.604620348638212,7.75675485360817,-37.56445140987622,-17.18011686059061
7.62850852394642,-0.7781868880557603,11.682187897174295,7.584953685002263,-36.710192740406285,-14.412026484460009
7.620726655065862,-1.145288815459823,11.758037434024317,7.440833420157663,-35.83935070532561,-11.30559470975995
7.609273766911264,-1.503682322513079,11.832445768225893,7.327777473060063,-35.06784270546735,-7.919827079986733
7.594236943686133,-1.8543607495677525,11.905723542956494,7.248579202260196,-34.49468979280085,-4.281975937719173
7.575693336190455,-2.199307647495761,11.978209334979097,7.205759442883004,-34.20697883224705,-0.38705953613256994
7.553700259715498,-2.5413774358182315,12.050266929407927,7.201888847521678,-34.28627741480503,3.8025840925504797
7.528286485357316,-2.884240209966282,12.122285817883144,7.2399146884471826,-34.815886413554786,8.358782123993896
7.499444083257653,-3.2323990741018296,12.194684964767616,7.323502509687121,-35.88860471349195,13.390704064067833
7.467120092516635,-3.591285121236749,12.267919989864486,7.4574095503277995,-37.61463907210931,19.049758641034643
7.431207241304267,-3.9674315119578423,12.342494085367765,7.647907136738146,-40.12852433572688,25.534852907098575
7.391532926184689,-4.368716755315111,12.418973156735147,7.903255665809132,-43.59138691809291,33.09302219187236
7.3478457586315375,-4.80463062449604,12.498005713393239,8.234185887727856,-48.1778288219303,42.00066380768436
7.299799452386577,-5.286408912715343,12.580347572270517,8.6541925258047,-54.01801707810052,52.48470226781452
7.246935363259424,-5.826589083496348,12.666889497528564,9.179039548482844,-61.01824293952963,64.4770753388922
7.18866947242446,-6.436771512891644,12.758679893013392,9.823810301871767,-68.37559434561656,76.94505871799389
7.124301757295544,-7.120527456347809,12.85691799603211,10.593260889051706,-73.4327298629851,86.29971385051994
7.053096482732066,-7.85485475497766,12.962850604922627,11.456258027556906,-69.68269001619542,83.60419130669564
6.974547935182289,-8.551681655139614,13.077413185198196,12.292299940623863,-46.294435604820926,53.86646755435264
6.889031118630893,-9.014626011187824,13.200336184604435,12.830964616167389,1.552838329045146,-9.642008008156834
6.798884858519014,-8.999097627897372,13.328645830766108,12.73454453608582,52.520149096306014,-77.46608659814706
6.708893882240041,-8.473896136934313,13.455991276126966,11.95988367010435,76.19581067592323,-107.88556717158671
6.624154920870698,-7.71193803017508,13.57559011282801,10.881027998388483,73.87792212219038,-103.13307057826401
6.547035540568947,-6.973158808953176,13.684400392811895,9.849697292605843,62.42212604376698,-86.47851719270244
6.477303952479415,-6.348937548515506,13.782897365737954,8.984912120678818,50.82304394231234,-70.08443948642065
6.413814576994261,-5.840707109092383,13.872746486944742,8.28406772581461,41.333568211878074,-56.85310732249762
6.355407505903337,-5.427371426973602,13.955587164202887,7.715536652589634,33.964363677433425,-46.679578887846
6.3011337916336005,-5.087727790199268,14.032742530728784,7.248740863711174,28.273329850872166,-38.889277448053626
6.250256513731608,-4.804994491690547,14.105229939365897,6.859848089230638,23.83509539363222,-32.85932382656548
6.202206568814702,-4.566643537754224,14.173828420258204,6.5312548509649835,20.323855091387088,-28.11811935729651
6.15654013343716,-4.3634049868403535,14.239140968767854,6.250073657392019,17.50479105705352,-24.32583479299036
6.112906083568756,-4.188357076269818,14.301641705341774,6.006815309462115,15.211296023466245,-21.238853502072867
6.071022512806058,-4.036244116035156,14.361709858436395,5.794426774441386,13.325323079548145,-18.68027654843939
