th1 (rad),w1 (rad/s),th2 (rad),w2 (rad/s)
3.799825627578089,1.7848764055835884,4.180048875340551,-2.892359176262221
3.8176743916339246,1.8582811250465106,4.1511252835779295,-2.8879058644946523
3.8362572028843895,1.9325518846566632,4.122246224932983,-2.886423078015884
3.855582721730956,2.007543191626431,4.093381994152824,-2.8874800587098033
3.8756581536472203,2.0830037645955897,4.064507193565726,-2.890494269512626
3.896488191293176,2.158572522535055,4.0356022508706,-2.8947231839617324
3.9180739165185265,2.233784357592235,4.006655019030982,-2.8992697178796694
3.940411760094449,2.3080887264746464,3.977662321852186,-2.9031056936798985
3.963492647359195,2.380882638584243,3.9486312649153867,-2.9051157130348386
3.9873014737450374,2.451556982056896,3.9195801077850385,-2.9041601218257127
4.011817043565606,2.5195517007679995,3.8905385065667812,-2.8991509186235245
4.037012560573286,2.584412091754433,3.861546997380546,-2.8891298488946617
4.062856681490831,2.645836748950577,3.832655698891599,-2.8733353937321144
4.089315048980336,2.703708484278362,3.803922344954278,-2.8512463928455105
4.11635213382312,2.758103019829271,3.7754098810258228,-2.8225948135189043
4.143933164021412,2.809275286017433,3.747183932890634,-2.787347198367488
4.172025916881586,2.8576279731987753,3.719310460906959,-2.7456610716868406
4.200602196613574,2.903669955688782,3.6918538501900904,-2.697826792126423
4.229638896170462,2.947972679649255,3.6648755822688264,-2.644206071249311
4.259118622966954,2.9911310054443336,3.6384335215563333,-2.5851762106086875
4.289029933021398,3.0337323707173716,3.6125817594502463,-2.521085499809331
4.3193672567285715,3.076335542811634,3.587370904452153,-2.452221627476459
4.350130612156688,3.119458308502033,3.5628486881773886,-2.3787922958028616
4.3813251952417085,3.1635723892478613,3.53906076521936,-2.300915758826649
4.412960919134187,3.209103537400717,3.5160516076310935,-2.2186185432670227
4.445051954508195,3.256434905017262,3.4938654221984233,-2.1318378033135006
4.477616303558367,3.3059121369848814,3.4725470441652884,-2.0404262687176966
4.510675424928216,3.3578490511858647,3.4521427814781114,-1.944158330043038
4.544253915440075,3.4125331347207677,3.432701198177681,-1.8427363339171874
4.578379246787283,3.470230368869254,3.414273834838509,-1.7357965824352188
4.613081550475975,3.5311890929738823,3.396915869014157,-1.6229148398087263
4.648393441405714,3.5956427414674748,3.38068672061607,-1.503611363458804
4.684349868820389,3.6638113564334214,3.3656506069814816,-1.3773556199524002
4.720987982384723,3.7359018072422927,3.3518770507819577,-1.2435709407775835
4.758347000457146,3.8121066529254226,3.3394413413741817,-1.1016394363723627
4.7964680669864,3.892601572913673,3.328424947010458,-0.9509075309688142
4.8353940827155375,3.977541275996302,3.31891587170077,-0.7906925125028952
4.8751694954755,4.067053782616248,3.311008946575741,-0.6202905135203465
4.915840033301663,4.161232967838102,3.304806041440538,-0.4389863494488683
4.957452362980044,4.260129257159047,3.3004161779460492,-0.24606563545458165
5.000053655551635,4.363738390483588,3.2979555215915033,-0.040829575398217494
5.043691039456471,4.471988216793625,3.297547225837521,0.17738724279244825
5.088410921624408,4.584723558719057,3.2993210982654455,0.4091958117261091
5.134258157211598,4.701689296603895,3.3034130563827064,0.6551283473987288
5.1812750501776375,4.822511967622653,3.309964339856694,0.9156107388461958
5.229500169853864,4.946680354865465,3.319120447245156,1.1909322038893615
5.278966973402519,5.073525746117227,3.3310297692840494,1.4812128750685887
5.329702230863691,5.202202757043486,3.345841898034735,1.7863704007286347
5.381724258434126,5.331671815503179,3.3637056020420215,2.1060870112741417
5.435040976589158,5.460684562785308,3.384766472154763,2.4397788242322247
5.489647822217011,5.587773510534367,3.409164260397085,2.786569388292489
5.545525557322354,5.7112472689369,3.4370299542800096,3.145269538831688
5.602638030011723,5.829192514122064,3.4684826496683265,3.5143655102000197
5.660929955152944,5.939483593438986,3.503626304770327,3.8920169056751286
5.720324791087333,6.039800306942078,3.542546473827078,4.276065589564874
5.780722794156754,6.1276540112932505,3.585307129722727,4.664055913159836
5.841999334269686,6.200421847650234,3.6319476888543254,5.053266038546307
5.904003552746189,6.255388678110873,3.6824803492397886,5.440749627472667
5.966557439527297,6.289796279575305,3.736887845514515,5.823386949573042
6.02945540232305,6.300899487207304,3.7951217150102456,6.197944609745364
6.092464397195123,6.2860292216983265,3.8571011611076993,6.561143571658388
6.155324689412106,6.242662512139409,3.922712596824283,6.909735810885936
6.2177513145335,6.168499514486594,3.9918099549331423,7.240590496048139
6.279436309678366,6.061546887804164,4.064215859893624,7.550790726689575
6.340051778556408,5.9202055551668655,4.139723767160519,7.837741224203458
6.399253834108077,5.743358827414543,4.218101179402554,8.099285778799375
6.456687422382222,5.530454326612661,4.299094037190548,8.33383075332348
6.511991965648349,5.281570606050494,4.3824323447237825,8.540467921565634
6.564807671708854,4.997457545326462,4.467837023939439,8.719087101638923
6.614782247162118,4.6795392929359325,4.5550278949558285,8.870467380266946
6.661577640091478,4.3298703404648355,4.643732568758498,8.996336126287192
6.704876343496126,3.9510393784517177,4.73369593002137,9.099388018976565
6.744386737280643,3.546021375824316,4.824689810211136,9.183261885914499
6.779846951038887,3.117984664879491,4.916522429070281,9.252480434868746
6.811026797687681,2.6700651552532424,5.009047233418968,9.312365594588355
6.837727449240214,2.2051227026657196,5.102170889364852,9.368948634516864
6.859778676266871,1.7254942802442748,5.195860375710021,9.428898357483769
6.877033619069314,1.2327550204120126,5.290149359284858,9.499491981921398
6.8893611692734344,0.7274924870354276,5.385144279104073,9.588652001462822
6.896636094143789,0.20909374870502218,5.481030799118701,9.705068484456365
6.898727031630839,-0.3244576991011243,5.578081483963264,9.85841869699604
6.895482454639828,-0.8767711810490468,5.676665670933224,10.05967895212177
6.886714742829338,-1.4531902306643354,5.777262460454442,10.321480356075286
6.872182840522695,-2.0607658858784648,5.8804772640151945,10.658346034363573
6.85157518166391,-2.7077180759670907,5.98706072435883,11.086350102936636
6.8244980009042395,-3.4014891667880693,6.097924225388197,11.620990532277188
6.790483109236359,-4.143224874231606,6.214134130710969,12.270318228283879
6.749050860494043,-4.914113058428559,6.336837312993808,13.016987794445464
6.699909729909757,-5.6471703663778285,6.467007190938262,13.78013429103426
6.643438026245979,-6.190049038639937,6.604808533848605,14.364046491999831
6.58153753585958,-6.322457913617596,6.748448998768603,14.480175971961444
6.5183129567234035,-5.9336089614601875,6.893250758488217,13.986351538453109
6.4589768671088015,-5.190345543150689,7.033114273872748,13.109640250679547
6.4070734116772945,-4.357843188609189,7.164210676379543,12.19751258072548
6.363494979791203,-3.5782242447916492,7.2861858021867985,11.42484797595984
6.327712737343287,-2.8834381792108577,7.400434281946397,10.820724142550889
6.298878355551178,-2.2643521161079754,7.508641523371906,10.363832230119069
6.276234834390098,-1.7037310446379486,7.612279845673096,10.025616317088653
6.259197523943718,-1.1859119579683695,7.7125360088439825,9.781788823495598
6.247338404364035,-0.6985913941602205,7.810353897078938,9.613692462073326
6.240352490422432,-0.23256373813860032,7.906490821699672,9.507279513961903
6.238026853041046,0.21888363017945428,8.00156361683929,9.451852901362512
6.240215689342841,0.6604966724994992,8.096082145852915,9.439038648932693
6.246820656067835,1.095437395636453,8.190472532342241,9.46202627111046
6.2577750300242,1.5255455593442475,8.285092795053346,9.515025059359306
6.273030485617642,1.9515167167283234,8.380243045646939,9.592882524393916
6.292545652784925,2.3730309663884444,8.476171870890878,9.69082631096256
6.31627596244881,2.78886087866891,8.573080134000504,9.804304957289258
6.344164571235499,3.1969811611249037,8.671123183573396,9.928912149178725
6.3761343828467485,3.5946965658757812,8.770412305065184,10.060383347762514
6.412081348505506,3.9787975734044934,8.87101613854281,10.194653434064929
6.451869324239551,4.345745156141412,8.97296267288346,10.327960344619559
6.495326775800965,4.691876868826155,9.076242276329655,10.456974163285008
6.5422455444892265,5.013617960990154,9.180812017962506,10.57892595866286
6.592381724099128,5.307675113202484,9.286601277549135,10.691708231615825
6.645458475231153,5.571188696970296,9.393518359865293,10.793921121277682
6.701170362200855,5.801823232488777,9.50145757107807,10.884846195235628
6.759188594525743,5.997784564682637,9.610306033030426,10.964341649924298
6.81916644017257,6.1577642447703145,9.719949449529668,11.032666472328144
6.880744082620272,6.2808238351991585,9.83027611425295,11.090253389720427
6.943552320972264,6.366241645973973,9.941178648150155,11.13745875333832
7.007214737432004,6.413350130892149,10.052553235683538,11.174320907776522
7.071348238740925,6.421393586483118,10.164296444761304,11.200357756881704
7.135562174605757,6.389433673294513,10.27630002233012,11.21443072405403
7.199456511338702,6.316325591821068,10.38844432957066,11.214697534822736
7.262619767256912,6.200780928504955,10.500591304918888,11.198670604910179
7.324627576541961,6.0415238531353275,10.61257801096799,11.163390376414473
7.385042815073315,5.837534659536986,10.724211914732134,11.105711974345049
7.443418161668685,5.58835829019643,10.835269034475585,11.02268770006564
7.49930174457065,5.29443696218636,10.945495911476241,10.91200772979155
7.5522461141925135,4.957409488964686,11.054615988774156,10.772440755657103
7.6018202090821605,4.580311849028558,11.162340396330727,10.604202198748784
7.647623327572446,4.167620514364697,11.268382418318215,10.409178089639198
7.689299532716093,3.7251048917001413,11.372474199214606,10.190952810146456
7.726550581633094,3.259493942526372,11.47438372731607,9.95462665639282
7.7591455210583575,2.7780035871282824,11.573929993879998,9.706454513206776
7.78692555692964,2.287801879968174,11.670994539012066,9.453375108812537
7.809803575729322,1.7954978276982416,11.76552829010019,9.202518813624819
7.827758554006304,1.306725431428438,11.857553478236438,8.960776374601835
7.840825808320589,0.8258643013123744,11.947161241982457,8.734486496053838
7.849084451333713,0.35590377109654,12.034506106942995,8.529267843939255
7.852643489044678,-0.10157067905248612,12.119798785382388,8.349992020047388
7.851627782254154,-0.5463062429023635,12.203298705582862,8.20087525693853
7.84616471982513,-0.9792689755444426,12.285307458152246,8.08565961253096
7.836372030069685,-1.4025256763075857,12.366164054277556,8.007856996329762
7.822346773306609,-1.8191519487231518,12.446242624240854,7.971037543599254
7.804155253819378,-2.23318836419588,12.525952999676846,7.979153862436597
7.781823370177419,-2.6496587919350922,12.605744538301213,8.036901220404541
7.755326782258067,-3.074656564066175,12.686113550505258,8.150116994419584
7.724580216617405,-3.5154898103695045,12.767614720449453,8.326213202940982
7.6894253185137105,-3.9808427571111165,12.850876852478862,8.57459502803373
7.6496168909426,-4.480819431412521,12.9366228027592,8.906897912104167
7.604808696628474,-5.0265023926376635,13.02569178188024,9.336555183123007
7.554543672702097,-5.628076178947809,13.11905733371147,9.876399974341956
7.4982629109126195,-6.289221941816724,13.217821333454891,10.531129344966093
7.435370691494453,-6.992993602298714,13.323132626904552,11.277943453459837
7.365440755471465,-7.672874700289371,13.43591206143915,12.02644643196465
7.288712008468572,-8.177117595704358,13.556176525758797,12.568738092360812
7.2069408325115285,-8.296032910944973,13.681863906682405,12.61622991826644
7.123980503402079,-7.946628300736241,13.80802620586507,12.054056939849243
7.044514220394716,-7.310324503074001,13.928566775263564,11.129042587937704
6.971410975363976,-6.633388318414369,14.03985720114294,10.172667102648955
6.905077092179832,-6.035913387641976,14.141583872169429,9.341496879242364
6.844717958303413,-5.539731119987017,14.234998840961852,8.659171319593852
6.789320647103542,-5.132691378529923,14.32159055415779,8.105106799316335
6.737993733318243,-4.797069206049576,14.402641622150954,7.652718682114582
6.6900230412577475,-4.517412334234744,14.4791688089721,7.279512632645965
6.6448489179154,-4.281709223835767,14.55196393529856,6.968275605787087
6.6020318256770425,-4.080902699264319,14.62164669135643,6.706179082873271
6.561222798684399,-3.9081789067770716,14.688708482185163,6.483676890249065
6.522141009616629,-3.758368152203217,14.753545251087653,6.29361208553702
6.4845573280945965,-3.6274987081982,14.816481371943024,6.130563491802351
6.448282341012614,-3.512477213243847,14.877787006861046,5.990381435956462
6.413157568880176,-3.4108623971083567,14.937690821220611,5.869858560198882
6.379048944909092,-3.3207055500872467,14.996389406822601,5.766493444510779
6.34584188940822,-3.240438962529499,15.054054341267708,5.678316651913734
6.313437499782925,-3.1687997050563954,15.110837507786846,5.603757816532651
6.281749502732361,-3.104780275637641,15.166875085952173,5.541538939975865
6.250701699975985,-3.047599918648247,15.222290475351931,5.490584260294055
6.220225700789502,-2.996690894227218,15.277196317954871,5.449942025984875
6.19025879184723,-2.951692789737075,15.33169573821472,5.418718947687869
6.160741863949859,-2.9124457887643853,15.385882927691599,5.396033705585404
6.131617406062215,-2.8789723459776795,15.439843264747452,5.380999718484333
6.102827682602438,-2.8514385792676027,15.493653261932295,5.372746069393206
6.074313296809762,-2.830093886226392,15.547380722626226,5.370476443886103
6.046012357947498,-2.8151985253539076,15.601085487065086,5.373551107827918
6.017860372693958,-2.8069583704611185,15.654820998143366,5.3815644677668875
5.989790788989347,-2.805486742238748,15.708636642821036,5.394390343691212
5.96173592156696,-2.8108032963692824,15.762580546257947,5.412181224625382
5.933627888603267,-2.8228654219784435,15.816702358504202,5.435328059492078
5.9053992343834825,-2.8416174580176983,15.871055639099122,5.464401163574165
5.8769830598033055,-2.8670417949406883,15.925699650734863,5.5000944947122274
5.848312641853899,-2.899201471783376,15.980700595681986,5.543187986765255
5.819320627136065,-2.9382711250744453,16.03613247554964,5.594532923705515
5.789937915885321,-2.9845584026648018,16.092077804786694,5.655058577447103
5.760092331858672,-3.0385202915362646,16.148628390561164,5.725795745400211
5.72970712894331,-3.100779044039331,16.205886348015166,5.807913246207912
5.698699338502917,-3.172141707904064,16.263965480477246,5.902765235393928
5.666977921423876,-3.2536265001085787,16.322993132831186,6.01194926878491
5.634441656422791,-3.3464987739116485,16.383112625519036,6.1373768687063475
5.600976668683674,-3.452319134617729,16.4444863942061,6.281359790714408
5.566453477337497,-3.5730061532124164,16.507299992113243,6.446716145589916
5.530723415805372,-3.7109156278979785,16.57176715356914,6.636900621780218
5.493614259526392,-3.868936427120855,16.638136159786942,6.8561611323532965
5.454924895255184,-4.050597328677741,16.706697771110473,7.109717364060674
5.414418921968407,-4.260164734437498,16.77779494475108,7.403937962255679
5.371817274624032,-4.502675755502746,16.851834324373637,7.746446165188752
5.326790517069004,-4.783767925469135,16.929298786025527,8.145971356376998
5.278952837814313,-5.108976846240186,17.010758499589297,8.611504341207723
5.227863069351912,-5.48176059460066,17.096873543001376,9.149744628151621
5.173045463405906,-5.89871168575503,17.18837098928289,9.758715883212988
5.114058346548355,-6.339334068183776,17.28595814811502,10.413894192977729
5.0506650058665175,-6.748367389668606,17.390097090044797,11.043958402964906
4.983181331969831,-7.018935880966867,17.500536674074446,11.507446720260253
4.912991973160163,-7.014563373033219,17.61561114127705,11.622817189133148
4.842846339429831,-6.670769398382522,17.731839313168383,11.307869067336053
4.7761386454460055,-6.080153148048512,17.844918003841745,10.69474975645184
4.7153371139655205,-5.40646382414213,17.951865501406264,10.009004060832975
4.6612724757240995,-4.756677226167112,18.051955542014593,9.394826629929748
4.613705703462428,-4.1661000702230035,18.14590380831389,8.897832050969512
4.5720447027601985,-3.634422568667814,18.234882128823585,8.516094587210741
4.5357004770735205,-3.1503829944036026,18.320043074695693,8.234021766246455
4.5041966471294845,-2.70145414751116,18.40238329235816,8.03526024265776
4.477182105654373,-2.276639978153647,18.48273589478474,7.9061740900164805
4.454415705872837,-1.8669098151060521,18.561797635684904,7.8361687112222125
4.435746607721776,-1.4649783668911103,18.640159322797125,7.817173618018222
4.4210968240528645,-1.0649860665572277,18.718331058977306,7.843009264921529
4.410446963387292,-0.6622370036567824,18.79676115162652,7.908827475549159
4.403824593350724,-0.2530256650056459,18.87584942638201,8.010651155266187
4.401294336700668,0.165452707642271,18.95595593793467,8.144996651029338
4.402948863777091,0.5951222299124475,19.037405904444967,8.308557658350576
4.4089000860762155,1.036993043921388,19.120491481028473,8.49793624730109
4.419270016515429,1.4910924042796707,19.205470843501484,8.70941622005838
4.4341809405582255,1.9563814146909495,19.292565005702066,8.938784129418643
4.453744754705135,2.43068343714901,19.381952846996253,9.181212619870788
4.4780515890766255,2.910654936819992,19.47376497319496,9.431227666168205
4.507158138444826,3.3918316722032626,19.568077249856643,9.682783315760195
4.541076455166858,3.86877944435164,19.664905083014244,9.929461761081434
4.579764249610375,4.335366150193997,19.764199700625056,10.164800801549555
4.623117911112315,4.785149753206529,19.86584770864055,10.382725496099695
4.67096940864438,5.211848001035626,19.96967496360155,10.578030989964706
4.723087888654736,5.609827913029067,20.075455273501195,10.746838647482264
4.779186167785027,5.9745366598664855,20.182923659976016,10.886939025346855
4.838931534383692,6.302799153249078,20.291793050229483,10.997950445386556
4.901959525916182,6.592933203933533,20.401772554683347,11.081259498596628
4.967888857955518,6.8446729866421006,20.512585149669313,11.13975809340338
5.036335587821939,7.058931933066706,20.62398273060335,11.17743379282177
5.106924907152606,7.237463683201988,20.735757068531566,11.198892477193354
5.179299543984626,7.38248770945267,20.847745993303498,11.208890616905679
5.253124421079153,7.496336623634851,20.959834899472554,11.211934329837923
5.328087787315501,7.581162639939406,21.071954242770932,11.211974767567604
5.403899413714895,7.638719787161307,21.18407399044661,11.212204296136854
5.480286611586508,7.670222202349593,21.296196033407977,11.214941164079507
5.556988833610004,7.67626947380724,21.408345445048774,11.221582987645576
5.633751528348077,7.656826973550316,21.520561274925228,11.232609542532252
5.71031979808358,7.611250488932589,21.632887370350552,11.247620108557975
5.786432302972906,7.5383480679404204,21.745363571436133,11.265397292791675
5.86181578365231,7.436476011872513,21.85801754436405,11.283995890911665
5.9361805437710355,7.303669009897869,21.970857503273166,11.300860600033218
6.0092172338700145,7.1378054958523585,22.083866109273497,11.31297930256191
6.080595288828538,6.936807689003186,22.196995902299115,11.317078419019277
6.14996336571857,6.698871094536001,22.310166686489307,11.309862915761125
6.2169520766639295,6.422710741565662,22.42326531564692,11.288295886188317
6.281179184079586,6.107802325906132,22.536148274508804,11.249902068093402
6.342257207338648,5.754588021767069,22.64864729518974,11.19306836721117
6.399803087556318,5.364612205691616,22.76057797886185,11.117305796969632
6.453449209613234,4.940554818973677,22.871751036831547,11.023435023227279
6.502854757802971,4.486141234143979,22.98198538706382,10.913664701354376
6.547716170144411,4.005926146760813,23.09112203407736,10.79154816706575
6.587775431612019,3.5049708896840204,23.19903751574802,10.661826517457683
