th1 (rad),w1 (rad/s),th2 (rad),w2 (rad/s),a1 (rad/s^2),a2 (rad/s^2)
1.5936775205028018,2.927331048808952,1.4987313738453742,1.9123520418865305,-10.921613323841603,1.9102558217480652
1.6229508309908913,2.8181149155705363,1.5178548942642396,1.9314546001040112,-10.94053610365212,1.9270145339843479
1.6511319801465967,2.708709554534015,1.5371694402652798,1.9507247454438545,-10.926231013745642,1.8952426657389285
1.6782190756919368,2.5994472443965586,1.5566766877197182,1.9696771721012438,-10.883885672428242,1.8238267335814538
1.7042135481359024,2.490608387672276,1.5763734594407306,1.9879154394370584,-10.818317996495324,1.7210388129762306
1.7291196320126252,2.382425207707323,1.5962526138351012,2.005125827566821,-10.733933120847187,1.5944306297402917
1.7529438840896985,2.275085876498851,1.6163038721107694,2.0210701338642236,-10.634710135133565,1.4507848213170238
1.775694742854687,2.1687387751475153,1.6365145734494118,2.035577982077394,-10.524209950895607,1.2961089298970805
1.7973821306061621,2.063496675638559,1.6568703532701856,2.0485390713763647,-10.40559685719162,1.1356593283225696
1.8180170973625478,1.9594407070666429,1.6773557439839493,2.0598956646595905,-10.281667814348735,0.9739844505023459
1.8376115044332142,1.8566240289231555,1.697954700630545,2.069635509164614,-10.154885005456272,0.8149789528703127
1.8561777447224457,1.7550751788685928,1.7186510557221912,2.077785298693317,-10.027408463408472,0.6619425073364141
1.8737284965111316,1.6548010942345082,1.7394289087091244,2.0844047237666814,-9.901126654232444,0.5176386915163796
1.8902765074534766,1.5557898276921838,1.7602729559467911,2.0895811106818454,-9.77768371743542,0.38435086256745354
1.9058344057303984,1.4580129905178296,1.7811687670536096,2.09342461930752,-9.658502664816078,0.26393299455622404
1.9204145356355766,1.361427963869669,1.8021030132466849,2.0960639492530824,-9.54480425841229,0.15785427095061483
1.9340288152742733,1.265979921285546,1.8230636527392157,2.0976424919625885,-9.437621567259729,0.0672368083499308
1.9466886144871287,1.1716037056129487,1.8440400776588415,2.098314860046088,-9.33781038026647,-0.007113700498878558
1.9584046515432583,1.078225601810284,1.8650232262593023,2.098243723041099,-9.246055762602573,-0.06468434761981248
1.969186907561361,0.9857650441842583,1.8860056634897133,2.097596879564901,-9.162875113717249,-0.10523808992882054
1.9790445580032037,0.8941362930470858,1.9069816322853623,2.096544498665613,-9.088618139241376,-0.12880310125318736
1.9879859209336745,0.803250111654672,1.9279470772720184,2.095256467653081,-9.023464204777634,-0.13566780274107418
1.9960184220502213,0.7130154696068957,1.9488996419485491,2.0938997896256706,-8.967417611076257,-0.1263808249751053
2.00314857674629,0.6233412934961331,1.9698386398448058,2.0926359813759197,-8.920301427789562,-0.10175497694879382
2.0093819896812515,0.5341382792182374,1.990764999658565,2.091618431606432,-8.881750653436027,-0.0628740815838421
2.014723372473434,0.44532077268387715,2.011681183974629,2.0909896907905936,-8.851205634243568,-0.011101279098229125
2.0191765802002726,0.35680871634144146,2.032591080882535,2.090878677999611,-8.82790686995561,0.051912898500525925
2.022744667363687,0.26852964764188536,2.053499867662531,2.091397806984616,-8.810892548265976,0.12422470149418888
2.025429963840106,0.1804207221592256,2.0744138457323773,2.092640053999558,-8.799000358987076,0.2035959233821531
2.027234171061698,0.09243071856935485,2.095340246272373,2.0946760132333795,-8.790875310117174,0.2874998544879334
2.028158478247392,0.004521965468183106,2.116287006404707,2.097551011778259,-8.784985353831603,0.3731371855024548
2.0282036979020734,-0.08332788807013293,2.1372625165224894,2.1012823836332837,-8.779646573283662,0.45746457200218693
2.027370419021372,-0.17112435380296953,2.158275340358822,2.1058570293533054,-8.773059417412608,0.5372382362212933
2.0256591754833426,-0.25885494797709563,2.179333910652355,2.1112294117155184,-8.763356941368508,0.6090742725930599
2.023070626003572,-0.3464885173907807,2.20044620476951,2.117320154441449,-8.748665174610247,0.6695261778962778
2.019605740829664,-0.43397516913688317,2.2216194063139247,2.1240154162204115,-8.727174595540987,0.7151785369210266
2.015265989138295,-0.521246915092293,2.2428595604761288,2.131167201589622,-8.697220297227087,0.7427538330057727
2.0100535199873724,-0.608219118064564,2.264171232492025,2.1385947399196796,-8.657366912647287,0.7492271946359672
2.0039713288067267,-0.6947927871910369,2.2855571798912218,2.1460870118660393,-8.60649293407969,0.7319418159551049
1.9970234009348162,-0.7808577165318338,2.3070180500098822,2.15340643002559,-8.543867970116159,0.6887161641948716
1.989214823769498,-0.8662963962329954,2.328552114310138,2.1602935916675388,-8.469216010156313,0.6179332988996297
1.980551859807168,-0.9509885563345585,2.3501550502268134,2.166472924656535,-8.382758136750583,0.5186030025026588
1.9710419742438225,-1.0348161377020644,2.3718197794733786,2.1716589546815617,-8.285229449785334,0.39038912551484434
1.9606938128668019,-1.1176684321999177,2.393536369020194,2.1755628459367102,-8.177867178498007,0.23359750881976749
1.9495171285448027,-1.1994471039848977,2.415291997479561,2.177898821024908,-8.06236979970739,0.04912371724599386
1.9375226575049538,-1.2800708019819715,2.43707098568981,2.178390058197368,-7.9408300343422225,-0.16163596820361495
1.924721949485134,-1.3594791023253938,2.4588548862717836,2.176773698515332,-7.815647361908555,-0.3969029832618366
1.91112715846188,-1.4376355759444794,2.480622623256937,2.172804668682714,-7.689427711464714,-0.6546541423170243
1.8967508027024353,-1.5145298530591265,2.5023506699437643,2.1662581272595434,-7.564878940337154,-0.9327668921108407
1.881605504171844,-1.590178642462498,2.5240132512163598,2.1569304583384348,-7.444710497017929,-1.2291606717235364
1.865703717747219,-1.6646257474326773,2.545582555799744,2.1446388516211994,-7.331544409189732,-1.5419244773648642
1.8490574602728924,-1.7379411915245746,2.567028944315956,2.129219606847551,-7.227842747620118,-1.8694233363636001
1.8316780483576467,-1.8102196190007758,2.5883211403844317,2.110525373483915,-7.1358543883656855,-2.2103794829603873
1.8135758521676388,-1.8815781628844326,2.609426394119271,2.088421578654311,-7.057581618967056,-2.5639270644667636
1.7947600705387945,-1.9521539790741032,2.630310609905814,2.0627823080096435,-6.9947652138871135,-2.9296417681327056
1.7752385307480534,-2.0221016312129745,2.6509384329859103,2.0334858903283166,-6.948885218913869,-3.3075485953679147
1.7550175144359237,-2.091590483402113,2.6712732918891935,2.0004104043746374,-6.921173882945269,-3.698112045419511
1.7341016096019026,-2.160802222231566,2.6912773959329397,1.9634292839204421,-6.912636904254806,-4.102213271532596
1.712493587379587,-2.229928591274114,2.710911688772144,1.9224071512051162,-6.924079298773193,-4.52111849340099
1.690194301466846,-2.299169384261846,2.7301357602841954,1.8771959662711062,-6.956132607718806,-4.956442278663294
1.6672026076242275,-2.368730710339034,2.7489077199469065,1.8276315434844732,-7.009280705627404,-5.410108423197428
1.6435153005208372,-2.438823517395308,2.767184035381751,1.773530459252499,-7.083882037904438,-5.884310210813533
1.619127065346884,-2.5096623377743525,2.784919339974276,1.7146873571443637,-7.1801866332699875,-6.381470919420643
1.5940304419691407,-2.5814642041070526,2.8020662135457197,1.6508726479501572,-7.298346657267901,-6.904204622260349
1.5682157999280701,-2.6544476706797315,2.818574940025221,1.5818306017275536,-7.438419581792146,-7.455276634763609
1.5416713232212729,-2.728831866497653,2.8343932460424965,1.5072778353799174,-7.600363245678107,-8.037562382300752
1.5143830045562963,-2.8048354989544344,2.8494660243962957,1.4269022115569099,-7.784022189378198,-8.654003001482014
1.486334649566752,-2.8826757208482165,2.8637350465118647,1.3403621815420896,-7.989104687230729,-9.307555624350224
1.4575078923582698,-2.962566767720524,2.8771386683272855,1.2472866252985875,-8.215149903243555,-10.0011360211436
1.4278822246810645,-3.0447182667529593,2.8896115345802715,1.1472752650871514,-8.461484593160673,-10.737551092505921
1.3974350420135349,-3.129333112684566,2.901084287231143,1.0398997541620922,-8.727168802042582,-11.519418617723113
1.3661417108866891,-3.216604800704992,2.9114832847727636,0.9247055679848611,-9.010930100748022,-12.34907170815544
1.3339756628796393,-3.306714101712472,2.920730340452612,0.8012148509033068,-9.311086107799692,-13.228445626770318
1.3009085218625145,-3.399824962790469,2.928742488961645,0.6689303946356036,-9.625455399205572,-14.158945073338453
1.2669102722346097,-3.4960795167825247,2.9354317929080014,0.527340943902219,-9.951257463042541,-15.141290771243618
1.2319494770667845,-3.59559209141295,2.9407052023470235,0.37592803618978277,-10.285003150376443,-16.17534530412925
1.195993556152655,-3.6984421229167146,2.9444644827089212,0.21417458314849025,-10.622378142210287,-17.259919714077807
1.1590091349234877,-3.8046659043388176,2.946606228540406,0.041575386007712184,-10.958123306509682,-18.39256444410184
1.1209624758800996,-3.9142471374039145,2.9470219824004835,-0.14235025843330623,-11.285917438836366,-19.569350801080212
1.0818200045060604,-4.027106311792278,2.9455984798161503,-0.3380437664441084,-11.598269692590245,-20.784652174422828
1.0415489413881376,-4.143089008718181,2.9422180421517092,-0.5458902881883366,-11.886430869489335,-22.030937609597522
1.0001180513009558,-4.261953317413074,2.936759139269826,-0.7661996642843119,-12.14033443425671,-23.298593706656167
0.9574985181268251,-4.3833566617556405,2.9290971426269827,-0.9991856013508735,-12.348579330079893,-24.575793737864007
0.9136649515092686,-4.506842455056439,2.919105286613474,-1.2449435387295136,-12.498467023771097,-25.84843475027479
0.8685965269587043,-4.6318271252941505,2.9066558512261786,-1.5034278862322614,-12.576104296646118,-27.100163530497465
0.8222782557057627,-4.757588168260612,2.891621572363856,-1.774429521537236,-12.566580767548206,-28.312509954018807
0.7747023740231567,-4.883253975936094,2.8738772771484835,-2.0575546210774243,-12.454225802567956,-29.4651408835553
0.7258698342637957,-5.007796233961773,2.853301730937709,-2.3522060299129772,-12.222943442161736,-30.536239267743987
0.675791871924178,-5.130025668383391,2.829779670638579,-2.6575684225904173,-11.856616782808322,-31.5030018779771
0.6244916152403441,-5.2485918362114745,2.803203986412675,-2.972598441370188,-11.339565875935852,-32.34223643074348
0.5720056968782294,-5.361987494970833,2.7734780019989733,-3.296020805677623,-10.657037047730014,-33.0310266807082
0.5183858219285211,-5.468557865448133,2.740517793942197,-3.626331072484705,-9.795698190739463,-33.54742501037461
0.4637002432740398,-5.566514847355528,2.70425448321735,-3.961805322588451,-8.744115451344355,-33.87112875748682
0.4080350948004845,-5.653956001868972,2.6646364299914653,-4.300516610163319,-7.493192617088682,-33.98410109701386
0.3514955347817948,-5.728887928039859,2.621631263889832,-4.640357621133457,-6.036565082108065,-33.87111047435605
0.2942066555013962,-5.789253578860939,2.5752276876784976,-4.979068725877018,-4.370953834347836,-33.520183155495836
0.2363141197127868,-5.832963117204417,2.5254370004197275,-5.314270557431977,-2.496498367979764,-32.922987988552336
0.1779844885407426,-5.857928100884215,2.472294294845408,-5.6435004373175,-0.4170966567539741,-32.075195576230776
0.11940520753190045,-5.862099067451755,2.4158592904722327,-5.964252393079808,1.859219081446309,-30.97686921787793
0.0607842168573829,-5.843506876637292,2.3562167665414346,-6.274021085258587,4.319853823941671,-29.632945810205843
0.0023491480910099796,-5.800308338397875,2.293476555688849,-6.570350543360646,6.947177218750573,-28.05384671360326
-0.055653935292968776,-5.730836566210369,2.227773050255242,-6.850889010496679,9.718054639918687,-26.25622003345736
-0.11296230095507247,-5.633656019811182,2.1592641601502756,-7.113451210831252,12.603475784955968,-24.26376021668609
-0.1692988611531843,-5.5076212619616225,2.088129648041963,-7.356088812998113,15.568419465587809,-22.10798733674872
-0.22437507377280053,-5.3519370673057445,2.014568759911982,-7.5771686863656,18.57212316995818,-19.828811420971558
-0.277894444445858,-5.166215835606162,1.938797073048326,-7.7754568005753155,21.568926694062714,-17.474674802943724
-0.3295566028019196,-4.950526568665535,1.8610425050425727,-7.950203548604753,24.509818715926514,-15.102075634862773
-0.379061868488575,-4.70542838150627,1.7815404695565251,-8.10122430495338,27.34472935900493,-12.774340175982154
-0.4261161523036377,-4.4319810879162205,1.7005282265069912,-8.2289677067132,30.02548882594297,-10.559629743014286
-0.4704359631827999,-4.131726199656791,1.6182385494398592,-8.334564004143344,32.5092349066712,-8.528323250420124
-0.5117532251793678,-3.806633850590079,1.5348929093984258,-8.419847236647545,34.76193479805509,-6.750075581904266
-0.5498195636852686,-3.459014502609528,1.4506944370319503,-8.487347992466587,36.76162576483939,-5.290975341944419
-0.5844097087113639,-3.091398244961134,1.3658209571072844,-8.54025774588603,38.501000930374154,-4.21127774995347
-0.6153236911609752,-2.7063882356573923,1.280418379648424,-8.582370523385565,39.98907557086067,-3.5641530531541754
-0.6423875735175492,-2.3064974799487854,1.1945946744145683,-8.618012053917107,41.251844599228605,-3.3957774372862173
-0.665452548317037,-1.8939790339564992,1.1084145538753973,-8.65196982828997,42.332042035436885,-3.746934894645361
-0.684392338656602,-1.4706586136021305,1.0218948555924976,-8.689439177236423,43.288289025908405,-4.656137924012731
-0.6990989247926233,-1.0377757233430465,0.9350004638201334,-8.73600055647655,44.194024258989906,-6.164146008680537
-0.7094766820260537,-0.5958354807531474,0.8476404582553678,-8.797642016563357,45.13661404446078,-8.319665974573686
-0.7154350368335852,-0.14446934030853964,0.7596640380897343,-8.880838676309093,46.216897792794995,-11.18590171789774
-0.7168797302366706,0.31769963761941034,0.6708556513266434,-8.99269769348807,47.549046269556435,-14.84731859090973
-0.7137027338604766,0.7931901003149746,0.5809286743917627,-9.141170879397167,49.25974866984384,-19.415108011231947
-0.7057708328573268,1.285787587013413,0.489516965597791,-9.335321959509487,51.48376657668739,-25.02745829481256
-0.6929129569871927,1.8006252527802868,0.3961637460026961,-9.585596542457614,54.34824557209655,-31.834673898995398
-0.6749067044593898,2.3441077085012525,0.30030778057811996,-9.903943281447567,57.927235204062406,-39.94436019273287
-0.6514656273743773,2.9233800605418767,0.20126834776364427,-10.303386883374896,62.12294413463047,-49.26743577392012
-0.6222318267689585,3.5446095018881816,0.0982344789298953,-10.796061241114097,66.37920555887547,-59.134083905786554
-0.5867857317500766,4.208401557476936,-0.00972613348124568,-11.387402080171963,69.05983845519692,-67.44394954276106
-0.5447017161753073,4.898999942028905,-0.12360015428296531,-12.061841575599574,66.38506379737262,-69.18787927521292
-0.49571171675501824,5.562850580002632,-0.24421857003896105,-12.753720368351704,51.75845206501745,-55.4613614635453
-0.4400832109549919,6.080435100652807,-0.3717557737224781,-13.308333982987158,19.318779423150083,-18.23804855303086
-0.37927885994846383,6.273622894884308,-0.5048391135523497,-13.490714468517467,-24.73967801983113,34.21372080045095
-0.31654263099962077,6.026226114685996,-0.6397462582375244,-13.148577260512958,-59.30978470038361,73.62339743528744
-0.2562803698527608,5.43312826768216,-0.771232030842654,-12.412343286160084,-72.0339328328259,84.06094722298626
-0.2019490871759392,4.712788939353901,-0.8953554637042549,-11.571733813930221,-69.89949585457113,75.60206103534591
-0.1548211977824002,4.01379398080819,-1.011072801843557,-10.815713203576761,-62.879343976616184,61.67748033210064
-0.1146832579743183,3.385000541042028,-1.1192299338793248,-10.198938400255756,-55.75180335834708,48.39672572683221
-0.08083325256389803,2.827482507458557,-1.2212193178818824,-9.714971142987434,-49.87283654935449,37.28190087034497
-0.05255842748931247,2.3287541419650117,-1.3183690293117567,-9.342152134283984,-45.35541991261077,28.281560830093
-0.02927088606966235,1.8751999428389041,-1.4117905506545965,-9.059336525983053,-41.98805102497135,20.989356954095065
-0.01051888664127331,1.4553194325891905,-1.502383915914427,-8.849442956442102,-39.522884670195594,15.004790490172125
0.004034307684618595,1.0600905858872345,-1.590878345478848,-8.699395051540382,-37.74756450689701,10.011244880071454
0.01463521354349094,0.6826149408182645,-1.6778722959942518,-8.599282602739667,-36.4931123294804,5.775728072518937
0.021461362951673585,0.3176838175234605,-1.7638651220216484,-8.541525322014477,-35.625953597316304,2.132174359257937
0.02463820112690819,-0.03857571844970259,-1.8492803752417932,-8.520203578421897,-35.038038355601415,-1.0350507760815812
0.024252443942411165,-0.38895610200571673,-1.9344824110260121,-8.530554086182713,-34.63857848733561,-3.804067825976887
0.020362882922353998,-0.7353418868790729,-2.019787951887839,-8.568594764442482,-34.347920706447184,-6.225002633269209
0.013009464053563269,-1.0788210939435448,-2.105473899532264,-8.630844790775173,-34.093336480038225,-8.32701434964915
0.002221253114127821,-1.419754458743927,-2.1917823474400158,-8.714114934271665,-33.80642153580174,-10.123701630723847
-0.011976291473311449,-1.7578186741019444,-2.2789234967827325,-8.815351950578904,-33.421858483609455,-11.617552612584163
-0.029554478214330892,-2.092037258938039,-2.3670770162885217,-8.931527476704746,-32.877353362131124,-12.803885342952626
-0.05047485080371128,-2.42081079255935,-2.456392291055569,-9.059566330134272,-32.11456693531298,-13.67451771184824
-0.07468295872930478,-2.74195646191248,-2.546987954356912,-9.196311507252755,-31.080818434975452,-14.221208691921623
-0.10210252334842958,-3.0527646462622346,-2.6389510694294396,-9.33852359417197,-29.731256672912345,-14.438731304790544
-0.1326301698110519,-3.350077212991358,-2.732336305371159,-9.482910907219877,-28.03110089311859,-14.327294508144938
-0.1661309419409655,-3.630388221922544,-2.827165414443358,-9.626183852301326,-25.95749520222112,-13.893964120279973
-0.20243482416019093,-3.889963173944755,-2.923427252966371,-9.765123493504126,-23.500544616110414,-13.15278368611435
-0.24133445589963848,-4.124968620105859,-3.0210784879014123,-9.89665133036527,-20.663243672185125,-12.123489262430828
-0.28258414210069704,-4.331601056827711,-3.120045001205065,-10.017886222989578,-17.460271450957922,-10.829031096268675
-0.32590015266897415,-4.50620377133729,-3.2202238634349607,-10.126176533952265,-13.915960498612227,-9.292489303314383
-0.37096219038234707,-4.645363376323412,-3.321485628774483,-10.219101426985409,-10.062054406895452,-7.534283186267043
-0.4174158241455812,-4.745983920392367,-3.4236766430443373,-10.29444425884808,-5.93603130049285,-5.57069580630117
-0.46487566334950486,-4.805344233397295,-3.526621085632818,-10.35015121691109,-1.5806920781572038,-3.414573162078743
-0.5129291056834778,-4.821151154178867,-3.630122597801929,-10.384296948531878,2.954638509806131,-1.0785926746465526
-0.5611406172252665,-4.791604769080806,-3.733965567287248,-10.395082875278343,7.611516409294796,1.4191979532587278
-0.6090566649160746,-4.715489604987858,-3.8379163960400313,-10.380890895745756,12.319247582264524,4.048637982453364
-0.6562115609659531,-4.592297129165213,-3.941725304997489,-10.340404515921222,16.992595562926304,6.76120518997989
-0.7021345322576052,-4.42237117353595,-4.045129350156701,-10.272792464021423,21.53187504508202,9.486230688241555
-0.7463582439929648,-4.20705242308513,-4.147857274796915,-10.177930157139008,25.82665385784468,12.13127452500884
-0.7884287682238161,-3.948785884506683,-4.249636576368305,-10.056617411888919,29.76343815124397,14.587492879783724
-0.8279166270688829,-3.651151502994243,-4.350202750487194,-9.91074248309108,33.23652974439324,16.739523405632927
-0.8644281420988253,-3.318786205550311,-4.449310175318105,-9.743347249034752,36.160104131896695,18.478057256142282
-0.8976160041543284,-2.957185164231344,-4.546743647808452,-9.55856667647333,38.47891939310327,19.712351876566206
