th1 (rad),w1 (rad/s),th2 (rad),w2 (rad/s)
5.86459050850536,1.8493010365962204,1.4304017037002108,-1.0507294933145683
5.883083518871323,1.8776739607221251,1.419894408767065,-1.172857558900916
5.9018602584785445,1.9072503478897862,1.408165833178056,-1.2966170140730011
5.920932761957443,1.9383155419882516,1.395199663037326,-1.4220937357733734
5.940315917377325,1.9711679144227943,1.3809787256795922,-1.54940827615452
5.960027596521553,2.006120511957136,1.365484642918047,-1.6787201993930219
5.980088801641124,2.0435032103174695,1.3486974409241168,-1.8102328025453263
6.000523833744299,2.0836654385786195,1.3305951128986635,-1.944198311120706
6.021360488130085,2.126979539178866,1.3111531297874564,-2.0809236532385182
6.042630283521874,2.1738448242922397,1.2903438932550713,-2.22077692400654
6.064368731764797,2.2246923773204728,1.268136124015006,-2.3641946486773393
6.086615655538002,2.2799906215604206,1.2444941775282325,-2.5116899298723934
6.109415561753606,2.3402516247280425,1.2193772782295087,-2.66386150465194
6.132818078000886,2.406038007533425,1.1927386631829893,-2.821403613887281
6.15687845807622,2.4779701420456575,1.1645246270441165,-2.985116352029218
6.181658159496677,2.556733001899406,1.1346734635238243,-3.155915739196292
6.207225489515671,2.6430814609953557,1.1031143061318613,-3.334842001820412
6.233656304125624,2.7378418606360317,1.0697658861136572,-3.523063229254226
6.261034722731984,2.8419059933008626,1.034535253821115,-3.7218692990813205
6.289453782664992,2.956210818013341,0.9973165608303018,-3.93264708481556
6.319015890845126,3.081692485417662,0.9579900899821463,-4.156821439714119
6.349832815699303,3.2191955041686113,0.9164218755850051,-4.395735735970045
6.382024770740989,3.3693056959864127,0.8724645182253047,-4.650428805946477
6.415717827700853,3.5320577924125156,0.82596023016584,-4.921240272234641
6.451038405624978,3.70644641896599,0.7767478274434936,-5.20714512639506
6.488102869814638,3.88965292169792,0.724676376179543,-5.504694893050982
6.526999399031617,4.07592367921215,0.6696294272490331,-5.806473392253578
6.567758635823738,4.255179515487992,0.6115646933264973,-6.099173108796533
6.610310430978618,4.411836561270388,0.550572962238532,-6.361953383657039
6.654428796591322,4.525043027885402,0.48695342840196165,-6.56674820114528
6.699679226870176,4.5721298965786765,0.42128594639050887,-6.683017843387944
6.745400525835962,4.536054703840614,0.3544557679566294,-6.688020365403008
6.790761072874369,4.413774751685734,0.28757556430259934,-6.578334057221193
6.834898820391226,4.21898209419555,0.22179222373038743,-6.373517729874711
6.877088641333182,3.975990407074963,0.1580570464316403,-6.107523192476729
6.916848545403932,3.7097621224616724,0.09698181450687302,-5.814868982663069
6.9539461666285485,3.4392333701690814,0.038833124680242324,-5.521498150552173
6.988338500330239,3.17589508623848,-0.016381856825279408,-5.242947655882601
7.020097451192624,2.9253674158496046,-0.06881133338410542,-4.9866240677723646
7.04935112535112,2.6895600369758554,-0.11867757406182906,-4.75483819348859
7.076246725720879,2.4683583600536845,-0.16622595599671497,-4.5471477949345624
7.1009303093214164,2.2606863766104786,-0.2116974339460606,-4.3618205975456075
7.123537173087521,2.0651027424986768,-0.2553156399215167,-4.19664592168936
7.144188200512508,1.880108331945552,-0.2972820991384103,-4.0493469884579065
7.162989283831963,1.7042916604896368,-0.3377755690229894,-3.9177707214723188
7.180032200436859,1.5363884487534878,-0.3769532762377126,-3.7999609405850117
7.195396084924393,1.375297942874858,-0.4149528856435627,-3.694173705944314
7.209149064353142,1.2200787759821061,-0.45189462270300584,-3.598865997101996
7.221349852112963,1.0699361619304546,-0.4878832826740258,-3.512673728549583
7.232049213732268,0.9242063149517333,-0.5230100199595217,-3.4343870148633013
7.241291276881785,0.7823408915068903,-0.5573538901081547,-3.3629263851956246
7.2491146857968545,0.643892655102957,-0.5909831539601109,-3.2973214979055747
7.255553612347884,0.5085027637176979,-0.6239563689391666,-3.236692840714179
7.2606386399850615,0.37588969420973045,-0.6563232973463085,-3.1802363978245256
7.2643975369271585,0.24583964793666413,-0.6881256613245537,-3.1272110477418495
7.266855933406525,0.11819822090438212,-0.7193977718019722,-3.0769283799767195
7.268037915615569,-0.0071368853748691174,-0.7501670556017394,-3.028744610597424
7.26796654676182,-0.13022231838425505,-0.7804545017077136,-2.982054297414127
7.266664323577977,-0.2510748726734394,-0.8102750446818549,-2.9362855863313833
7.264153574851243,-0.36967677915841546,-0.8396379005451687,-2.890896752058705
7.26045680705966,-0.4859806036526131,-0.8685468680657558,-2.8453738250970937
7.255597001023133,-0.599913845499199,-0.8970006063167267,-2.799229121544416
7.249597862568142,-0.7113833032294548,-0.9249928975321708,-2.752000512886534
7.242484029535848,-0.8202792536151459,-0.9525129026610362,-2.7032512902201127
7.2342812369996965,-0.9264794732991527,-0.9795454155632373,-2.6525704921089392
7.225016442266705,-1.0298531182590698,-1.0060711204843267,-2.5995735782904656
7.214717911084114,-1.1302644654999545,-1.0320668562672313,-2.5439033433595446
7.203415266429115,-1.2275765133462202,-1.0575058897008267,-2.4852309758048423
7.191139501295653,-1.3216544312118452,-1.0823581994588751,-2.4232571785983055
7.177922956983534,-1.4123688464160562,-1.1065907712448582,-2.357713277987523
7.163799268519373,-1.4995989540690422,-1.1301679040247334,-2.288362257107433
7.148803278978683,-1.583235435833864,-1.1530515265958077,-2.2149996602974613
7.132970924620344,-1.6631831740226735,-1.1752015231987822,-2.1374543223204414
7.116339092880118,-1.739363748579305,-1.1965760664219867,-2.0555888837813034
7.0989454553943245,-1.811717705670708,-1.2171319552597997,-1.969300059759207
7.080828278337617,-1.8802065875888523,-1.2368249558573918,-1.8785186329390846
7.062026212461729,-1.944814714310472,-1.2556101421867827,-1.7832091454524597
7.042578065318624,-2.0055507073733247,-1.2734422336413074,-1.6833692654713694
7.022522558244891,-2.0624487468451953,-1.290275926296021,-1.5790288057530197
7.001898070776439,-2.115569552351455,-1.3060662143535513,-1.470248372331394
6.980742375252924,-2.1650010797467933,-1.3207686980768651,-1.357117622978813
6.959092364455456,-2.2108589264707526,-1.3343398743066532,-1.2397531174848184
6.936983775190749,-2.2532864413091747,-1.3467374054815013,-1.118295745697571
6.914450910777657,-2.2924545385206963,-1.357920362938477,-0.9929077249490319
6.89152636539245,-2.328561222282916,-1.3678494401879673,-0.8637691660084603
6.868240753169621,-2.3618308352065136,-1.3764871318480518,-0.7310742158700911
6.844622444817555,-2.3925130541089983,-1.3837978740067527,-0.5950267959809467
6.820697314276465,-2.420881666995724,-1.3897481419665623,-0.45583596518721703
6.796488497606508,-2.4472331767623547,-1.3943065016184344,-0.31371094674691397
6.772016165838885,-2.4718852888907112,-1.3974436110859034,-0.1688558671260716
6.747297312949978,-2.4951753516871973,-1.3991321697571641,-0.021464259857384982
6.722345559433106,-2.5174588277603003,-1.399346812355738,0.12828661050873028
6.6971709711555025,-2.539107883896519,-1.3980639462506508,0.28024155217518026
6.671779892316537,-2.5605101928717504,-1.395261530728899,0.43427333331963613
6.646174790387819,-2.582068044813421,-1.3909187973957025,0.5902886215715121
6.620354109939686,-2.6041978674747046,-1.3850159111799873,0.748233962460101
6.594312131264939,-2.627330254291316,-1.3775335715553862,0.9081018055118897
6.568038828722026,-2.6519105964728436,-1.3684525535002674,1.0699366114155036
6.541519722757298,-2.678400410564652,-1.3577531873861124,1.2338410993321514
6.514735718651651,-2.7072794453524454,-1.3454147763927908,1.399982717350333
6.487662924198126,-2.739048640170195,-1.3314149492192875,1.5686004373718854
6.460272437796425,-2.7742339874299495,-1.3157289448455687,1.7400119824138187
6.432530097922125,-2.813391319468013,-1.2983288250214304,1.914621579908165
6.404396184727445,-2.8571119827313263,-1.2791826092223488,2.0929282834305893
6.375825064900132,-2.906029261983394,-1.2582533263880429,2.2755347911498505
6.346764772280299,-2.9608252411356117,-1.2354979784765443,2.463156467764043
6.317156519868942,-3.022237480313607,-1.2108664137989038,2.6566298723873554
6.286934145065806,-3.091064357472673,-1.1843001150750303,2.8569193798404062
6.25602350149108,-3.1681670101758117,-1.1557309212766262,3.065119240881275
6.224341831389322,-3.25446425710763,-1.1250797288678136,3.282446296028433
6.191797188818246,-3.35091425015877,-1.0922552659075293,3.51021494179815
6.158288046316658,-3.4584722249688262,-1.0571531164895478,3.7497798976078593
6.12370332406697,-3.578006565008812,-1.0196553175134693,4.002422414507649
6.087923258416882,-3.710144152867998,-0.9796310933683928,4.269139945312325
6.0508218168882015,-3.854999528634375,-0.9369396939152695,4.550276346868587
6.012271821601858,-4.0117217069371325,-0.8914369304465837,4.84490070962176
5.972154604532486,-4.177776303177576,-0.8429879233503661,5.1498198641664645
5.93037684150071,-4.347898215105763,-0.7914897247087015,5.458133217334696
5.886897859349652,-4.5127733737837845,-0.7369083925353546,5.757408978928264
5.841770125611815,-4.657861267973597,-0.6793343027460719,6.028051620142681
5.795191512932079,-4.763431359760895,-0.619053786544645,6.243351379584066
5.74755719933447,-4.807500281321704,-0.5566202727488044,6.37356112987182
5.699482196521253,-4.7726220052710175,-0.49288466145008625,6.395317232148609
5.651755976468543,-4.654090603063545,-0.42893148912860013,6.302986765420663
5.605215070437907,-4.463456233799362,-0.36590162147439353,6.113442694319979
5.560580508099914,-4.2235455535824515,-0.3047671945311937,5.8590156660032315
5.518345052564089,-3.9589177783495386,-0.2461770378711614,5.574175868492734
5.478755874780593,-3.6888155866297705,-0.19043527918623407,5.285784933600522
5.441867718914295,-3.425220438080236,-0.13757742985022886,5.010487616615668
5.407615514533493,-3.1741441250817437,-0.08747255368407217,4.756584687912651
5.3758740732826755,-2.937727736956667,-0.03990670680494565,4.526991869569261
5.346496795913109,-2.7159594688330864,0.005363211890746955,4.321641367800456
5.319337201224778,-2.5077841155972154,0.04857962556875152,4.139023485469309
5.294259360068806,-2.3117350355691,0.08996986042344461,3.97705896721983
5.271142009713115,-2.1262642171539454,0.12974045009564292,3.8335505539238834
5.249879367541576,-1.949900442205095,0.16807595563488176,3.706396122336006
5.230380363119525,-1.7813155802733103,0.20513991685824182,3.593675108887454
5.212567207316792,-1.6193442532834335,0.24107666794711635,3.4936710801117297
5.196373764783957,-1.4629812468373213,0.2760133787482337,3.4048641794107013
5.181743952315585,-1.311369363224888,0.31006202054234067,3.325910940973927
5.1686302586833355,-1.1637841038542105,0.3433211299520799,3.2556202326067503
5.156992417644793,-1.0196182397771572,0.3758773322781474,3.1929295054512377
5.146796235247022,-0.878367605841929,0.40780662733265977,3.136883170858132
5.138012559188603,-0.7396185833755847,0.4391754590412411,3.0866137432810565
5.130616373354847,-0.6030373131667076,0.4700415964740517,3.0413258205471445
5.1245860002231804,-0.4683604894439368,0.5004548546795231,3.0002827209827916
5.119902395328741,-0.335387512694997,0.530457681889351,2.9627955035703875
5.116548520201791,-0.20397376479018167,0.560085636925055,2.928214080430047
5.114508782553889,-0.07402478290688741,0.5893677777293554,2.8959201479612666
5.11376853472482,0.054508866678489226,0.6183269792089681,2.8653216923967144
5.114313623391605,0.18163618564880993,0.6469801961329352,2.8358488568072806
5.116129985248093,0.30732995414907754,0.675338684701008,2.8069509850301926
5.119203284789584,0.43153067093008235,0.7034081945513099,2.7780946818411167
5.123518591498884,0.5541503152625975,0.731189141369721,2.748762747742743
5.129060094651511,0.675076001167204,0.7586767688471484,2.718453861512629
5.135810854663182,0.7941735753799645,0.7858613074622747,2.686682894969294
5.143752590416982,0.9112911937485544,0.8127281364119676,2.652981753188183
5.152865502354468,1.0262628963762113,0.8392579539438495,2.616900640493475
5.16312813131823,1.1389121897638723,0.8654269603487843,2.5780096587115344
5.1745172532158685,1.2490556343992074,0.8912070569358996,2.5359006499720014
5.18700780955986,1.3565064286252277,0.9165660634356196,2.490189202161792
5.200572873846113,1.4610779740497024,0.9414679554572376,2.440516741147733
5.21518365358661,1.5625874040091954,0.965873122868715,2.3865526400581567
5.230809527626702,1.660859054372864,0.9897386492692966,2.3279962820524687
5.2474181181704305,1.7557278548818696,1.0130186120898212,2.2645790187820696
5.264975396719249,1.8470426188433788,1.035664402277642,2.1960659717606577
5.283445822907683,1.9346692088997788,1.0576250619952485,2.12225762772761
5.302792514996681,2.0184935563833712,1.0788476382725247,2.042991181499767
5.322977450560515,2.098424511151451,1.0992775500875225,1.9581415806177087
5.3439616956720295,2.174396497631102,1.1188589658936996,1.8676222253738355
5.365705660648341,2.246371951128708,1.137535188147438,1.7713852758867836
5.388169380159628,2.3143435065240006,1.1552490409063059,1.6694215153435479
5.411312815224868,2.378335909722088,1.1719432560597414,1.5617597161746373
5.435096174322089,2.438407621297893,1.1875608532214876,1.4484654547166875
5.4594802505350675,2.4946520823624376,1.2020455077686545,1.3296393208501776
5.484426771358692,2.5471986155599016,1.2153419009771562,1.205414473081079
5.509898757514291,2.596212939942095,1.227396045707967,1.075953497224524
5.535860886913712,2.641897287756412,1.238155580680212,0.9414445385207503
5.562279859791276,2.684490124144333,1.2475700260654194,0.8020966924449668
5.589124761032719,2.724265487259666,1.2555909929898692,0.6581346578771642
5.616367415905315,2.7615319858910956,1.2621723395686408,0.5097926763288632
5.643982735764226,2.7966315134784927,1.2672702663319295,0.35730780075193375
5.671949050899011,2.8299377603404747,1.270843344339449,0.200912554918215
5.700248428502416,2.8618546287197315,1.272852469888631,0.04082705717407742
5.7288669747896135,2.8928146766309655,1.2732607404603717,-0.12274931161767366
5.757795121555923,2.923277735333043,1.272033247344195,-0.2896466187160559
5.787027898909254,2.9537298606776123,1.2691367811570344,-0.4597334038268587
5.81656519751603,2.9846827900797384,1.2645394471187659,-0.6329259746862702
5.846412025416828,3.016674084186806,1.2582101873719032,-0.8091979634713861
5.876578766258696,3.0502681354095684,1.2501182077371893,-0.9885901734117297
5.907081447612792,3.086058224039503,1.240232306003072,-1.171220789494376
5.937942029853187,3.124669795602578,1.2285200981081283,-1.357296071418648
5.969188727809213,3.166765117423286,1.2149471373939418,-1.5471216831259014
6.000856378983445,3.2130494415367177,1.1994759205626828,-1.7411148286471616
6.032986873398812,3.2642787420238912,1.1820647722762112,-1.9398173375504995
6.065629660819051,3.321268982965789,1.1626665989007061,-2.1439097386890156
6.0988423506487095,3.3849066636649834,1.141227501513816,-2.3542261149571946
6.1326914172853595,3.4561600001322326,1.117685240364244,-2.5717690327849416
6.167253017286682,3.536089393127281,1.0919675500363948,-2.797722890775501
6.202613911217955,3.625854550867851,1.0639903211286397,-3.0334622835206537
6.238872456726633,3.7267133367294307,1.033655698293433,-3.2805488168436305
6.276139590093927,3.840003335188665,1.0008502101249968,-3.540704178789805
6.314539623445814,3.9670899895907,0.9654431683370988,-3.8157373788602444
6.354210523341721,4.1092529217626055,0.9272857945484964,-4.107387064115
6.395303052559347,4.267461817120309,0.8862119239073464,-4.417011667227609
6.43797767073055,4.44196217597482,0.8420418072350703,-4.745016774532014
6.482397292490298,4.631550527584388,0.7945916394897501,-5.08985213947433
6.5287127977661426,4.832386993880958,0.7436931180950068,-5.4463660383130215
6.577036667704952,5.036239588741917,0.6892294577118766,-5.8033686998583605
6.627399063592372,5.228355521442371,0.631195770713293,-6.140675605144417
6.679682618806796,5.38599639641743,0.5697890146618488,-6.427076350627317
6.73354258277097,5.480075055569948,0.5055182511555757,-6.622631372888204
6.78834333332667,5.482848574648214,0.43929193742669365,-6.689415361082813
6.843171819073151,5.38083022598542,0.3723977838158655,-6.609511398764103
6.896980121333006,5.184077023270706,0.3063026698282245,-6.397871965665064
6.948820891565713,4.9219469809078396,0.24232395017157388,-6.096246100714741
6.998040361374792,4.6284727123680485,0.18136148916442646,-5.752677512957032
7.044325088498472,4.330241664085689,0.12383471403485613,-5.404621816321025
7.087627505139329,4.043000377100957,0.06978849587164587,-5.074295809636982
7.128057508910339,3.773882158753262,0.019045537775276053,-4.771855691593967
7.165796330497871,3.524796709830138,-0.02867301914066362,-4.500159163900582
7.201044297596172,3.2949993592014377,-0.07367461077966944,-4.258358230187113
7.2339942911881865,3.0826172411828514,-0.11625819308154058,-4.044026405923116
7.264820463600015,2.8854433611627313,-0.15669845714077174,-3.854261870044726
7.293674897211642,2.701309657468705,-0.195241075841219,-3.686203455170348
7.320687993786329,2.5282409574427116,-0.23210311039292247,-3.5372418017005227
7.345970403360757,2.3645023052049727,-0.2674755284099277,-3.4050825026170712
7.369615426412806,2.2085978688584684,-0.30152635343609846,-3.2877421993147893
7.391701405101391,2.0592502131832737,-0.3344037754292464,-3.1835175765425814
7.412293907233224,1.9153736043426561,-0.3662389511946722,-3.09094618292579
7.43144764327665,1.7760474778145159,-0.3971484130239301,-3.0087675545085593
7.449208118054795,1.6404925363978338,-0.4272360885690157,-2.935888053198559
7.465613043418773,1.5080502166383085,-0.4565949691010013,-2.871350452416704
7.480693545585156,1.378165487529592,-0.4853084736251683,-2.814308242921362
7.494475200460452,1.2503726331061025,-0.513451556054382,-2.7640042100101088
7.506978926791513,1.1242835762321894,-0.541091598154483,-2.719752710574909
7.518221762553835,0.9995783042257382,-0.5682891252602321,-2.6809250884119886
7.5282175455960925,0.8759969996136324,-0.595098376144352,-2.6469377281947204
7.536977515592229,0.7533335338338092,-0.6215677534262992,-2.6172423246686525
7.544510850930567,0.6314300358537869,-0.6477401766729858,-2.5913180170181245
7.5508251512891045,0.5101722966672231,-0.6736533568431671,-2.568665102312395
7.555926874255777,0.3894858131523638,-0.699340007866291,-2.548800094642579
7.5598217323873005,0.26933231106265854,-0.7248280088127168,-2.531251938371795
7.5625150554979275,0.14970661778030847,-0.7501405281964347,-2.515559216096896
7.564012121675731,0.030633781822557812,-0.7752961203574037,-2.501268216005702
7.564318459493957,-0.0878336412225372,-0.8003088025174607,-2.4879317408731234
7.563440123081731,-0.20561819698811296,-0.825188119926192,-2.4751085534501036
7.56138394111185,-0.3226200784063984,-0.849939205460693,-2.4623633618156333
7.558157740327786,-0.4387196383278751,-0.8745628390788494,-2.4492672546076633
7.553770543944507,-0.5537798848125175,-0.899055511624926,-2.435398501011239
7.548232745096382,-0.6676489647709046,-0.9234094966350385,-2.4203436349047514
7.541556255448674,-0.780162633410178,-0.947612932984086,-2.40369874743044
7.533754629114572,-0.8911467010233832,-0.9716499204583904,-2.385070918064286
7.524843162104339,-1.0004194450980082,-0.9955006296390333,-2.364079721410603
7.5148389676533585,-1.1077939744876169,-1.0191414268531394,-2.340358755612837
7.5037610279084825,-1.2130805333633585,-1.0425450144092676,-2.3135571483967396
7.491630222574849,-1.316088735589244,-1.065680585893235,-2.283341008057555
7.478469335218956,-1.4166297246637254,-1.0885139959738106,-2.249394798669426
7.464303037972319,-1.5145182599325817,-1.111007943960505,-2.2114226307555525
7.449157855372993,-1.6095747357935002,-1.1331221702680605,-2.169149469806292
7.433062108015059,-1.7016271464014723,-1.1548136649661234,-2.122322274498677
7.416045836551044,-1.7905130132428746,-1.17603688771111,-2.0707110833903064
7.398140706418615,-1.8760812961992197,-1.196743998545013,-2.0141100724509995
