th1 (rad),w1 (rad/s),th2 (rad),w2 (rad/s)
4.1957993225937855,-1.923865798683848,2.166015574394466,-1.668879507295665
4.176560664606947,-1.8550054675263314,2.1493267793215094,-1.6863362450517039
4.158010609931683,-1.788299819274918,2.1324634168709924,-1.7080998969107153
4.140127611738934,-1.7237639267030245,2.1153824179018854,-1.7339673164618314
4.122889972471904,-1.6614174655114529,2.098042744737267,-1.7637464759675856
4.106275797816789,-1.6012849675121996,2.080405279977591,-1.7972567044535726
4.090262948141667,-1.5433959887723898,2.0624327129330555,-1.8343288888755624
4.074828988253943,-1.487785207515482,2.0440894240442997,-1.8748056479188917
4.059951136178788,-1.4344924648281412,2.025341367565111,-1.9185414849814102
4.045606211530506,-1.383562759452482,2.0061559527152966,-1.9654029241671702
4.031770583935981,-1.3350462061361013,1.9865019234736248,-2.0152686306432277
4.0184201218746205,-1.2889979651403,1.9663492371671925,-2.0680295144438965
4.0055301422232175,-1.2454781485375064,1.9456689420227535,-2.1235888146920874
3.9930753607378424,-1.2045517068236238,1.9244330538758327,-2.18186215918244
3.981029843669606,-1.1662882970854325,1.9026144322840084,-2.2427775922625655
3.9693669606987516,-1.1307621314466902,1.8801866563613827,-2.3062755618739565
3.9580593393842847,-1.098051801711933,1.8571239007426432,-2.372308854380359
3.9470788213671653,-1.0682400729694368,1.8334008121988397,-2.4408424633160597
3.936396420637471,-1.0414136353316694,1.808992387565679,-2.511853375317042
3.9259822842841543,-1.0176627989018245,1.7838738538125085,-2.585330253132219
3.915805656295136,-0.9970811123699344,1.7580205512811864,-2.6612729916192097
3.905834845171437,-0.9797648802667004,1.7314078213649944,-2.7396921178726537
3.89603719636877,-0.9658125477403003,1.7040109001862678,-2.8206080009741985
3.886379070891367,-0.9553239146779026,1.6758048201765259,-2.9040498301589213
3.8768258317445876,-0.9483991329914544,1.6467643218749366,-2.9900543123472834
3.867341840414673,-0.9451374318805508,1.6168637787514637,-3.078664030914293
3.8578904660958675,-0.9456355058853309,1.5860771384423207,-3.169925397240322
3.8484341110370144,-0.9499854896550695,1.5543778844699174,-3.2638861150945946
3.8389342561404636,-0.9582724318350407,1.5217390233189714,-3.36059206548351
3.829351531822113,-0.9705711687838118,1.4881331026641362,-3.4600835067263223
3.8196458201342747,-0.9869424877552256,1.453532267596873,-3.562390472011973
3.8097763952567223,-1.0074284599272192,1.4179083628767533,-3.667527235826117
3.7997021106574502,-1.0320468180313929,1.3812330905184922,-3.7754857133398168
3.7893816424771365,-1.0607842538942573,1.343478233385094,-3.8862276558859556
3.778773799938194,-1.093588521462339,1.3046159568262345,-3.999675514846881
3.7678379147235708,-1.1303592555105118,1.2646192016777658,-4.1157018707539
3.7565343221684655,-1.1709374611577195,1.2234621829702268,-4.234117370724783
3.7448249475568884,-1.2150937017260734,1.181121009262979,-4.354657193581986
3.7326740105396277,-1.2625151205465581,1.137574437327159,-4.476966177357875
3.7200488593341623,-1.3127915844588174,1.0928047755535804,-4.600582908127157
3.7069209434895742,-1.365401440243258,1.0467989464723089,-4.724923290907028
3.693266929087142,-1.419697633836193,0.9995497135632386,-4.849264407857143
3.67906995274878,-1.4748952527007257,0.9510570694846672,-4.972729813894389
3.6643210002217725,-1.5300618992812038,0.9013297713457232,-5.094277810151512
3.6490203812289606,-1.584112656026619,0.8503869932442081,-5.212694637585427
3.6331792546686943,-1.6358117056050365,0.7982600468683538,-5.32659488758648
3.616821137612644,-1.6837828439009361,0.7449940979924891,-5.4344316460139135
3.5999833091736346,-1.726531065647243,0.6906497815323499,-5.534518857506832
3.582717998517162,-1.7624769995914666,0.6353045929572816,-5.625067990004763
3.5650932285212473,-1.790005121923483,0.579053913057234,-5.704240179673227
3.5471931773020127,-1.8075253343046793,0.5220115112605017,-5.770213582730409
3.529117923958966,-1.8135457034128393,0.4643093754331976,-5.821263696991432
3.5109824669248377,-1.8067521050811666,0.4060967384632833,-5.855852136307865
3.492914945874026,-1.786088528522407,0.34753821710020466,-5.872717105352625
3.475054060588802,-1.7508303177095976,0.2888110460466784,-5.870957118360328
3.457545757411706,-1.700642118271544,0.2301014748630751,-5.850098846148519
3.4405393362289907,-1.6356130976382375,0.17160048640158992,-5.810140744205628
3.4241832052526084,-1.556264188104365,0.11349907895953365,-5.751566407292702
3.408620563371565,-1.4635253948288915,0.05598341488660663,-5.675325129804556
3.393985309423276,-1.3586850220860642,-0.0007698364114389344,-5.5827812912752
3.3803984592024157,-1.2433162369619888,-0.05659764932419094,-5.4756381046863245
3.3679652968327956,-1.1191889922228813,-0.11135403037105418,-5.355844178053009
3.3567734069105666,-0.9881765056762609,-0.16491247215158428,-5.225492733904101
3.346891641853804,-0.8521651482335603,-0.2171673994906253,-5.086723089868084
3.3383699903714685,-0.7129749889394155,-0.26803463038930614,-4.9416323925543235
3.3312402404820745,-0.5722958772014543,-0.3174509543148494,-4.792203135101428
3.32551728171006,-0.43164136814024634,-0.3653729856658636,-4.640249267532314
3.321200868028657,-0.2923204875484584,-0.4117754783411868,-4.487381232990397
3.3182776631531725,-0.15542558618513805,-0.4566492906710907,-4.334988356655965
3.316723407291321,-0.02183345777468218,-0.4999991742376504,-4.184235803944284
3.3165050727135745,0.10778355231967901,-0.5418415322770932,-4.036072775451002
3.3175829082367714,0.23293967537442425,-0.5822022600316032,-3.891248584051442
3.3199123049905155,0.3533139417628353,-0.6211147458721177,-3.7503335931158057
3.323445444408144,0.4687268166980586,-0.6586180818032757,-3.6137425205259697
3.3281327125751248,0.5791169857841268,-0.6947555070085354,-3.4817582009415156
3.3339238824329662,0.6845194821490259,-0.7295730890179506,-3.3545544598690897
3.3407690772544565,0.7850458851433895,-0.7631186336166415,-3.232217237155839
3.3486195361058906,0.8808669584664548,-0.7954408059881999,-3.1147634839193787
3.3574282056905553,0.9721978311290291,-0.8265884408273937,-3.0021576449970366
3.3671501840018454,1.059285645517051,-0.8566100172773641,-2.894325739536738
3.377743040457016,1.1423994863770481,-0.8855532746727315,-2.7911671812019883
3.389167035320787,1.2218223458942041,-0.9134649464847514,-2.6925645533387152
3.4013852587797286,1.2978448581029278,-0.9403905920181386,-2.598391588580406
3.414363707360758,1.3707605383313155,-0.9663745079039426,-2.5085196094274727
3.4280713127440707,1.4408622807835016,-0.9914597039982174,-2.4228226762101572
3.442479935551906,1.5084398928511837,-1.015687930760319,-2.34118166882942
3.4575643344804177,1.5737784736010985,-1.0390997474486132,-2.263487503892374
3.4733021192164286,1.6371574730481124,-1.061734622487537,-2.1896436627332916
3.48967369394691,1.6988502964492767,-1.08363105911487,-2.1195681804744075
3.5066621969114027,1.759124342950419,-1.104826740919614,-2.0531952229526302
3.5242534403409067,1.8182413900600296,-1.1253586931491402,-1.9904763576075877
3.542435854241507,1.8764582545492465,-1.145263456725216,-1.9313816064628602
3.5612004367869994,1.9340276766211706,-1.1645772727898447,-1.8759003540367105
3.5805407135532112,1.991199387795838,-1.1833362763302118,-1.824042170123036
3.6004527074311694,2.0482213341816387,-1.2015766980314422,-1.7758375965105109
3.620934920772986,2.1053410358832436,-1.2193350739965474,-1.7313389373998103
3.6419883311318184,2.162807070392382,-1.2366484633705455,-1.6906210849973724
3.663616401835742,2.220870672972576,-1.2535546742205192,-1.6537824038675097
3.685825108565468,2.279787450178392,-1.2700924982591943,-1.6209456893165843
3.708622983067252,2.3398192034256655,-1.2863019551523602,-1.5922592053297866
3.732021175101509,2.4012358573347132,-1.3022245472056582,-1.5678977949860569
3.756033533674856,2.464317481365003,-1.3179035251555187,-1.5480640388945919
3.780676708488506,2.5293563814045146,-1.3333841655444645,-1.5329894122635455
3.805970272302551,2.5966592179570784,-1.3487140596671,-1.5229353547561488
3.8319368644821217,2.666549075616272,-1.3639434132146613,-1.5181941135738817
3.8586023552382844,2.739367359046508,-1.3791253543504,-1.5190891409405773
3.8859960288287496,2.815475315556137,-1.394316245759806,-1.525974710419763
3.914150781984311,2.8952548717853075,-1.4095759928640035,-1.53923424528375
3.943103330702164,2.97910830539387,-1.424968335316841,-1.5592766026276124
3.972894413756103,3.067456028971493,-1.440561101343117,-1.5865291965066772
4.003568974045818,3.160731412387064,-1.4564263933081838,-1.621426329439096
4.035176288169689,3.25937107425608,-1.4726406566025747,-1.6643903824995283
4.06776999891225,3.3637983938652565,-1.48928456042757,-1.7158025366259415
4.101407982850903,3.4743971052335967,-1.5064425857938293,-1.7759584286366956
4.136151953903239,3.5914707570557036,-1.5242021700801962,-1.845002624235494
4.172066661473796,3.7151827024596136,-1.5426521963225512,-1.9228342382888801
4.209218488498392,3.8454705350291896,-1.56188053870544,-2.0089750590444884
4.247673193848684,3.98192943220278,-1.581970289295885,-2.1023924742682993
4.287492488170711,4.123662444535859,-1.6029942140385678,-2.201274864835091
4.32872911261607,4.269105156193621,-1.6250069626869188,-2.3027709111911414
4.371420164178007,4.415850701870987,-1.6480346717988301,-2.4027312547230055
4.415578671196717,4.560530505784276,-1.6720619843460602,-2.495533484458694
4.46118397625456,4.698840654945113,-1.6970173191906472,-2.5741213096746467
4.508172382804011,4.825822503939943,-1.7227585322873937,-2.630415837349936
4.55643060784341,4.936470422969595,-1.749062690660893,-2.656205844358868
4.605795312073106,5.026615618785077,-1.7756247491044816,-2.644445931840493
4.6560614682609565,5.093847592050004,-1.8020692084228866,-2.590621430343937
4.706999944181456,5.138106801907515,-1.827975422726326,-2.493651905838138
4.758381012200531,5.1616624796653126,-1.8529119417847075,-2.355915138060452
4.809997636997184,5.1684797719447,-1.8764710931653121,-2.1823859491263833
4.861682434716631,5.1632742467007775,-1.898294952656576,-1.9793075603924482
4.913315177183638,5.150631875002898,-1.9180880282605004,-1.7529355162319393
4.964821495933667,5.134430720163867,-1.9356173834228199,-1.508698898395236
5.016165803135306,5.1175983289182225,-1.9507043724067723,-1.2508373362355207
5.067341786424488,5.102113315936563,-1.9632127457691275,-0.9823910971921646
5.118362919583854,5.089133503185023,-1.973036656741049,-0.7053803708915428
5.169254254615704,5.079161945345688,-1.9800904604499645,-0.42104788216136063
5.220045874069161,5.072201892146047,-1.984300939271578,-0.13009369817738087
5.270767892990621,5.067881504696032,-1.9856018762533518,0.16712724116638716
5.321446708037581,5.065545854527005,-1.983930603841688,0.47045068018502034
5.3721021665828514,5.06432101913013,-1.9792260970398377,0.7797870684523814
5.422745376774153,5.063157147084906,-1.9714282263553138,1.0950364334842253
5.4733769482450025,5.060857074789782,-1.9604778620204715,1.4160269165652424
5.5239855189929,5.056095990218165,-1.946317592854819,1.7424713960187455
5.574546478895082,5.047436455971831,-1.9288928788946316,2.073938384402417
5.6250208434547995,5.033342068937805,-1.9081534950506074,2.409834892414335
5.675354264144177,5.0121921845532516,-1.884055146126464,2.7494000903182787
5.725476185989709,4.9822994290798155,-1.8565611452232813,3.0917093707827106
5.775299180280507,4.9419311041204494,-1.8256440515154542,3.4356888641936676
5.824718491321712,4.8893350018468045,-1.7912871628735174,3.780140623273536
5.87361184134018,4.822769562030187,-1.753485756640782,4.123778621038039
5.921839536960482,4.740537698180069,-1.7122479704304017,4.465275437869343
5.9692449139422825,4.641023005790397,-1.6675952160517082,4.803319097738377
6.015655144000187,4.522726466586123,-1.6195620250743246,5.136679007125765
6.060882408666048,4.384301222163298,-1.568195235003067,5.464279420189321
6.104725420887681,4.22458256610019,-1.5135524408011738,5.785278376214279
6.146971246548683,4.042610062196548,-1.455699657039031,6.099149709011343
6.1873973471706485,3.8376387080112635,-1.3947081599489175,6.405765582018781
6.225773734250761,3.609136396335241,-1.3306505041287298,6.705477097640069
6.2618650982141135,3.3567656527536007,-1.263595733152329,6.9991908450719755
6.2954327547416495,3.080348834064342,-1.1936038247016094,7.2884396593278415
6.326236243082293,2.7798178180843225,-1.120719428108331,7.575446047949127
6.354034421263136,2.4551520382306653,-1.0449649676288397,7.86317604963632
6.378585941645443,2.106313256895437,-0.9663332071324765,8.155378458526064
6.399649074214397,1.7331933011693437,-0.8847794225472159,8.456596962091607
6.416981007226091,1.3356052996365735,-0.8002134529262998,8.772126169112191
6.430337060222456,0.9133759844366647,-0.7124921912351778,9.107847948134827
6.4394708200668225,0.4666477681834604,-0.6214137117538295,9.46981583415837
6.444137297748657,-0.0034068612987281366,-0.5267155534122459,9.863325781421223
6.44410322913567,-0.4930981386600291,-0.4280822955980336,10.290988599555398
6.439172247749069,-0.9933874441811177,-0.3251724096024796,10.749010592734958
6.429238373307258,-1.4850604952818436,-0.21768230367513003,11.2207339155774
6.414387768354439,-1.932051040041611,-0.10547496451935603,11.667490749324552
6.3950672579540235,-2.2764851784703355,0.011199942973889487,12.021392775364538
6.37230240616932,-2.44600008146641,0.13141387072753485,12.194160575707695
6.347842405354656,-2.385319301869309,0.2533554764846118,12.11816271808505
6.323989212335962,-2.098019127402909,0.37453710366546233,11.800725419011833
6.303009021061933,-1.6503820126412783,0.49254435785558065,11.327515016933612
6.28650520093552,-1.1263764441477768,0.6058195080249168,10.802232890339457
6.275241436494042,-0.5870532491710011,0.7138418369283114,10.294878206889768
6.269370904002332,-0.06379078189471832,0.8167906189972091,9.835661406797692
6.268732996183385,0.43142391162041815,0.915147233065186,9.43020677532891
6.273047235299589,0.895948616357269,1.009449300818475,9.07317751141371
6.282006721463161,1.3307327297284424,1.1001810759326123,8.755674313000753
6.295314048760446,1.7376606851063885,1.1877378190626198,8.468447414308544
6.31269065561151,2.1184904921870316,1.2724222932057052,8.203070259296304
6.3338755605333805,2.4745126396454773,1.3544529957986682,7.952259187479057
6.358620686929835,2.8065116267451495,1.4339755876734588,7.709876729655898
6.386685803197286,3.1148454676047823,1.5110743549700179,7.470839704319939
6.417834257873334,3.399564203586471,1.5857827520132173,7.231014930035356
6.451829899909199,3.660534033597876,1.6580929013135708,6.987128177963082
6.4884352402451775,3.8975527836719124,1.7279641830932015,6.736689625220631
6.5274107680818965,4.110450329604833,1.7953310793454078,6.477931295942105
6.568515271377945,4.299170916790695,1.8601103923048288,6.209750243866948
6.611506980545852,4.46383593179664,1.9222078947434982,5.931651945545777
6.656145339863818,4.604786730984342,1.9815244141989559,5.6436899975971775
6.702193207173662,4.722608038733276,2.0379613141749275,5.346400050108435
6.749419287560994,4.818133283646313,2.091425314676012,5.040727621369275
6.797600620397457,4.892434009780339,2.1418325908897047,4.727950850324119
6.846524960495261,4.946796112922058,2.189112099392946,4.409600266972665
6.895992921624481,4.982686052833738,2.233208102062673,4.0873782733401995
6.945819782152818,5.001710354415507,2.274081884796075,3.7630812493778407
6.995836885696973,5.005571638529127,2.3117126972898534,3.4385270815991835
7.045892602082264,4.996024146885966,2.346097968105845,3.1154905292889135
7.095852843551124,4.974831291572643,2.377252873398734,2.79564827488339
7.14560115646685,4.94372722307062,2.405209356147568,2.480534833985992
7.195038428697557,4.904383826474307,2.430014704487428,2.171509803792254
7.2440822669623,4.858383974964202,2.4517298025253504,1.8697362738374286
7.292666106711942,4.807201334977546,2.470427165263725,1.5761696633321165
7.340738120061718,4.7521865604470666,2.486188861897046,1.2915558214583616
7.388259985666188,4.694559353084525,2.4991044201116295,1.0164369493159096
7.435205579197033,4.6354056087235715,2.5092687896047887,0.7511637759169357
7.481559635284269,4.575678711873562,2.5167804273639582,0.49591243245619476
7.527316422403004,4.516203968816568,2.5217395516885204,0.25070459563689373
7.57247846209117,4.457685165012656,2.5242465976448893,0.015429683559380097
7.617055313741297,4.400712273845304,2.524400894480483,-0.21013184246156477
7.6610624364797495,4.345769409597076,2.5222995760558673,-0.42628471574371474
7.7045201305757205,4.2932421892045305,2.51803672889843,-0.6333949759742397
7.747452552467766,4.2434237302549285,2.5117027791386874,-0.8318659829573352
7.789886789770315,4.196518558177929,2.503384119309114,-1.0221140717477493
7.8318519753520945,4.152643722868835,2.4931629785916365,-1.2045433296835735
7.873378412580783,4.111826444379679,2.4811175452948007,-1.3795187663069106
7.914496677024579,4.073997645598724,2.4673223576317316,-1.5473370231331411
7.955236653480567,4.038980838500213,2.4518489874004,-1.7081937983280917
7.995626461865569,4.006476097035082,2.434767049417119,-1.8621474561497422
8.035691222835919,3.9760394091859093,2.416145574855622,-2.0090790325927523
8.075451616927777,3.947058739905185,2.3960547845296944,-2.148650288647407
8.11492220432683,3.918729870809765,2.3745682816432203,-2.2802638912972415
8.154109503034928,3.8900376688375173,2.351765642730248,-2.40303342686043
8.193009879723302,3.859751774181525,2.327735308461644,-2.5157756141330325
8.231607397465117,3.826449084774844,2.3025775523203134,-2.6170417800903314
8.269871888312865,3.7885771331410187,2.27640713451941,-2.705207959310038
8.307757659644276,3.7445696362275807,2.2493550549263097,-2.7786388492228165
8.345203356006552,3.6930149764996143,2.2215686664340817,-2.835925863471913
8.382133505771549,3.63285914482821,2.1932094077993627,-2.876172349404726
8.41846209721983,3.5636014696950147,2.1644476843053155,-2.899266447155658
8.45409811191678,3.4854261779930553,2.135455019833759,-2.9060609351899744
8.48895237369671,3.3992194556018536,2.106394410481859,-2.8983894071317446
8.52294456825273,3.306454701794118,2.0774105164105414,-2.8788954097907116
8.55600911527067,3.2089746961692116,2.0486215623126345,-2.8507165417900637
8.588098862232362,3.108733475594675,2.020114396894734,-2.817113561228273
8.61918619698831,3.0075650907654063,1.9919432612824512,-2.7811402368959524
8.649261847895962,2.907023529680824,1.9641318589134917,-2.745416694366194
8.678332083192771,2.8083054863499344,1.9366776919698299,-2.712022377208337
8.70641513805627,2.712242476898765,1.9095574681977465,-2.682488857876821
8.733537562825259,2.619337903782437,1.8827325796189782,-2.6578572668033367
8.759730941863083,2.529825458128733,1.8561540069509448,-2.638766330483768
8.78502919644437,2.443731709417633,1.8297663436461071,-2.625546315180668
8.809466513538545,2.360932979035361,1.8035108804943005,-2.6183045931830673
8.8330758433289,2.2812022328302866,1.77732783456247,-2.616996660714734
8.855887865657202,2.2042452512344606,1.7511578679553226,-2.6214815158557068
8.877930318169547,2.1297271348864366,1.7249430527967655,-2.6315629089005217
8.89922758951841,2.057290881450627,1.6986274237077603,-2.6470189675940294
8.919800498332917,1.9865698314887992,1.67215723403182,-2.6676228003780262
8.939666196647805,1.9171955640243419,1.6454810060280398,-2.693156374836474
8.958838152288047,1.8488025173155183,1.6185494422796751,-2.72341953171279
8.977326177461203,1.7810303117189514,1.5913152469625471,-2.7582355638344067
8.995136480578392,1.713524497429544,1.563732891324203,-2.7974544196225004
9.012271725552687,1.6459362493679506,1.535758347127978,-2.8409542962580905
9.028731088046365,1.5779213806091075,1.5073488041653973,-2.8886421627500467
9.044510301852457,1.5091389360482377,1.4784623825378969,-2.940453586094063
9.059601691212938,1.4392495505323355,1.4490578466769561,-2.9963521114935783
9.073994186718261,1.367913702631754,1.4190943255620203,-3.0563283587760033
9.087673323744578,1.2947899603725457,1.3885310419742602,-3.1203989323926917
