th1 (rad),w1 (rad/s),th2 (rad),w2 (rad/s)
3.266687893638614,-1.0040929627482125,4.87438084813954,-1.0975523729181584
3.2566469640111317,-0.9842350279403141,4.863405324410358,-1.0101780307722277
3.2468046137317286,-0.9663063042006285,4.853303544102636,-0.9223297075853449
3.237141550689722,-0.9501883514410401,4.844080247026783,-0.8340572850084736
3.227639667175312,-0.9357611515337612,4.835739674176698,-0.7454072076018875
3.2182820556599743,-0.9229033793503522,4.828285602100679,-0.6564226834816691
3.209053021866471,-0.9114926447626427,4.821721375265862,-0.5671438085857554
3.1999380954188443,-0.9014057079707625,4.816049937180004,-0.4776076195810679
3.1909240383391366,-0.8925186700057862,4.811273860984193,-0.38784808074844157
3.181998851639079,-0.8847071397405983,4.807395380176708,-0.2978960104224321
3.173151780241673,-0.8778463782476124,4.804416420072484,-0.20777895273529218
3.164373316459197,-0.8718114208793921,4.802338630545131,-0.11752100052362534
3.155655202250403,-0.866477177030112,4.801163420539895,-0.027142575306687622
3.146990430480102,-0.8617185071732194,4.800891994786828,0.06333982975903009
3.1383732454083697,-0.8574102764738528,4.801525393084418,0.15391393809909915
3.1297991426436313,-0.8534273840531883,4.8030645324654095,0.24457200336427923
3.1212648688030993,-0.8496447668452526,4.805510252499053,0.3353111428848896
3.1127684211346467,-0.8459373769440888,4.808863363927902,0.4261336854890577
3.1043090473652057,-0.8421801313999732,4.813124700782792,0.5170475284171178
3.095887246051206,-0.8382478335978301,4.818295176066963,0.6080664982410323
3.0875047677152274,-0.8340150656504653,4.824375841049373,0.6992107108488859
3.079164617058723,-0.8293560516771341,4.831367948157862,0.7905069256521753
3.0708710565419515,-0.8241444924305839,4.839273017414383,0.8819888891832369
3.0626296116176457,-0.8182533725034931,4.848092906306215,0.9736976631297792
3.0544470778926107,-0.8115547423141297,4.857829882937513,1.0656819315528918
3.0463315304694696,-0.8039194782743184,4.868486702253042,1.1579982814943899
3.038292335686726,-0.7952170260228724,4.880066685067987,1.2507114503284784
3.0303401654264976,-0.7853151334184441,4.892573799571271,1.3438945319687092
3.022487014092313,-0.774079582195074,4.906012744890958,1.4376291323071235
3.0147462182703624,-0.7613739298758471,4.920389036214029,1.5320054619251868
3.007132478971604,-0.7470592768183011,4.9357090908332815,1.6271223510440973
2.999661886203421,-0.7309940772542197,4.951980314343722,1.7230871677232376
2.9923519454308787,-0.7130340180338967,4.969211186020955,1.820015615295802
2.9852216052505396,-0.693031994662129,4.987411342173913,1.918031378753211
2.9782912853039183,-0.6708382213132718,5.006591655961445,2.01726558203718
2.9715829030907854,-0.6463005200456239,5.026764311781817,2.117856008737155
2.9651198978903293,-0.6192648446172864,5.047942871869189,2.2199460272842435
2.9589272494441565,-0.5895761063395174,5.070142332142032,2.323683148160766
2.9530314883807613,-0.5570793834478321,5.09337916362364,2.4292171247394
2.947460694546283,-0.5216216115893474,5.117671334871034,2.5366974910677813
2.9422444784303896,-0.48305387111054543,5.143038309781711,2.6462704093568865
2.937413939719284,-0.4412344064949296,5.16950101387528,2.758074677566775
2.9330015956543347,-0.3960325337185001,5.197081760650947,2.8722367242615405
2.92904127031715,-0.34733361098089593,5.2258041278935625,2.988864395522426
2.925567934207341,-0.2950452648077325,5.2556927718487865,3.1080393199344125
2.9226174815592634,-0.2391050731770661,5.286773165048131,3.2298076267602305
2.920226430827493,-0.17948990463844888,5.319071241315733,3.354168795639576
2.9184315317811085,-0.11622708971221354,5.352612929272128,3.481062442279378
2.9172692608839865,-0.0494075479284623,5.387423553694922,3.6103529054151093
2.9167751854047017,0.020799102341386363,5.423527082749073,3.741811610837072
2.9169831764281158,0.09412757908934698,5.460945198857444,3.875097366393216
2.917924452219009,0.17019847522227088,5.499696172521376,4.009735006989485
2.9196264369712317,0.24849897996523096,5.539793522591271,4.145093178433297
2.922111426770884,0.3283638833172695,5.581244454375604,4.280362533877707
2.925395065604057,0.4089584786396435,5.624048079714381,4.414536210726496
2.9294846503904535,0.48926555758200935,5.668193441821646,4.546395124722322
2.9343773059662737,0.5680792680698828,5.713657393068869,4.674501284225541
2.9400580986469724,0.6440090652941671,5.760402405911125,4.797202858354211
2.946498189299914,0.7154971614391216,5.8083744344946675,4.912654934709356
2.953653160914305,0.7808525672288652,5.857500983841761,5.018859537582852
2.9614616865865937,0.838303811496111,5.907689579217589,5.113727307022669
2.969844724701555,0.8860705864173686,5.958826852287816,5.1951611044089
2.9787054305657286,0.9224519195062673,6.010778463331905,5.261158741507884
2.987929949760791,0.9459252933530942,6.063390050746984,5.309928350152692
2.9973892026943223,0.9552479844823711,6.11648933424851,5.340006277518388
3.006941682539146,0.9495495621813537,6.169889397023694,5.350364723156848
3.0164371781609596,0.9284037942641387,6.223393044255263,5.3404955702568335
3.025721216103601,0.8918697050598804,6.276797999957831,5.310458633794377
3.0346399131542,0.840495237864439,6.329902586295775,5.260886850645885
3.0430448655328446,0.7752822473455764,6.382511454802234,5.192947010237653
3.0507976880063,0.6976172213544585,6.434440924904611,5.108261116643807
3.0577738602198448,0.6091768835883529,6.4855235360710495,5.008798870777539
3.0638656290557282,0.5118206228632576,6.535611524778825,4.896754899176992
3.068983835284361,0.40748210396199414,6.584579073770595,4.7744247744794235
3.073058656323981,0.2980706860844156,6.632323321515389,4.644091879069472
3.076039363184825,0.18539014481036054,6.678764240306084,4.5079336089537225
3.077893264632929,0.07107857433128043,6.723843576395621,4.367951333469129
3.0786040503762417,-0.043429968493928495,6.767523089730312,4.225924804502644
3.0781697506913024,-0.15692402686674684,6.809782337775339,4.083388898289874
3.076600510422635,-0.2684169890340204,6.850616226758238,3.941628863163028
3.0739163405322945,-0.37713710887267604,6.890032515389868,3.8016895484362068
3.0701449694435676,-0.4825093207768918,6.92804941087423,3.6643941592417657
3.0653198762357987,-0.5841323576025648,6.964693352466648,3.5303686338538416
3.059478552659773,-0.681753964855105,6.999997038805187,3.400068520425905
3.052661013011222,-0.7752462531997057,7.0339977240094465,3.273806052176505
3.044908550479225,-0.864582550329979,7.066735784531211,3.151775867943959
3.036262724975925,-0.9498165537848108,7.09825354321065,3.0340784419326248
3.0267645594380768,-1.031064161797804,7.128594327629977,2.9207407572872484
3.016453917820099,-1.1084880601044715,7.15780173520285,2.8117340927624825
3.005369037219054,-1.1822849481583317,7.1859190761304745,2.706989012219674
2.9935461877374707,-1.2526751746260514,7.212988966252671,2.606407778512571
2.98101943599121,-1.3198944969869741,7.239053044037797,2.5098744806084015
2.96782049102134,-1.3841876647646927,7.264151788843881,2.4172631858579923
2.953978614373693,-1.445803535740186,7.288324420702461,2.328444424076421
2.9395205790162913,-1.504991458720318,7.311608864943225,2.2432902882400154
2.924470664429088,-1.5619986876277372,7.334041767825625,2.161678406337179
2.908850677552811,-1.617068624962425,7.355658551888997,2.083495005660462
2.892679991303187,-1.6704397250697758,7.3764935019456015,2.0086372579832323
2.875975594052489,-1.7223449174659564,7.396579874525433,1.9370150635701755
2.8587521448778292,-1.7730114369348031,7.415950025161135,1.8685524047948563
2.8410220305084812,-1.8226609700014909,7.434635549209084,1.8031883766179466
2.8227954208084665,-1.8715100468223087,7.452667432975263,1.7408779812700825
2.8040803203402436,-1.919770623803625,7.470076212787964,1.6815927579190162
2.7848826141022074,-1.9676508157525154,7.4868921403671544,1.6253213045070838
2.7652061059446824,-2.015355747457736,7.503145353412226,1.5720697379033692
2.745052548470105,-2.0630885036700417,7.518866050791259,1.5218621295990522
2.7244216634334046,-2.1110511638151106,7.53408467208725,1.4747409469660442
2.7033111517952535,-2.1594459136883395,7.5488320815569105,1.4307675241882196
2.68171669265837,-2.2084762310329937,7.563139756798793,1.3900225819482728
2.65963193034804,-2.258348145391122,7.577039982618276,1.3526068103728697
2.6370484488941286,-2.309271574938088,7.590566050722004,1.318641525105951
2.613955733144748,-2.3614617440376158,7.603752465973064,1.2882694010876463
2.590341115704372,-2.4151406846900296,7.61663515998394,1.2616552818788913
2.5661897088574714,-2.470538822371504,7.629251712802729,1.2389870531275058
2.5414843206337565,-2.5278966411410715,7.641641583334004,1.2204765555415522
2.516205354222346,-2.5874664130415415,7.653846348889419,1.206360493425079
2.4903306900919304,-2.649513960815515,7.66590995382367,1.1969012664433687
2.4638355504837754,-2.714320397952432,7.6778789664881035,1.1923876105179756
2.436692346504251,-2.782183751913543,7.689802842593283,1.1931348724340871
2.4088705089851157,-2.853420319017074,7.701734191317624,1.1994846530555587
2.380336305794945,-2.9283655142671754,7.7137290378481795,1.211803423492102
2.3510526506522735,-3.0073738541956225,7.7258470720831,1.2304795296922406
2.3209789121103173,-3.0908175287620336,7.738151867380022,1.2559177298940993
2.290070736822697,-3.1790827571824116,7.7507110446789635,1.2885300247241824
2.258279909250873,-3.272562754204114,7.7635963449262055,1.3287210025624268
2.225554281708832,-3.371645626377685,7.77688355495183,1.3768651903034463
2.191837825445055,-3.47669484539068,7.7906522068548645,1.4332729371827932
2.157070876991148,-3.588019105232299,7.804984936226693,1.498140169930375
2.121190685938825,-3.7058274277737677,7.8199663379259965,1.5714760453077241
2.0841324116610873,-3.830164556447022,7.835681098379074,1.6530014190480506
2.0458307660966173,-3.960821490575359,7.852211112569554,1.7420109124790728
2.006222551190864,-4.097217504651825,7.869631221694345,1.837193702455298
1.9652503761443456,-4.238254960380957,7.888003158718898,1.9364155740160665
1.9228678265405361,-4.382159193372749,7.907367314459059,2.0364809011672693
1.8790462346068086,-4.526335156982519,7.927732123470731,2.132921497513873
1.8337828830369836,-4.667299843220057,7.94906133844587,2.2198989372449938
1.787109884604783,-4.80077599080367,7.97126032781832,2.2903452899933954
1.7391021246967464,-4.9220355614199205,7.994163780718254,2.336471601760099
1.6898817690825472,-5.026528012018159,8.017528496735855,2.3506965160256
1.6396164889623657,-5.110702018360291,8.041035461896112,2.3268651356737498
1.5885094687787626,-5.1727746841160105,8.064304113252849,2.261404041663847
1.5367817219376025,-5.2131353167312415,8.086918153669487,2.1539583302535292
1.48465036877029,-5.23419135423229,8.108457736972023,2.00722515481955
1.4323084552279672,-5.239725455868446,8.128529988520219,1.8260720589446775
1.3799112006692829,-5.234048051646592,8.146790709109666,1.6163413286494683
1.3275707201528169,-5.221253224372417,8.162954122396162,1.3837830694664164
1.2753581879090927,-5.2047485929479,8.176791953090826,1.1333692858441786
1.2233107019796137,-5.187067869706585,8.188125645949267,0.8690107132604391
1.171440023282548,-5.169883074403471,8.196815753081871,0.5935644476383188
1.1197411925385132,-5.154118887644123,8.202751397558254,0.3089959474565827
1.068200003662072,-5.140097220227015,8.20584135703282,0.016592584370523078
1.0167990314598019,-5.127672364983216,8.206007282876525,-0.2828296275094597
0.9655223078099697,-5.116341063681697,8.203178986601431,-0.5887509368887744
0.9143588971731528,-5.105325412030992,8.197291477232543,-0.9008099421716265
0.8633056430528429,-5.093632597476171,8.188283377810826,-1.2186996876881717
0.8123693170780811,-5.080097285346071,8.176096380933945,-1.542091923969573
0.7615683442246204,-5.063412307764518,8.160675461694249,-1.8705838659577734
0.7109342211469752,-5.042152421751495,8.14196962303467,-2.2036630024058472
0.6605126969294604,-5.014794870705344,8.119932993010613,-2.540686889156433
0.6103647482224069,-4.979739523295176,8.094526124119048,-2.880876033793141
0.5605673529894551,-4.935330520424895,8.065717363781117,-3.223318833953373
0.5112140477852062,-4.879880612868532,8.033484175441583,-3.566988057889056
0.46241524165652087,-4.81169868315953,7.9978142948626925,-3.910768585600664
0.41429825482492555,-4.729120287348238,7.958706609006686,-4.2534961080040015
0.3670070519514432,-4.630540414863129,7.916171647926646,-4.5940062624119875
0.3207016478028119,-4.5144470578030615,7.870231585302526,-4.9311933232741385
0.2755571772247813,-4.37945363434511,7.820919652069785,-5.264077132326786
0.2317626408813302,-4.224327871952955,7.768278880746517,-5.591876511956121
0.18951936216180065,-4.04801448620592,7.7123601156269554,-5.914087029073574
0.14903921729974146,-3.849648962527006,7.65321924533622,-6.230560721127861
0.1105427276744714,-3.6285600430092866,7.590913638124941,-6.54158528464647
0.07425712724437854,-3.384259238242798,7.525497785278477,-6.847960215722415
0.040414534861950555,-3.1164169661096364,7.457018183121252,-7.151067312408845
0.009250365200854191,-2.8248270102660626,7.385507509997163,-7.452932410783525
-0.018997904901806435,-2.5093643640628533,7.310978185889328,-7.75627344375787
-0.044091548542434966,-2.16994712956479,7.23341545145175,-8.064525380620303
-0.06579101983808286,-1.8065228533955917,7.1527701976455464,-8.381822501812133
-0.08385624837203878,-1.4191170976606413,7.068951972627425,-8.712897559222226
-0.09804741934864519,-1.008013705558057,6.981822997035203,-9.06281627590255
-0.10812755640422576,-0.5741929315757304,6.8911948342761775,-9.436388716445883
-0.11386948571998307,-0.12024943448548886,6.796830947111719,-9.836965148356558
-0.11507198006483796,0.34784879158614784,6.698461295628153,-10.264123254588174
-0.11159349214897649,0.8176796954214882,6.595820063082272,-10.709563423141844
-0.1034166951947616,1.2656833743032483,6.488724428850853,-11.150748180525106
-0.09075986145172911,1.6519683601125135,6.377216947045602,-11.543615459572647
-0.07424017785060397,1.9195188788345066,6.261780792449875,-11.820826652610535
-0.0550449890622589,2.007453874071462,6.14357252592377,-11.908487306365991
-0.034970450321544284,1.8823646175645885,6.024487652860111,-11.76680352413267
-0.016146804145898398,1.56551332876478,5.906819617618784,-11.424917145300794
-0.0004916708582505987,1.1219133017941207,5.792570446165776,-10.965129622771475
0.01072746215969061,0.6210475502654373,5.682919149938061,-10.471128773208072
0.016937937662344985,0.1107312830018421,5.57820786220598,-9.995570562704447
0.018045250492363406,-0.3843535538428771,5.478252156578936,-9.56040224944333
0.014201714953934635,-0.8542196025264126,5.382648134084502,-9.169154324802
0.005659518928670509,-1.2961119554972482,5.290956590836482,-8.817020246935636
-0.007301600626301974,-1.710207117896243,5.202786388367126,-8.496381424683818
-0.024403671805264406,-2.097557858683495,5.117822574120288,-8.199308169413825
-0.045379250392099356,-2.4592334875148674,5.035829492426149,-7.918539181698948
-0.06997158526724803,-2.7960256818553555,4.95664410060916,-7.64779080953521
-0.09793184208580158,-3.108404726638934,4.880166192513808,-7.381799519951169
-0.1290158893521909,-3.396579098620532,4.806348197314296,-7.1162718722638045
-0.16298168033839622,-3.6605914394837535,4.735185478591658,-6.847811108314776
-0.19958759473323376,-3.9004204269954124,4.6667073675085105,-6.573843883384583
-0.2385917990031879,-4.116074390932842,4.600968928674664,-6.292551999513485
-0.2797525429125163,-4.307669930123544,4.538043408679529,-6.002807222455539
-0.3228292422137517,-4.475492368825827,4.478015336454974,-5.704105649081096
-0.36758416590201,-4.620036894202977,4.420974279964163,-5.39649864819446
-0.41378453484403976,-4.742030582352703,4.3670092934822184,-5.08051875545641
-0.4612048406675668,-4.84243659512917,4.316204105927654,-4.757100408371759
-0.5096292066188585,-4.922442702252006,4.268633101843936,-4.427496733933065
-0.5588536336413785,-4.983436943363901,4.224358134504605,-4.093194589189415
-0.6086880030750176,-5.026973662135567,4.183426188612711,-3.75583064033865
-0.6589577396963733,-5.05473330191982,4.145867882209324,-3.4171114497457333
-0.7095050727155715,-5.068479257550615,4.111696767711867,-3.078740368064222
-0.7601898652910777,-5.070014763042784,4.080909364031225,-2.7423535756365607
-0.8108900129215055,-5.061142310967703,4.05348582827486,-2.4094669756326246
-0.8615014360311826,-5.043627506962487,4.029391158518533,-2.0814349082121284
-0.9119377111008075,-5.019168624477346,4.008576809436412,-1.7594209226358313
-0.9621293973455809,-4.989372496794979,3.9909826002100535,-1.4443801916564127
-1.0120231223135308,-4.9557368101022865,3.976538798293489,-1.1370526394939964
-1.0615804904145536,-4.919638371982724,3.9651682718985493,-0.8379655191727282
-1.1107768741343809,-4.882326536136586,3.956788616706822,-0.5474440336873281
-1.1596001394957467,-4.844920662009077,3.951314176369949,-0.26562864763665445
-1.2080493461158375,-4.808410258759068,3.9486578898935822,0.007502030759969136
-1.2561334487034281,-4.773656277446971,3.948732910201182,0.27210352045290187
-1.3038700114778978,-4.741391838052884,3.951453945405711,0.5284330711844752
-1.3512839298584267,-4.71222047300338,3.9567382761175556,0.7768121059839048
-1.3984061345884604,-4.686609708240578,3.9645063971773946,1.017582222313904
-1.4452722316708662,-4.664877481087666,3.974682219400534,1.251052611665091
-1.4919210064817428,-4.647168555775676,3.9871927455171847,1.4774359195903295
-1.5383926920394995,-4.633417886717151,4.001967104713088,1.6967689765197593
-1.584726870906671,-4.6232981243115585,4.018934794478286,1.9088149558425684
-1.6309598521497866,-4.616149792884189,4.038022944036712,2.112945253195842
-1.6771213500786284,-4.610896169702827,4.05915239656867,2.308004231174619
-1.7232303117756567,-4.605952087119512,4.082232438880417,2.492170062870814
-1.7692898326468518,-4.5991483128400175,4.107154139509125,2.662842360701198
-1.8152813157752519,-4.5877108890419125,4.133782563116137,2.8166120796971175
-1.861158424665671,-4.568353191818442,4.161948683913108,2.949394676663904
-1.9068419565838555,-4.537544038569494,4.191442630679747,3.056814579880709
-1.9522173969695504,-4.491985344930282,4.222010776478554,3.1348858383477096
-1.9971372504188531,-4.429249236848801,4.253359634862031,3.180914745692038
-2.0414297427873414,-4.348404152371296,4.2851687823189515,3.194379937684201
-2.084913784311054,-4.250378438227226,4.317112581695794,3.177432185744339
-2.1274175686933265,-4.137864857421601,4.348886903553237,3.1347364439687087
-2.1687962172675426,-4.014770759915427,4.380234267992924,3.0726664725274806
-2.2089439248666967,-3.885436227907044,4.410960932718198,2.9981718678502363
-2.247798287145767,-3.7539156779631417,4.440942651396701,2.917740459746867
-2.2853374439253984,-3.6235187217076903,4.47012005599417,2.836735894822948
-2.3215726311424754,-3.496643360219456,4.4984874149423995,2.7591574253825635
-2.35653906474467,-3.374823660084735,4.526078989196225,2.687710108481882
-2.3902873013455173,-3.2588862306777147,4.552956090281044,2.624033501843527
-2.4228761636522944,-3.14913375918707,4.57919642529948,2.5689709591335608
-2.4543675012441653,-3.0455103821411567,4.604886134890815,2.522813878131133
-2.4848226050655766,-2.947732017057658,4.630114273672127,2.4854959939937906
-2.5142999252361533,-2.855380779428301,4.654969233612064,2.4567359579740677
-2.5428537330304364,-2.767969332798209,4.679536593191805,2.436136292691808
-2.5705334263584185,-2.68498254695254,4.703897956118722,2.423249172170372
-2.597383251827944,-2.605903082242498,4.728130447840426,2.417618500771245
-2.623442282650369,-2.5302260721947283,4.752306632848138,2.4188057557050735
-2.6487445433723162,-2.457466655291653,4.776494690405189,2.426405049858865
-2.673319209925233,-2.387162953160905,4.8007587409037775,2.4400512260786376
-2.6971908394568422,-2.318876237974883,4.825159253164564,2.4594235651439402
-2.720379601836591,-2.252189431485945,4.849753488816003,2.4842468185138094
-2.7429014961514504,-2.186704670286571,4.874595957001142,2.514290678616748
