th1 (rad),w1 (rad/s),th2 (rad),w2 (rad/s),a1 (rad/s^2),a2 (rad/s^2)
4.768789574027066,1.822479632820034,4.811525955606041,2.8857655997883906,10.304606074384848,-0.6852185867873426
4.787014370355267,1.9255256935638823,4.840383611603925,2.8789134139205173,10.449340526229857,-0.9124085925478264
4.806269627290906,2.030019098826181,4.86917274574313,2.869789327995039,10.587446630861141,-1.1457598477712243
4.826569818279167,2.135893565134792,4.897870639023081,2.8583317295173267,10.716765527314065,-1.3826319703719137
4.847928753930515,2.2430612204079328,4.926453956318254,2.8445054098136078,10.834931128836955,-1.6199034459256751
4.870359366134594,2.3514105316963025,4.954899010416391,2.828306375354351,10.939356670000635,-1.8539275508219593
4.893873471451557,2.460804098396309,4.983182074169934,2.8097670998461317,11.027218961460383,-2.0804874763944325
4.918481512435521,2.5710762880109126,5.0112797451683955,2.7889622250821873,11.095441277301164,-2.2947534705622505
4.94419227531563,2.6820307007839244,5.039169367419217,2.7660146903765646,11.140676439826773,-2.491245928196583
4.971012582323469,2.7934374651821923,5.066829514322983,2.7411022310945987,11.159292470503104,-2.6638096887913507
4.998946956975291,2.9050303898872234,5.0942405366339285,2.7144641342066853,11.147364148044009,-2.805606326660721
5.027997260874163,3.0165040313676634,5.121385177975996,2.686408070940078,11.100674930253787,-2.909132882445677
5.05816230118784,3.1275107806702014,5.1482492586853965,2.657316742115621,11.014734881599889,-2.966277145774059
5.0894374089945424,3.2376581294862,5.1748224261065525,2.6276539706578808,10.884821358989443,-2.968421008456882
5.121813990289405,3.3465063430760944,5.201098965813132,2.597969760573312,10.706050006249663,-2.906604176129226
5.155279053720165,3.453566843138591,5.227078663418864,2.5689037188120194,10.473483749117005,-2.7717601070779256
5.189814722151551,3.5583016806297607,5.252767700606984,2.54118611774124,10.182286524340386,-2.55503375381239
5.225397738957849,3.6601245458731646,5.2781795617843965,2.515635780203116,9.82792592538333,-2.2481857686713544
5.26199898441658,3.758403805126998,5.303335919586428,2.4931539225164023,9.40642436584477,-1.8440796599891542
5.299583022467851,3.8524680487854455,5.328267458811592,2.474713125916511,8.914651545143338,-1.3372366911046243
5.338107702955705,3.941614564236879,5.353014590070757,2.4613407590054646,8.350642209564638,-0.7244285787799014
5.377523848598074,4.025120986332525,5.377627997660811,2.4540964732176653,7.713913396571378,-0.005261842462169204
5.417775058461399,4.102260120298239,5.402168962392988,2.4540438547930434,7.005746325919029,0.8173071545819024
5.4587976596643815,4.1723175835574295,5.4267094009409185,2.4622169263388622,6.2293923740013195,1.7365968657234525
5.500520835499956,4.234611507297442,5.4513315702043075,2.479582894996097,5.390162897468116,2.7420350105770166
5.542866950572931,4.288513136272123,5.476127399154269,2.5070032451018673,4.495371204725878,3.8192594178062502
5.585752081935652,4.333466848319382,5.501197431605287,2.5451958392799297,3.55411220160582,4.950514294165985
5.629086750418846,4.36900797033544,5.526649389998086,2.5947009822215894,2.576889185586603,6.115332182595465
5.672776830122201,4.394776862191306,5.5525963998203025,2.655854304047544,1.5751234042336406,7.291448775468029
5.716724598744114,4.410528096233643,5.579154942860778,2.7287687918022243,0.5606042027913749,8.455859795841997
5.76082987970645,4.416134138261556,5.6064426307788,2.8133273897606443,-0.45505001294063446,9.585905650543854
5.8049912210890655,4.41158363813215,5.634575904676407,2.909186446266083,-1.4608507403934385,10.660266466481866
5.849107057470387,4.396975130728215,5.663667769139067,3.0157891109309016,-2.446763235735799,11.65976792196779
5.893076808777669,4.372507498370857,5.693825660248376,3.1323867901505795,-3.403863930035814,12.567931821374193
5.936801883761377,4.338468859070499,5.725149528149882,3.2580661083643214,-4.324327226331891,13.371245812277106
5.980186572352082,4.29522558680718,5.757730189233525,3.3917785664870923,-5.201261924783896,14.059164650709869
6.023138828220154,4.243212967559341,5.791647974898396,3.532370212994191,-6.028434808560865,14.623883977515588
6.065570957895748,4.182928619473732,5.826971677028338,3.678609052769347,-6.799927366653174,15.059943596426614
6.107400244090485,4.114929345807201,5.863757767556031,3.829208488733613,-7.509772118712656,15.363721542173865
6.148549537548557,4.039831624620074,5.902049852443367,3.9828457041553516,-8.15161012896534,15.532876259046443
6.188947853794757,3.958315523330421,5.941878309484921,4.138174466745816,-8.718404219827514,15.565786481131948
6.228531009028061,3.871131481132146,5.983260054152379,4.293832331557135,-9.202235943553998,15.46103106684795
6.267242323839382,3.7791091216966057,6.02619837746795,4.448442642225614,-9.594210458981351,15.216947023931134
6.305033415056348,3.683167017106792,6.0706828038902065,4.600612112464925,-9.884492859575978,14.831304591722738
6.3418650852274165,3.584322088511032,6.116688925014856,4.748925158382153,-10.06250174305452,14.301143116245894
6.377708306112527,3.4836970710804867,6.164178176598678,4.891936589544612,-10.117289116688982,13.622818321919494
6.412545276823331,3.382524179913597,6.213097542494124,5.028164772763807,-10.03813686247403,12.792316228578596
6.446370518622467,3.282142811288857,6.2633791902217615,5.156087935049593,-9.815394212397992,11.80588509675706
6.479191946735355,3.183988869164877,6.314940069572257,5.274146786017163,-9.441562145525747,10.661016481233784
6.511031835427004,3.089573247709619,6.3676815374324285,5.380756950829501,-8.912593618425625,9.357761777643313
6.5419275679041,3.0004473115253627,6.421489106940723,5.474334568605935,-8.229320263104155,7.90029706684264
6.571932041019354,2.918154108894321,6.476232452626783,5.553337539274361,-7.39884083994096,6.298551003785491
6.6011135821082965,2.8441657004949112,6.531765828019527,5.616323049312216,-6.435629883371253,4.569607107979998
6.6295552391132455,2.7798094016611987,6.587929058512649,5.662019120392016,-5.362075068048704,2.7385192952849153
6.6573533331298576,2.7261886509807116,6.644549249716569,5.689404313344865,-4.208164721282599,0.8381843957252497
6.684615219639665,2.6841070037678856,6.701443292850017,5.697786157302118,-3.010151000579592,-1.0919645303590682
6.7114562896773435,2.6540054937620896,6.758421154423038,5.686866511998527,-1.8082096363615003,-3.008443203930858
6.737996344614964,2.6359233973984746,6.815289819543024,5.656782079959219,-0.6433607091055783,-4.86707823313071
6.764355578588948,2.6294897903074186,6.871857640342616,5.608111297627912,0.44587358187294457,-6.6266830860442285
6.790650476492023,2.633948526126148,6.9279387533188945,5.541844466767469,1.426503755030617,-8.252368746909562
6.8169899617532845,2.648213563676454,6.983357197986569,5.459320779298373,2.2732978120748992,-9.71789624380866
6.843472097390049,2.670946541797203,7.0379504057795526,5.362141816860286,2.9699007129029167,-11.006736701905744
6.870181562808021,2.700645548926232,7.091571823948155,5.252074449841229,3.508820685721096,-12.111832614184811
6.897188018297284,2.735733755783443,7.144092568446568,5.130956123699381,3.8904866870120074,-13.034331928651339
6.924545355855118,2.7746386226535633,7.195402129683561,5.000612804412867,4.121713560210887,-13.781715444137816
6.952291742081654,2.815855758255672,7.24540825772769,4.862795649971489,4.2139303953582425,-14.365745429188534
6.98045029966421,2.8579950622092545,7.294036214227405,4.719138195679604,4.181462295660083,-14.800569719006194
7.009030250286303,2.8998096851658555,7.341227596184201,4.5711324984895425,4.040052230881956,-15.101180525855392
7.038028347137962,2.940210207474675,7.386938921169096,4.420120693230989,3.8057078141152214,-15.282300550925065
7.067430449212709,2.978267285615827,7.431140128101406,4.267297687721738,3.4938805087336493,-15.357677461850319
7.097213122068867,3.013206090703164,7.473813104978623,4.1137209131032355,3.118938154160193,-15.3397168535886
7.1273451829758985,3.0443954722447657,7.514950314109655,3.9603237445673494,2.693871452853094,-15.239366078081343
7.157789137698346,3.0713341867732966,7.554553551555329,3.8079300837865357,2.2301727792980706,-15.066165084762057
7.188502479566079,3.0936359145662773,7.592632852393194,3.657268432938915,1.7378331831464384,-14.828394925212574
7.219438838711742,3.1110142463977417,7.6292055367225835,3.508984483686789,1.2254147176055923,-14.533272249290084
7.2505489811757196,3.1232683935737975,7.664295381559452,3.3636517611938883,0.7001665708781875,-14.187154599818607
7.281781665111458,3.130270059282579,7.69793189917139,3.221780215195702,0.16816314081899544,-13.795734682613803
7.313084365704284,3.131951690690769,7.730149701323347,3.083822868369564,-0.36555038105931703,-13.364211641705753
7.344403882611191,3.128296186880176,7.760987930007042,2.9501807519525065,-0.8968140535937099,-12.897434068759832
7.375686844479993,3.119328046344239,7.790489737526567,2.821206411264908,-1.4222164412303555,-12.400013673921444
7.406880124943435,3.1051058819319355,7.818701801639216,2.6972062745256937,-1.938968402461236,-11.87641092425921
7.437931183762755,3.085716197907323,7.845673864384473,2.5784421652831018,-2.4447893578488284,-11.33099510829347
7.468788345741828,3.0612683043288347,7.871458286037304,2.465132214200167,-2.937807167997758,-10.768081678580572
7.499401028785116,3.0318902326488573,7.896109608179305,2.357451397414361,-3.416472253400849,-10.191949705316429
7.529719931111605,2.9977255101148486,7.919684122153448,2.2555319003611967,-3.8794862394932723,-9.606842085047825
7.5596971862127536,2.958930647719916,7.94223944115706,2.1594634795107184,-4.325745103754844,-9.016950948518414
7.589286492689952,2.9156731966823677,7.9638340759521675,2.069293970025534,-4.754296476727362,-8.426390592155144
7.618443224656776,2.868130231915094,7.984527015652423,1.9850300641039826,-5.164310381523302,-7.83916025689017
7.647124526975927,2.816487128099861,8.004377316293462,1.9066384615350809,-5.555062291352554,-7.25909919147279
7.6752893982569255,2.7609365051863355,8.023443700908814,1.834047469620353,-5.925926967457115,-6.689836628186301
7.702898763308789,2.7016772355117644,8.041784175605018,1.76714910333849,-6.276381150174121,-6.134739508066181
7.729915535663906,2.638913424010023,8.059455666638403,1.7058017082578283,-6.606012859346616,-5.596860951257443
7.756304669904006,2.572853295416557,8.07651368372098,1.6498330987452539,-6.914534860631923,-5.0788925093502755
7.782033202858171,2.5037079468102377,8.093012014708433,1.599044173651751,-7.20179980510401,-4.583123108174336
7.807070282326274,2.4316899487591974,8.109002456444951,1.5532129425700079,-7.467814668055474,-4.111407263779168
7.831387181813866,2.3570118020786426,8.124534585870652,1.5120988699322162,-7.712752395710168,-3.665144633610571
7.854957299834652,2.279884278121541,8.139655574569975,1.4754474235961106,-7.936959091292893,-3.2452722824519484
7.877756142615867,2.200514687208612,8.154410048805936,1.442994700771591,-8.140955592429576,-2.8522702575646464
7.899761289487953,2.119105131284316,8.168839995813652,1.4144719981959446,-8.325432856635677,-2.486180254783328
7.920952340800796,2.035850802717959,8.182984715795612,1.3896101956481113,-8.491241123986013,-2.1466363960825574
7.9413108488279756,1.950938391478099,8.196880817752094,1.3681438316872856,-8.639373314470571,-1.8329064997321876
7.960820232742757,1.8645446583333933,8.210562256068966,1.3498147666899638,-8.770943502719607,-1.543941758354594
7.979465679326091,1.7768352233061973,8.224060403735866,1.3343753491064179,-8.887161571866041,-1.2784324750651772
7.997234031559152,1.6879636075875368,8.23740415722693,1.321591024355766,-8.989305276024027,-1.0348674445328658
8.014113667635028,1.5980705548272967,8.250620067470487,1.3112423499104373,-9.078690947725326,-0.8115946824071828
8.030094373183301,1.5072836453500433,8.263732490969591,1.3031264030863654,-9.156643995107528,-0.6068814644405337
8.045167209636801,1.415717205398968,8.276763755000456,1.2970575884419602,-9.224470173106399,-0.4189719878085039
8.059324381690791,1.323472503667904,8.289734330884876,1.292867868563875,-9.28342841483509,-0.2461413617369356
8.07255910672747,1.230638219519553,8.302663009570514,1.2904064549465057,-9.334705803132925,-0.0867450269562021
8.084865488922665,1.137291161488224,8.31556707411998,1.2895390046769437,-9.379395072396772,0.060736943511529744
8.096238400537548,1.0434972107642562,8.32846246416675,1.290146374112059,-9.418474875261783,0.19766092290261597
8.10667337264519,0.9493124620116383,8.34136392790787,1.292122983341085,-9.45279293862005,0.325186244488109
8.116166497265306,0.8547845326254379,8.354285157741282,1.2953748457859662,-9.483052173579646,0.44424708960662096
8.12471434259156,0.7599540108896414,8.367238906199141,1.2998173166820324,-9.509799793422484,0.5555296574159657
8.132313882700457,0.6648560129554166,8.380237079365962,1.305372613256192,-9.53341952693798,0.65945456798045
8.13896244283001,0.5695218176860368,8.393290805498523,1.3119671589359965,-9.554127082374476,0.756164555032847
8.144657661006871,0.4739805468622921,8.406410477087883,1.319528804486325,-9.571969107067215,0.8455176502255374
8.149397466475493,0.37826085579161994,8.419605765132747,1.3279839809885803,-9.586825984023465,0.9270862229882227
8.15318007503341,0.28239259595138533,8.432885604942634,1.3372548432184626,-9.598418891128714,1.0001623915769784
8.156004000992924,0.1864084070400982,8.446258153374819,1.3472564671342324,-9.606321600647213,1.0637704306657754
8.157868085063326,0.09034519103362607,8.459730718046162,1.35789417144089,-9.609977494358196,1.1166868359732047
8.158771536973662,-0.005754583909955896,8.47330965976057,1.3690610398006222,-9.608722191215273,1.1574686341493081
8.158713991134562,-0.10184180582210862,8.487000270158576,1.3806357261421154,-9.601812010854207,1.1844903174363481
8.15769557307634,-0.19785992593065072,8.500806627419998,1.3924806293164789,-9.588458215077575,1.1959894173279781
8.155716973817034,-0.2937445080814265,8.514731433713163,1.4044405234897586,-9.567866579028934,1.1901202047205512
8.15277952873622,-0.3894231738717158,8.52877583894806,1.4163417255369641,-9.539281358151367,1.1650143330119025
8.148885296997502,-0.4848159874532295,8.54293925620343,1.4279918688670832,-9.50203216957944,1.118846469951053
8.14403713712297,-0.579836309149024,8.5572191748921,1.4391803335665938,-9.45558175148005,1.049902168388111
8.13823877403148,-0.6743921266638244,8.571610978227767,1.449679355250475,-9.399572073501398,0.9566445069384539
8.131494852764842,-0.7683878473988384,8.586107771780272,1.4592458003198596,-9.333865929297883,0.8377755073911262
8.123810974290853,-0.8617265066918172,8.60070022978347,1.4676235553937709,-9.258581029910038,0.6922881245374938
8.115193709223934,-0.9543123169909176,8.615376465337407,1.4745464366391459,-9.174113798711028,0.5195048010266573
8.105650586054026,-1.0460534549780278,8.6301219297038,1.4797414846494124,-9.081150574260288,0.31909923297911313
8.095190051504245,-1.1368649607206307,8.644919344550294,1.4829324769792034,-8.980664738549253,0.0910990833969711
8.083821401897039,-1.2266716081061233,8.659748669320086,1.4838434678131731,-8.873899333672846,-0.16413118241231528
8.071554685815977,-1.3154106014428517,8.674587103998217,1.48220215598905,-8.762335891841861,-0.44592654142049326
8.058400579801548,-1.4030339603612703,8.689409125558107,1.477742890574845,-8.647651334300882,-0.7533743318940038
8.044370240197935,-1.489510473704279,8.704186554463856,1.4702091472559051,-8.531665743018424,-1.0853800603433867
8.029475135460892,-1.5748271311344633,8.718888645936415,1.4593553466524714,-8.416284448776727,-1.4407413342679278
8.013726864149547,-1.6589899756222306,8.73348219940294,1.444947933309792,-8.303438133106127,-1.818224701119386
7.9971369643933246,-1.7420243569532918,8.74793167873604,1.4267656862985982,-8.195024493961863,-2.2166402626896646
7.979716720823792,-1.8239746018929104,8.762199335599025,1.4045992836717016,-8.09285452217359,-2.6349095118958834
7.961476974804863,-1.9049031471146463,8.776245328435742,1.3782501885527427,-7.998605671742568,-3.072122780723403
7.942427943333716,-1.984889203832072,8.79002783032127,1.3475289607455088,-7.913783302728399,-3.5275838306758533
7.922579051295395,-2.064027036859356,8.803503119928726,1.3122531224387501,-7.8396908539040595,-4.000840292123018
7.901938780926802,-2.1424239453983964,8.816625651153114,1.27224471951752,-7.777408368563818,-4.491699721665973
7.8805145414728175,-2.2201980290840346,8.829348098348289,1.2273277223008603,-7.72777832446632,-5.000231894699359
7.858312561181977,-2.297475812328698,8.841621375571298,1.1773254033538667,-7.6913972455267805,-5.526758530888078
7.83533780305869,-2.3743897847839657,8.853394629604837,1.1220578180449858,-7.6686113031616,-6.071831956632482
7.8115939052108505,-2.4510758978155818,8.864615207785286,1.061339498478661,-7.659514028730422,-6.636204270054075
7.787083146232694,-2.527671038102886,8.875228602770074,0.9949774557781202,-7.663944319968747,-7.220788442592078
7.761806435851666,-2.6043104813025733,8.885178377327854,0.9227695713521995,-7.681483093068261,-7.826612528922498
7.7357633310386404,-2.681125312233256,8.894406073041376,0.8445034460629746,-7.711447169994829,-8.45476782545025
7.708952077916308,-2.7582397839332042,8.902851107502006,0.7599557678084721,-7.752879267051105,-9.1063514723487
7.681369680076976,-2.8357685766037153,8.91045066518009,0.668892253084985,-7.804533244786001,-9.782403680703917
7.653011994310939,-2.913813909051575,8.91713958771094,0.5710682162779458,-7.864854080521155,-10.483839520535692
7.623873855220423,-2.9924624498567867,8.92285026987372,0.46622982107258887,-7.931952331479722,-11.211375054583234
7.593949230721855,-3.071781973171584,8.927512568084445,0.35411607052675653,-8.003573174356841,-11.96544756763409
7.56323141099014,-3.1518177049151523,8.931053728789713,0.23446159485041562,-8.077060446501486,-12.746129738341613
7.531713233940988,-3.232588309380167,8.933398344738217,0.10700029746699949,-8.149316487241766,-13.553037843401672
7.499387350847186,-3.3140814742525846,8.934468347712887,-0.02853008096701723,-8.2167589974655,-14.385234483415964
7.46624653610466,-3.3962490642272396,8.934183046903216,-0.17238242580117688,-8.2752766105218,-15.241126882894525
7.432284045462388,-3.4790018303324577,8.932459222645205,-0.32479369463012214,-8.320185401223213,-16.118362544940297
7.3974940271590635,-3.56220368434469,8.929211285698903,-0.4859773200795251,-8.346189146984718,-17.013724926310815
7.361871990315617,-3.645665575814537,8.924351512498108,-0.6561145693426332,-8.347346779340166,-17.923032819457642
7.325415334557472,-3.7291390436079386,8.917790366804681,-0.8353448975372096,-8.317051094798256,-18.841048245597648
7.288123944121392,-3.812309554555921,8.909436917829309,-1.0237553799931862,-8.248023385303531,-19.761398815818282
7.250000848575833,-3.8947897884089566,8.899199364029377,-1.221369368151369,-8.132329138738053,-20.676521620478287
7.211052950691744,-3.9761130797963373,8.886985670347864,-1.428134584356152,-7.96142027324415,-21.577636652105387
7.1712918198937805,-4.055727282528779,8.872704324504301,-1.6439109508772058,-7.72620942044957,-22.45475842647342
7.130734547068493,-4.132989376733275,8.85626521499553,-1.86845853514194,-7.417181474519762,-23.29675470497288
7.089404653301161,-4.207161191478472,8.83758062964411,-2.101426082191669,-7.024546896524059,-24.09146090989422
7.047333041386376,-4.277406660443713,8.816566368822194,-2.342340691290611,-6.538440045608048,-24.825857859479868
7.004558974781939,-4.342791060899794,8.793142961909288,-2.5905992698854097,-5.949164067077208,-25.486318773060706
6.961131064172941,-4.402282701570566,8.767236969210433,-2.8454624576160166,-5.24748160433555,-26.05892910958787
6.917108237157235,-4.454757517613921,8.738782344634274,-3.106051748711895,-4.424947852227297,-26.529879771712856
6.872560661981096,-4.4990069961361945,8.707721827147155,-3.3713505464290234,-3.4742792949562014,-26.885930654518237
6.827570592019733,-4.533749789085756,8.674008321682866,-3.640209852974206,-2.389747945292561,-27.11493759708243
