th1 (rad),w1 (rad/s),th2 (rad),w2 (rad/s)
4.6753582020546975,2.710011400635573,0.8860504591869031,2.020443916379929
4.702458316061053,2.8013747605343977,0.9062548983507024,1.97308196909795
4.730472063666397,2.8893525202612578,0.9259857180416818,1.9179470713472302
4.75936558886901,2.973760756906711,0.9451651887551541,1.8547801366277545
4.789103196438077,3.0544318624075,0.9637129901214316,1.7833469325941391
4.819647515062152,3.131219691651254,0.9815464594473731,1.70344370466628
4.850959711978664,3.2040052665567966,0.9985808964940359,1.6149031568705146
4.882999764644232,3.2727029201554036,1.014729928062741,1.5176005313346101
4.915726793845787,3.337266715172221,1.0299059333760872,1.4114594534802656
4.949099460997509,3.397696924456652,1.0440205279108898,1.2964571428099718
4.983076430242075,3.454046321250091,1.0569850993389895,1.172628537360262
5.017616893454576,3.506426001825933,1.0687113847125922,1.0400688519064014
5.052681153472836,3.55501045765745,1.0791120732316561,0.8989340936440229
5.088231258049411,3.600041634300985,1.0881014141680965,0.7494390999694303
5.12423167439242,3.6418317631326635,1.0955958051677908,0.5918527430844147
5.160649992023747,3.6807648306872944,1.101514332598635,0.42649006244347953
5.19745764033062,3.71729665594574,1.1057792332230698,0.25370122981820714
5.234630606890077,3.751953672286129,1.1083162455212519,0.0738574086904081
5.272150143612938,3.7853306487401226,1.109054819608156,-0.11266627886437636
5.310003450100339,3.81808772370192,1.1079281568195123,-0.30551033957538665
5.348184327337359,3.850947252365789,1.1048730534237585,-0.504352634077633
5.386693799861017,3.8846910779775548,1.099829527082982,-0.7089318083649198
5.425540710640792,3.9201589213599033,1.092740208999333,-0.9190720600855277
5.464742299854391,3.958248642998792,1.0835494883984778,-1.1347090064843566
5.504324786284379,3.999919172367397,1.0722023983336342,-1.3559166341781204
5.5443239780080535,4.046196929467424,1.058643231991853,-1.5829355896273098
5.584785947302728,4.098186595025333,1.04281387609558,-1.8162033980197918
5.625767813252981,4.1570871273915495,1.024651842115382,-2.0563875564323935
5.6673386845268965,4.2242139757238535,1.004087966551058,-2.304422803442865
5.709580824284135,4.301028478483286,0.9810437385166294,-2.5615541670401054
5.752591109068968,4.389175395620195,0.9554281968462284,-2.8293875260042434
5.79648286302517,4.490529238986177,0.9271343215861859,-3.109949154562238
5.841388155415031,4.607249178476143,0.8960348300405635,-3.4057545584495736
5.887460647199792,4.741840041051147,0.8619772844560678,-3.719883790582772
5.934879047610304,4.897211658959421,0.8247784465502401,-4.0560531042778205
5.983851164199898,5.076717149048758,0.7842179155074619,-4.418656518995288
6.034618335690385,5.284125535033218,0.740031350317509,-4.812715768747281
6.087459591040717,5.523431126256211,0.6919041926300362,-5.243603158382365
6.142693902303279,5.7982939138958285,0.6394681610462125,-5.7162508291327105
6.200676841442237,6.110697274161404,0.5823056527548854,-6.233269199814759
6.261783814183851,6.458060710147477,0.5199729607567378,-6.790909450752475
6.3263644212853265,6.827666897329999,0.4520638662492131,-7.3712741989325385
6.394641090258626,7.187673509191292,0.3783511242598877,-7.929755177356198
6.4665178253505395,7.477876887112715,0.2990535724863257,-8.38213784174618
6.5412965942216665,7.614263682521125,0.2152321940688639,-8.611050127778787
6.617439231046878,7.528687275564068,0.12912169279107605,-8.521630259069713
6.692726103802518,7.228249084797053,0.04390539020037891,-8.124652280766382
6.765008594650489,6.798665101059122,-0.037341132607284916,-7.540959071774003
6.83299524566108,6.3370428961414484,-0.11275072332502495,-6.907172441911311
6.896365674622495,5.902228354810837,-0.18182244774413808,-6.306302227999266
6.955387958170603,5.515867734263318,-0.24488547002413075,-5.769335613775822
7.010546635513236,5.179947480815169,-0.30257882616188897,-5.299768926149691
7.062346110321388,4.8891122565076826,-0.35557651542338586,-4.89080326740681
7.111237232886465,4.6363320705802815,-0.40448454809745393,-4.533253390195326
7.1576005535922675,4.414982462618186,-0.4498170819994072,-4.218457017795738
7.201750378218449,4.219420917203994,-0.4920016521773646,-3.9390895097816463
7.243944587390489,4.0450157858324225,-0.531392547275181,-3.6892151212037407
7.284394745248814,3.8880084172637823,-0.5682846984872184,-3.4641043217088243
7.323274829421451,3.7453473542787727,-0.6029257417043067,-3.2600102436840546
7.3607283029642385,3.614539568484828,-0.6355258441411472,-3.0739668493534245
7.396873698649086,3.493529206501476,-0.6662655126346815,-2.9036234710875837
7.431808990714101,3.3806026568967527,-0.6953017473455573,-2.7471141552715164
7.465615017283069,3.274315562705152,-0.7227728888982724,-2.6029557921217257
7.4983581729101205,3.173437184209113,-0.7488024468194897,-2.469968691118798
7.530092544752212,3.076908187392689,-0.7735021337306777,-2.347214190352834
7.560861626626139,2.983808748819897,-0.796974275634206,-2.233945034332271
7.590699714114337,2.8933345867115166,-0.8193137259775287,-2.1295652844766675
7.619633059981452,2.804779096163767,-0.8406093788222954,-2.0335973626242634
7.64768085094309,2.717520192853895,-0.860945352448538,-1.945654480361655
7.674856052871629,2.631010780762899,-0.8804018972521546,-1.8654172086136758
7.701166160679258,2.5447719831258913,-0.8990560693382913,-1.7926133257680403
7.726613880510517,2.4583884359321417,-0.9169822025959717,-1.7270003752914207
7.751197764869839,2.371505059163514,-0.934252206348886,-1.668350584758516
7.774912815461474,2.2838248077296304,-0.9509357121964711,-1.6164379608821449
7.797751063538771,2.195106973370034,-0.9671000918052925,-1.5710274885779465
7.819702133272471,2.105165669342311,-0.982810366691072,-1.531866432684288
7.840753789965894,2.013868187653331,-0.998129031017915,-1.4986777737168329
7.860892471842427,1.9211329778127084,-1.0131158087550833,-1.4711558087363654
7.880103801620554,1.8269270584597899,-1.027827366842447,-1.4489639202839744
7.8983730722051515,1.7312627388156496,-1.0423170060452867,-1.4317344664777323
7.915685699593308,1.6341935943169983,-1.056634350710064,-1.4190706807645672
7.932027635536477,1.5358097074329713,-1.0708250575177096,-1.410550398148733
7.947385732610807,1.4362322472579212,-1.0849305614991969,-1.4057313538597667
7.961748055083387,1.335607516460797,-1.0989878750377946,-1.4041577378863048
7.975104130247995,1.234100638207238,-1.1130294524166577,-1.4053676410820768
7.987445136630067,1.1318890860446307,-1.1270831288274785,-1.4089010005461182
7.998764027490513,1.0291562747340293,-1.1411721388329397,-1.4143076465548097
8.009055590237853,0.9260854291321661,-1.1553152152984878,-1.4211550710752778
8.018316444529175,0.8228539322909072,-1.1695267660092405,-1.4290355771606509
8.026544983852084,0.719628325011326,-1.183817121780847,-1.4375725256697287
8.033741267102197,0.6165600902453017,-1.1981928470375445,-1.4464254656098325
8.03990686800465,0.5137823107351291,-1.2126571016936427,-1.455294010940628
8.045044691112,0.4114072411366462,-1.227210041803049,-1.463920403693618
8.049158763523367,0.30952479043079195,-1.241849245839985,-1.4720907750480738
8.052254011427676,0.2082018699910834,-1.2565701535904656,-1.4796351778978354
8.054336030127587,0.10748252971026209,-1.271366505369444,-1.4864265131972825
8.05541085542469,0.007388780588638247,-1.2862307705014169,-1.4923785063086008
8.055484743230576,-0.09207801235487921,-1.301154555564503,-1.4974429085180085
8.054563963107027,-0.19093528846444197,-1.316128984649683,-1.5016061039649249
8.052654610222383,-0.2892171202403686,-1.3311450456893323,-1.504885295505541
8.049762439019979,-0.38697182274623687,-1.3461938986443878,-1.5073244271511403
8.045892720792516,-0.4842594402695105,-1.3612671429158991,-1.5089899785246037
8.04105012638982,-0.5811491904439229,-1.3763570427011451,-1.5099667410025892
8.035238634485381,-0.6777169283615405,-1.391456710111171,-1.5103536582628154
8.028461465201765,-0.7740426756266695,-1.4065602466937992,-1.5102597877804327
8.0207210384455,-0.8702082428696504,-1.4216628445716035,-1.509800415849047
8.012018956016803,-0.9662949596632744,-1.436760848730094,-1.5090933378833062
8.00235600642017,-1.0623815134961478,-1.4518517821089272,-1.5082552986068085
7.991732191285209,-1.158541889646405,-1.4669343350949953,-1.5073985734199193
7.9801467723887445,-1.2548433964793557,-1.4820083208291945,-1.5066276627158715
7.967598338423951,-1.3513447557607408,-1.4970745974563533,-1.5060360649623563
7.954084890866343,-1.448094234866895,-1.5121349581059769,-1.5057030917147194
7.939603948517674,-1.5451277970986084,-1.527191989023124,-1.505690688096577
7.924152670546688,-1.642467247494532,-1.5422488959040899,-1.5060402254355716
7.907727998071742,-1.7401183544557977,-1.5573092981584455,-1.506769238506341
7.890326814527184,-1.838068932047194,-1.572376990543509,-1.5078680881219721
7.871946125206712,-1.9362868739952086,-1.5874556714247288,-1.5092965406244294
7.85258325646676,-2.0347181381729667,-1.6025486368309731,-1.510980269221571
7.832236075085031,-2.133284689802288,-1.6176584395231888,-1.512807298224329
7.810903228187008,-2.231882422798948,-1.6327865125054322,-1.5146244301978278
7.788584403959018,-2.3303790917358023,-1.6479327568074105,-1.5162337179866099
7.765280613041661,-2.428612301885664,-1.6630950939872766,-1.51738906857689
7.740994490022804,-2.5263876217765717,-1.6782689846730454,-1.5177930937655835
7.7157306138050386,-2.6234769016117823,-1.6934469156107013,-1.5170943533665546
7.689495844788921,-2.7196169016111686,-1.7086178591443668,-1.5148851696578107
7.662299675772809,-2.814508356460818,-1.723766710840945,-1.5107002260131528
7.634154592208201,-2.9078156249766547,-1.7388737131010765,-1.50401619668173
7.605076435958435,-2.9991670967770734,-1.7539138750678938,-1.4942526862961114
7.575084764990664,-3.0881565486934783,-1.7688564019308548,-1.4807747838550347
7.5442031995037295,-3.1743456606551135,-1.7836641497694052,-1.4628975525607115
7.512459742897178,-3.25726791091064,-1.7982931252950123,-1.439892778752759
7.479887063788071,-3.336434069848597,-1.81269205308254,-1.4109982838366824
7.446522723089585,-3.4113394955947127,-1.8268020359209067,-1.3754300550647518
7.412409328133638,-3.4814733974629086,-1.8405563364715543,-1.3323973661757131
7.377594594159008,-3.5463301693051843,-1.8538803101333114,-1.2811209293481798
7.3421312924659565,-3.6054227983127083,-1.8666915194267932,-1.220853939415752
7.306077064482829,-3.6582982219420894,-1.8789000588209508,-1.1509056372511557
7.269494082263408,-3.7045543357682873,-1.8904091151934623,-1.0706667353788824
7.232448538905725,-3.7438581529873747,-1.901115782547251,-0.9796357281933293
7.195009957375851,-3.7759643943220063,-1.9109121398291844,-0.8774447765112784
7.157250313432631,-3.8007335666393107,-1.9196865875942972,-0.7638835497368494
7.1192429777662385,-3.81814840039572,-1.9273254230916657,-0.6389191790218033
7.081061493762281,-3.828327397982808,-1.9337146148818838,-0.5027103791902484
7.042778219782453,-3.831534237136031,-1.9387417186737863,-0.3556138917049594
7.004462877411092,-3.828181909697458,-1.9422978575908358,-0.19818172635382883
6.966181058314118,-3.8188307740328016,-1.944279674854374,-0.031148246458703843
6.9279927505737895,-3.8041801515705704,-1.9445911573189611,0.14459308037917376
6.8899509490580835,-3.785053665343953,-1.9431452265151694,0.3280225359219844
6.852100412404644,-3.762379132400429,-1.9398650011559495,0.518034960665982
6.814476621080639,-3.7371643941847874,-1.9346846515492897,0.7134860830428664
6.777104977138792,-3.7104709091459767,-1.927549790718861,0.9132414107141107
6.740000268047332,-3.6833871682621044,-1.9184173766117198,1.1162245644209337
6.703166396364711,-3.657003991785898,-1.9072551309675105,1.321462164372857
6.666596356446853,-3.632393534436977,-1.894040509323782,1.5281229597721873
6.630272421102483,-3.610593418868055,-1.8787592797260602,1.7355497227912018
6.594166486913803,-3.592596914291686,-1.8614037824981482,1.9432833734476322
6.558240517770886,-3.57934956819296,-1.841970948763672,2.151079723649163
6.522447022088957,-3.5717522630787486,-1.8204601515271803,2.3589200166513313
6.4867294994581695,-3.570670362172148,-1.796870951360667,2.5670170269189545
6.451022795836448,-3.576948453340442,-1.7712007810914776,2.7758188586275643
6.415253311303044,-3.5914301973908596,-1.743442592505202,2.9860127632641755
6.379339009329135,-3.6149829121276613,-1.7135824648725602,3.198531337011598
6.343189180207858,-3.648526739617343,-1.6815971515024442,3.4145634107635607
6.306703912811685,-3.6930685010935402,-1.6474515173948086,3.635571847378735
6.26977322780075,-3.749740572963264,-1.6110957989210213,3.8633203081973875
6.232275822071117,-3.8198452074230276,-1.5724625958390475,4.099910759497367
6.194077369996887,-3.9049044658467347,-1.5314634882440739,4.347832821313329
6.15502832533842,-4.00671491840787,-1.4879851600309406,4.61002447371606
6.114961176154341,-4.127403636069234,-1.44188491529378,4.889939968619498
6.073687139793648,-4.269475991725061,-1.392985515607585,5.191612613493441
6.030992379876397,-4.435832739712409,-1.3410693894726506,5.519682339634603
5.986634052479273,-4.629706299577813,-1.2858725660763046,5.879320285214102
5.9403369894834945,-4.854409394446084,-1.2270793632241637,6.275904462476693
5.891792895539034,-5.112676189813951,-1.1643203185993967,6.714144108103907
5.8406661336408945,-5.405166503147937,-1.0971788775183575,7.196058550089952
5.786614468609415,-5.727376215727044,-1.025218292017458,7.716757683437729
5.729340706452145,-6.063926038149535,-0.9480507151830807,8.256584524224918
5.66870144607065,-6.379944389920726,-0.8654848699408315,8.769197374087097
5.604902002171443,-6.613726953115927,-0.7777928961999605,9.171369613770857
5.538764732640283,-6.685270042856774,-0.686079200062252,9.354781300818612
5.471912032211716,-6.537908281382092,-0.5925313870540658,9.243694454400176
5.406532949397895,-6.189636791583437,-0.5000944425100641,8.865695464536724
5.34463658148206,-5.725420471740712,-0.4114374878646968,8.340115787658657
5.287382376764653,-5.2332944823982945,-0.3280363299881102,7.789083638409115
5.23504943194067,-4.764507978791968,-0.25014549360401905,7.282971598687343
5.18740435215275,-4.337348722907025,-0.17731577761714562,6.846485567946346
5.14403086492368,-3.9530064744193494,-0.10885092193768216,6.480962068051675
5.104500800179487,-3.6062827033179676,-0.044041301257165405,6.179210520711124
5.068437973146307,-3.2905148563110798,0.01775080394994584,5.932249531851775
5.035532824583196,-2.999406806911286,0.0770732992684636,5.731758508764707
5.005538756514084,-2.7275497918994915,0.13439088435611066,5.570735433488011
4.978263258595089,-2.4704590408580196,0.19009823869099077,5.443500829133956
4.953558668186508,-2.224459738880511,0.24453324698233034,5.345503644393623
4.931314070797703,-1.986546466095944,0.2979882834262666,5.2730958054492945
4.9114486061367435,-1.7542574935272992,0.35071924148075956,5.223329217265139
4.89390603120147,-1.525574264776019,0.40295253365341094,5.1937872822214475
4.87865028855371,-1.2988455717601493,0.4548904064756254,5.182448933772449
4.865661832836109,-1.0727327556556325,0.5067148958133498,5.187579471527346
4.8549345052795525,-0.846171805465588,0.5585906905286233,5.20764243768112
4.846472787224896,-0.6183485945714496,0.6106671149054345,5.241227860174188
4.8402893012791814,-0.38868399160579337,0.6630793935071764,5.286993487568432
4.836402461363123,-0.15682597467432022,0.7159493283828607,5.3436168503559
4.83483420161638,0.07735388106065857,0.7693854968864198,5.409757018940818
4.835607740426987,0.3137620580523593,0.823483067075828,5.484025770508992
4.83874536100751,0.5520853633478777,0.8783233247809179,5.564968511824228
4.84426621464099,0.7917962259761465,0.9339730098991602,5.6510557054144925
4.852184176900751,1.0321633004148216,0.9904835669533052,5.74068567126311
4.862505809904899,1.2722693358333286,1.0478904236659363,5.832199440569498
4.875228503263233,1.5110377142773532,1.1062124180716313,5.923907794218395
4.890338880406007,1.7472682326748046,1.1654514960138151,6.01412973846532
4.907811562732754,1.9796816289341175,1.2255927933984683,6.10124052928593
4.927608379022096,2.206971128090104,1.2866051986913276,6.183726105777361
4.949678090302997,2.427858077631277,1.3484424597491012,6.260239651093509
4.97395667107931,2.641147766715478,1.4110448562600362,6.329655220265718
5.000368148746465,2.845780998707637,1.4743414084626933,6.391113188060747
5.028825958733541,3.040877069365641,1.5382525403433007,6.444052815044457
5.059234729427197,3.225764540401366,1.6026930684937453,6.488228496991342
5.09149237483121,3.399997495161315,1.6675753534636586,6.523708076250237
5.1254923497828235,3.5633565964765617,1.732812434226161,6.550853643983926
5.161125915747589,3.7158359384907143,1.7983209706660004,6.570287182179204
5.1982842751324965,3.8576180998507446,1.8640238424877924,6.582844855454411
5.236860456131004,3.9890407476223726,1.9298522910423366,6.589524556667771
5.276750863607228,4.110558514735849,1.9957475366090143,6.591431388786727
5.317856448754586,4.222703710930136,2.0616618504968813,6.589725229096434
5.360083485863887,4.326048856556472,2.1275591027878455,6.585573570189835
5.403343974429452,4.421173225250282,2.193414838489744,6.580111697837446
5.447555706681955,4.50863471774073,2.2592159554681186,6.574411156110629
5.492642053859362,4.5889475999598055,2.3249600670292248,6.569456511360006
5.53853152985896,4.662566006681606,2.390654632142825,6.566129733776466
5.585157189925776,4.729872668989552,2.4563159294805894,6.565201081043534
5.632455916615672,4.791172063086595,2.5219679402910247,6.567325162967334
5.680367637246538,4.846687069287794,2.587641191920698,6.573040837030716
5.728834507939416,4.896558234190275,2.6533716002910053,6.582773675887635
5.7778000902813185,4.940844807529753,2.7191993370498815,6.5968399085640534
5.827208538356616,4.979526846159294,2.785167736135522,6.615450928977832
5.877003806818209,5.012507817701626,2.8513222454253,6.638717662654904
5.927128884995225,5.039617281077008,2.9177094220518494,6.66665427105718
5.9775250578059955,5.060613362792047,2.984375964762421,6.699180847623498
6.028131191433916,5.075184884340694,3.051367773238656,6.7361249216158345
6.078883040277323,5.082953128389102,3.1187290224548145,6.777221740103205
6.129712571561214,5.083473362212749,3.1865012398558465,6.822113451514509
6.1805473051833415,5.076236368696931,3.2547223743709917,6.87034747260573
6.231309668870311,5.060670369118807,3.323425849097049,6.921374489048765
6.281916372561499,5.0361438558901535,3.3926395939875365,6.974546719274416
6.332277811120401,5.001969980934291,3.4623850611802807,7.029117257477626
6.382297510929743,4.957413253976301,3.532676233755057,7.084241493384432
6.431871643469506,4.901699375386301,3.6035186486889015,7.138981763111091
6.480888637223369,4.834029033858601,3.6749084663200122,7.1923164868856
6.529228927561955,4.753596407930301,3.746831631188868,7.243155055809646
6.576764891641258,4.659612887994778,3.8192631817469644,7.2903595952585105
6.623361020521206,4.5513361528768375,3.8921667776995497,7.332774411711312
6.6688743820499745,4.428104178211148,3.965494521816663,7.3692633895379105
6.713155423832086,4.289373036481536,4.039187155712042,7.398754838342919
6.756049154196901,4.134756524100193,4.113174704095471,7.420292336978953
6.797396719437903,3.964064819795491,4.18737762746526,7.433089070300286
6.837037367635858,3.77733868497075,4.261708518168263,7.436582160354149
6.874810754485566,3.5748753297089135,4.3360743397718045,7.43048274985856
6.910559507782655,3.357242146607263,4.41037916727039,7.414817306364791
6.944131929248727,3.1252751608488807,4.484527340334038,7.389955942355298
6.975384680857216,2.880060259423597,4.558426899757591,7.356624554650792
7.004185283451452,2.6228969177919765,4.631993145304099,7.315899203884715
7.030414252629372,2.3552459907036365,4.705152137342946,7.269183166245737
7.0539667125364085,2.0786648537022323,4.777843969005403,7.218169174136272
7.074753361073431,1.7947344533892282,4.850025660746765,7.164791167598875
7.0927007056073235,1.5049834114138632,4.921673572422754,7.111171110531455
