th1 (rad),w1 (rad/s),th2 (rad),w2 (rad/s)
3.204668297527834,-2.324209541876907,3.474790778206159,1.762648224678519
3.181426202109065,-2.32080447562527,3.492417260452944,1.777004115713072
3.1582181573528123,-2.319803348633926,3.510187301610075,1.7932492054243687
3.135020123866473,-2.321041620210084,3.5281197936643185,1.8111689269743694
3.111809707664372,-2.324343540840513,3.546231482934062,1.8305264652753528
3.088566272255967,-2.3295293945946622,3.564536747586816,1.8510732575662212
3.06527097831002,-2.3364219116030367,3.5830474801624783,1.8725582158886127
3.04190675919399,-2.3448516606940606,3.6017730623213646,1.894735398896238
3.0184582425870494,-2.35466133861599,3.620720416310327,1.917370013373133
2.9949116292008897,-2.365708961296772,3.6398941164440584,1.9402427534773508
2.971254539587922,-2.37787003119729,3.659296543978832,1.963152583593469
2.947475839275949,-2.3910388023960456,3.678928069814767,1.985918137945963
2.9235654512519886,-2.40512879296254,3.6987872511942266,2.0083779488022953
2.899514163322363,-2.4200727051653477,3.7188710306822497,2.0303897291717514
2.8753134362707096,-2.435821911651816,3.739174927973967,2.0518289305198483
2.8509552171541914,-2.452345653727186,3.7596932172791657,2.072586776672886
2.8264317606169196,-2.469630079872542,3.7804190850458945,2.0925679470174856
2.801735459818194,-2.4876772318034304,3.8013447645160694,2.1116880498216606
2.7768586875001597,-2.506504064149255,3.822461645014286,2.129870993569183
2.7517936468586672,-2.526141563979354,3.843760354949978,2.147046333133965
2.7265322312188736,-2.546634018999976,3.8652308182813178,2.1631466400027994
2.7010658910288736,-2.5680384688208955,3.886862284681346,2.1781049223735836
2.675385506340665,-2.590424362332909,3.908643333905082,2.1918521020163584
2.6494812627173356,-2.6138734357350817,3.9305618549252457,2.204314540105556
2.6233425283599847,-2.6384798196934955,3.9526050003263014,2.215411593427997
2.5969577301630498,-2.6643503799744406,3.9747591162605813,2.2250531750001046
2.570314226363305,-2.6916052930795202,3.9970096480105823,2.233137288808007
2.54339817343251,-2.720378856275115,4.019341020898662,2.2395475068880777
2.5161943848697588,-2.750820529256386,4.041736495967543,2.244150358297442
2.488686179577195,-2.783096201733453,4.064177999550517,2.2467926039956807
2.4608552175598604,-2.8173896765528443,4.0866459255904735,2.2472983799720523
2.432681320794332,-2.853904350435425,4.109118909390194,2.2454662043007496
2.404142277289978,-2.8928650625765346,4.131573571433202,2.2410658640055003
2.3752136266642125,-2.9345200633383226,4.153984230073257,2.2338352272653608
2.345868426030829,-2.9791430286227656,4.17632258234591,2.2234770691814316
2.3160769957446017,-3.0270350070838066,4.1985573530377245,2.2096560598413912
2.285806645673764,-3.0785261331040226,4.220653913636139,2.1919961479773282
2.2550213843427236,-3.1339768634864176,4.242573875115912,2.1700786898789546
2.2236816157078594,-3.1937783943121247,4.264274662014702,2.1434418306404357
2.191743831764738,-3.258351780152598,4.285709080321107,2.111581853467869
2.1591603139632123,-3.3281451050681907,4.306824898855785,2.0739574823968043
2.1258788629125305,-3.403627840271041,4.327564473679753,2.0299984608148396
2.09184258450982,-3.485281269549005,4.347864458287901,1.9791201306205055
2.05698977181433,-3.573583584630561,4.3676556595941065,1.9207461855174943
2.021253935968024,-3.6689879827383187,4.386863121449282,1.8543422173420085
1.984564056140641,-3.7718919033460194,4.405406543622702,1.7794630183111673
1.9468451371071809,-3.882595531431788,4.423201173805813,1.6958166759207993
1.908019181792863,-4.001248037746068,4.440159340565021,1.603348041548413
1.8680067014154023,-4.127780947770911,4.4561928209805055,1.5023428135152046
1.8267288919376932,-4.261829788043745,4.471216249115658,1.3935508324267876
1.7841105940572557,-4.4026479718232014,4.485151757439926,1.2783228634517119
1.7400841143390238,-4.549020804896112,4.497934986074443,1.1587490043883752
1.6945939062900626,-4.699192200541884,4.5095224761183275,1.0377793308443757
1.6476019842846437,-4.850821307064405,4.519900269426771,0.9192997844216477
1.5990937712139996,-5.000989236531759,4.529093267270988,0.808131017274343
1.549083878848682,-5.146275460732331,4.537174577443731,0.7099181394106228
1.4976211242413586,-5.282917419342959,4.5442737588378375,0.6308881746586542
1.444791950047929,-5.407054828761156,4.550582640584424,0.5774709652935504
1.3907214017603173,-5.515043480786857,4.556357350237359,0.5558065154086358
1.3355709669524487,-5.6038055710187304,4.561915415391446,0.5711917834326129
1.2795329112422613,-5.671169681605328,4.567627333225772,0.6275445298881566
1.222821214426208,-5.7161479551419925,4.573902778524654,0.7269727984075952
1.1656597348747881,-5.739103262023626,4.58117250650873,0.8695306904637483
1.1082687022545519,-5.741775116464138,4.589867813413367,1.0532138627518164
1.0508509510899104,-5.727157003330492,4.600399952040885,1.2742064547974528
0.9935793810566055,-5.699244816073553,4.613142016588859,1.527344216682929
0.9365869328958699,-5.6627000502362765,4.628415458755688,1.806718305485733
0.8799599323935071,-5.622485973314861,4.646482641810546,2.106321771598534
0.8237350726603585,-5.583536086727906,4.667545859526531,2.42064258289462
0.7678997117930795,-5.55050195172201,4.691752285355477,2.7451316119469134
0.7123946922758594,-5.527606620312366,4.7192036014749466,3.076512155999759
0.6571186260727357,-5.518607804603699,4.749968723034944,3.4129366032191446
0.6019325480266987,-5.5268581195792335,4.784098089067135,3.7540253009674216
0.5466639668309063,-5.555441659979764,4.82163834207681,4.100837922257556
0.4911095502311087,-5.607366657757514,4.862646721299385,4.455830122468058
0.4350358836535336,-5.685800543392404,4.9072050225240655,4.822843028857113
0.3781778782196095,-5.79434331119346,4.9554334528126365,5.207165536785735
0.3202344451076749,-5.937344925949542,5.007505108180494,5.61570304944997
0.26086099584817946,-6.120279853261955,5.063662138674994,6.057281261257053
0.1996581973155599,-6.350191487588192,5.124234951287565,6.543103757964724
0.13615628243967798,-6.63619703697077,5.189665988867212,7.087347298817885
0.06979431206997028,-6.98995779768354,5.260539461855391,7.70775997103427
-0.00010526590686513182,-7.425751856679884,5.337617061565734,8.425758574930223
-0.07436278447366397,-7.959006463648861,5.421874647315036,9.264441847225662
-0.15395284911015258,-8.600016164838054,5.514519065787293,10.2399694391136
-0.23995301075853315,-9.334513080633494,5.616918760178429,11.334682778365474
-0.3332981415648681,-10.075672516783934,5.730265587962084,12.430385576545136
-0.43405486673270743,-10.589858060270037,5.854569443727535,13.204857417660536
-0.5399534473354078,-10.532577443588915,5.98661801790414,13.182208105520095
-0.645279221771297,-9.822608134561943,6.118440098959342,12.2544596807936
-0.7435053031169164,-8.839407919120784,6.240984695767278,10.952682495355534
-0.8318993823081242,-7.929517873815121,6.350511520720833,9.757520383687133
-0.9111945610462754,-7.185117856644056,6.448086724557704,8.795517880397213
-0.9830457396127159,-6.588302378208567,6.536041903361676,8.04171642717672
-1.0489287633948017,-6.103799584328534,6.616459067633444,7.448015322902131
-1.109966759238087,-5.7020272923204995,6.6909392208624645,6.974674661073276
-1.166987032161292,-5.361239895097803,6.760685967473197,6.59306058709232
-1.22059943111227,-5.065778914632987,6.82661657334412,6.283127992155248
-1.2712572202585999,-4.80423673022151,6.889447853265673,6.030834561080756
-1.319299587560815,-4.56811857312304,6.94975619887648,5.826252188463697
-1.3649807732920454,-4.350949701759399,7.008018720761117,5.6622768071517795
-1.4084902703096394,-4.147700961907716,7.064641488832635,5.53374163571636
-1.4499672799287164,-3.9544348534159153,7.119978905189798,5.43677969996853
-1.4895116284628755,-3.7681088683955704,7.174346702189483,5.36832981643909
-1.5271927171468314,-3.5864965123959585,7.228030000353875,5.3257171473051805
-1.563057682270791,-3.408197965322346,7.281287171826927,5.306268545542488
-1.5971396619240144,-3.232712441388203,7.334349857282351,5.306950950466878
-1.6294667863378964,-3.0605337444086564,7.38741936678702,5.324052998568489
-1.660072123781983,-2.8932122919554546,7.440659896772705,5.352965484638371
-1.6890042467015376,-2.733309749932813,7.494189551619089,5.388145687272282
-1.7163373442008658,-2.584172820474179,7.548071008491811,5.42335298614506
-1.7421790724056077,-2.4494898210477993,7.602304538353262,5.452194058707114
-1.7666739706160857,-2.3326735725515535,7.656826478940332,5.468908833736617
-1.7900007063416012,-2.236210661343888,7.711515567277699,5.469200628314508
-1.8123628129550402,-2.1611726713479955,7.766207573560844,5.450844277631081
-1.83397453966852,-2.107048284389448,7.820716016337155,5.413861964892533
-1.8550450225124147,-2.071932781671258,7.87485463598608,5.360225299330781
-1.8757643503291273,-2.052974712740306,7.928456888979388,5.2932253355462855
-1.8962940974565303,-2.046907739583324,7.981389142334851,5.216743838374509
-1.9167631748523635,-2.050513636706278,8.033556580718596,5.134629667911206
-1.9372683112194262,-2.0609344764639186,8.084902877397708,5.050284708446709
-1.9578776559840654,-2.075825458957952,8.135405724482174,4.966465538334752
-1.9786359105736449,-2.0933839143680957,8.185070379865522,4.885249885913331
-1.9995697497173257,-2.1123024582571728,8.233922878724655,4.808102279004212
-2.0206927742998975,-2.131687350792558,8.282003901514697,4.7359839540127995
-2.042009647807823,-2.1509695826712996,8.329363741054825,4.669470828254443
-2.0635193436345363,-2.1698236835475284,8.37605844933737,4.608860221024449
-2.0852175804700117,-2.1881004227870062,8.422147051547615,4.554258690707154
-2.107098584697882,-2.205774405263164,8.467689638454686,4.505650072906785
-2.1291563287505135,-2.2229050519943288,8.512746139183754,4.462945988881664
-2.1513853792704567,-2.2396085536014825,8.557375599072572,4.426022166531952
-2.1737814648064715,-2.256038324632756,8.601635820737892,4.394743904352832
-2.196341848052799,-2.2723717920607966,8.64558325978142,4.3689835370120225
-2.219065565973407,-2.288801761741417,8.68927309515154,4.348632162855844
-2.241953583590821,-2.3055309975245684,8.732759416780098,4.333607322229858
-2.265008893566067,-2.322768968949864,8.776095490002398,4.323857825491687
-2.2882365832555656,-2.34072996162123,8.819334068257314,4.319366525974676
-2.311643882871778,-2.3596319010223543,8.86252773351706,4.3201514985990945
-2.3352402018820015,-2.3796953208374547,8.905729248503052,4.326265792977897
-2.359037155090376,-2.40114191376233,8.94899190643283,4.337795650853016
-2.3830485742279994,-2.4241920345367776,8.992369862941361,4.354856779630438
-2.4072904945733673,-2.4490603740941648,9.035918430737665,4.3775879227557075
-2.431781098314309,-2.4759487780945033,9.079694309965221,4.406140528354691
-2.456540586095254,-2.5050348292403175,9.123755715248768,4.440662756980117
-2.481590934387657,-2.536454345219592,9.168162342818569,4.48127536831142
-2.506955477839853,-2.5702753859383476,9.212975096501683,4.528036207190524
-2.5326582316992363,-2.606460807925567,9.258255458573588,4.5808891909954195
-2.558722839778492,-2.644816089648521,9.304064350483543,4.639593205556673
-2.5851710006749773,-2.684919588537354,9.35046028253911,4.703626843881985
-2.612020196560351,-2.7260345226770117,9.39749655097793,4.772067774924011
-2.639280541787121,-2.7670072945748414,9.44521722872717,4.843452788593078
-2.666950614732869,-2.8061671427416077,9.493651756613101,4.915638815704309
-2.695012286160285,-2.8412586176816848,9.542808144770143,4.985708031381427
-2.7234248723371017,-2.869458567369729,9.592665225083957,5.049988151172396
-2.752119458010799,-2.8875426956694716,9.643165106595681,5.104277708790744
-2.7809948849674937,-2.892252290275911,9.694207883683589,5.144346270593554
-2.8099174078702527,-2.880846576543163,9.745651346389524,5.166689499466079
-2.8387258736356844,-2.8517138273057725,9.797318241384184,5.169363666608233
-2.867243011908742,-2.8048153269435856,9.849011878050266,5.1525877951439005
-2.895291165178178,-2.741748062258993,9.900537756001706,5.118819365539126
-2.922708645800768,-2.6653727941843433,9.951725949657098,5.072233448106958
-2.9493623737426113,-2.5791662965201914,10.002448284138167,5.017828331625793
-2.975154036707813,-2.486561525950246,10.052626567454425,4.960523224940594
-3.0000196519673157,-2.390479585297573,10.10223179970383,4.904527333084307
-3.0239244478202916,-2.2931154674818064,10.151277073034674,4.853061679532121
-3.0468556024951097,-2.195927543666046,10.199807689829996,4.808360788376728
-3.06881487793177,-2.0997418072427925,10.247891297713762,4.771829358031376
-3.089812296004198,-2.0048952944877017,10.295609591294076,4.744249311517808
-3.1098612489490747,-1.9113734452870745,10.343052084409253,4.72597549677563
-3.1289749834019456,-1.8189220778750073,10.39031183937701,4.717094373287926
-3.1471642041806955,-1.7271302985745025,10.437482783109889,4.717541510146
-3.1644355071664405,-1.6354878596330364,10.48465819821135,4.727183394088295
-3.180790385762771,-1.5434226480651019,10.531930032152232,4.745871784996773
-3.196224612243422,-1.4503237943298875,10.5793887500022,4.7734783806861225
-3.210727850186721,-1.3555548677900051,10.627123533809062,4.809915985546525
-3.224283398864621,-1.2584605042208776,10.675222693664526,4.855150708521388
-3.23686800390683,-1.1583688654768403,10.723774200749741,4.909208308185929
-3.248451692561598,-1.0545916262373385,10.7728662838316,4.972176727673471
-3.2589976088239716,-0.9464226974900306,10.822588051108335,5.0442060786823735
-3.2684618357988717,-0.833136587984809,10.873030111895158,5.125506771007001
-3.27679320167872,-0.7139871315884447,10.924285179605228,5.2163460744632255
-3.2839330729946044,-0.5882072373963835,10.97644864034986,5.317043089458195
-3.2898151453685682,-0.455010327021273,11.029619071244442,5.427961850661714
-3.294365248638781,-0.31359419324227,11.08389868975106,5.549502067478716
-3.2975011905712037,-0.1631481339045435,11.139393710425846,5.682086798013254
-3.299132671910249,-0.002864373142229093,11.196214578405979,5.826146152409862
-3.2991613156416713,0.16804503586091724,11.254476039930077,5.982095929753083
-3.2974808652830623,0.3503244484643991,11.314296999227608,6.15030992575574
-3.2939776207984184,0.5446424782906549,11.375800098485165,6.3310845386116945
-3.2885311960155117,0.7515498700042571,11.439110943871281,6.524594301850301
-3.281015697315469,0.971425916978506,11.504356886889784,6.730837167376246
-3.271301438145684,1.2044123432003344,11.571665258563547,6.949568861533661
-3.2592573147136807,1.4503344004162322,11.641160947178884,7.180226582626145
-3.2447539707095183,1.7086103657991334,11.712963213005146,7.42184385304749
-3.227667867051527,1.9781528190359454,11.78718165153562,7.67296061073578
-3.2078863388611674,2.257268110962297,11.863911257642979,7.931535654845541
-3.185313657751544,2.543564208953092,11.943226614191435,8.194872177827428
-3.1598780156620134,2.833881202280056,12.02517533596971,8.459570813661605
-3.1315392036392127,3.124262314008028,12.109771044106326,8.72152745620198
-3.1002965804991325,3.4099849486057106,12.196986318668346,8.975993652031004
-3.0661967310130755,3.6856694414435895,12.286746255188655,9.217714038538714
-3.0293400365986396,3.9454762757335464,12.378923395574041,9.44114683337574
-2.989885273841304,4.183390087546217,12.473334863907798,9.640759765656362
-2.9480513729658417,4.3935721498053715,12.569742461564362,9.811377105010987
-2.904115651467788,4.5707458485562675,12.667856232614472,9.948537865908236
-2.8584081929822256,4.710567193272618,12.767341611273554,10.048816324271622
-2.8113025210494995,4.809929604338982,12.86782977451627,10.110058114134384
-2.7632032250061096,4.867161332779202,12.968930355657614,10.131499254383908
-2.714531611678318,4.882092851631101,13.070245348201453,10.113757697823779
-2.6657106831620068,4.855994663191549,13.17138292517969,10.058710291677079
-2.6171507365300912,4.791406301095166,13.271970028096462,9.96928526488677
-2.5692366735191396,4.691889893961753,13.37166288074533,9.849207580215438
-2.522317774579522,4.561745132014177,13.470154956547484,9.702732149183587
-2.4767003232593803,4.405718694961215,13.56718227803932,9.534391583824249
-2.432643136309768,4.228733486872016,13.662526193877563,9.348775155597892
-2.3903558014410478,4.035654415614963,13.756013945433542,9.150347032884532
-2.3499992572848982,3.831099791310646,13.847517415762388,8.943305890801398
-2.311688259371792,3.619301368145906,13.936950474670402,8.731484421988096
-2.275495245690333,3.404011592309194,14.024265318890283,8.518285322636334
-2.2414551297672407,3.1884534999431975,14.109448172116647,8.306649237854696
-2.2095705947678086,2.9753067133227296,14.192514664495194,8.09904949896223
-2.1798175276345813,2.7667219600519126,14.273505159484817,7.897508138040878
-2.152150308034062,2.564356356539412,14.352480240865225,7.703627630448699
-2.126506744468668,2.369422191238953,14.429516517169711,7.51863311315788
-2.1028125225562784,2.182742914457466,14.50470284830129,7.343420422105711
-2.080985093411704,2.004811274693876,14.578137052522347,7.178606096602157
-2.060936980664765,1.8358458409190654,14.649923113488368,7.024576398377743
-2.042578522255574,1.675843366064163,14.720168877472146,6.8815332784045316
-2.0258200885949327,1.5246254853542403,14.78898421025619,6.749536015001816
-2.01057383374139,1.381879062308677,14.856479570406208,6.628537895530412
-1.9967550431183034,1.2471900936173796,14.922764949361511,6.518417806236766
-1.9842831421821296,1.120071485617646,14.987949127423878,6.419006938459685
-1.9730824273259533,0.999985256214731,15.052139196808476,6.330111035689932
-1.9630825747638059,0.8863598362794152,15.115440307165375,6.2515287213572535
-1.9542189764010118,0.7786031804004265,15.177955594378949,6.1830664878216455
-1.9464329445970077,0.6761123792382367,15.239786259257166,6.1245509153180455
-1.9396718208046253,0.5782804191074264,15.301031768410345,6.075838642813648
-1.933889016613551,0.48450067756988824,15.361790154838483,6.036824542533343
-1.929044009837852,0.39416969115621125,15.422158400263816,6.007448462382832
-1.9251023129262899,0.30668869460800197,15.482232884887644,5.9877007962786974
-1.92203542598021,0.22146442125996385,15.54210989285043,5.977627016413982
-1.9198207817676103,0.13790968370047307,15.60188616301457,5.977331142140594
-1.9184416849306056,0.055444338727458714,15.661659474435975,5.986977907558568
-1.917887241543331,-0.026502596490247568,15.72152925351156,6.006793093030662
-1.9181522675082334,-0.10848863647544738,15.781597184441868,6.037061058246987
-1.919237153872988,-0.19104985584372114,15.841967795024338,6.0781178887799205
-1.9211476524314253,-0.274687128409493,15.902748973912137,6.130337650218626
-1.9238945237155203,-0.3598434917135278,15.964052350414324,6.194107910573874
-1.9274929586326555,-0.4468681931271343,16.025993429520064,6.269788799794477
-1.9319616405639268,-0.5359611489609378,16.08869131751801,6.357647306433904
-1.9373212520535361,-0.6270893114711761,16.152267790582346,6.457755296540775
-1.9435921451682479,-0.7198641885874796,16.216845343547753,6.569836355488696
-1.9507907870541226,-0.8133686956692057,16.28254370710264,6.693044540841654
-1.9589244740108147,-0.9059244430322526,16.349474152511057,6.825661209572373
-1.9679837184411373,-0.9948029941469801,16.41773076460678,6.964711683170975
-1.977931748382607,-1.075915383209232,16.48737788143849,7.105543694258777
-1.9886909022146995,-1.1435726375559045,16.558433318381077,7.2414874148697566
-2.0001266285902584,-1.190494209377944,16.630848192529776,7.363830386328425
-2.0120315706840377,-1.2083114754922732,16.70448649639306,7.462436912485309
-2.0241146854389602,-1.1887670534818153,16.77911086551791,7.527281409447964
-2.0360023559737783,-1.1255214096967463,16.85438367961239,7.550777713126663
-2.047257570070746,-1.0159764061979573,16.929891456743658,7.530113912646161
-2.0574173341327255,-0.8621888983724357,17.00519259587012,7.468359584044496
-2.0660392231164497,-0.6702706448814792,17.079876191710564,7.373564539379885
-2.0727419295652645,-0.4485721551466604,17.153611837104364,7.256286949726063
