th1 (rad),w1 (rad/s),th2 (rad),w2 (rad/s),a1 (rad/s^2),a2 (rad/s^2)
4.147603455954165,2.722623340859701,3.287542132331075,0.8011104304140765,7.288487611480644,2.288228098219465
4.174829689362762,2.7955082169745076,3.295553236635216,0.8239927113962712,7.227324302294165,2.9135497204838385
4.2027847715325075,2.8677814599974494,3.3037931637491784,0.8531282086011096,7.161317249219838,3.5624591897034423
4.231462586132482,2.939394632489648,3.3123244458351895,0.888752800498144,7.090290613554147,4.2342702634384635
4.260856532457378,3.0102975386251893,3.321211973840171,0.9310955031325286,7.013870343576597,4.928213118455886
4.29095950784363,3.0804362420609555,3.3305229288714964,0.9803776343170875,6.931449887154967,5.643431402815038
4.32176387026424,3.149750740932505,3.3403267052146672,1.0368119483452378,6.842157283210186,6.378973063064117
4.353261377673565,3.218172313764607,3.3506948246981194,1.100601678975879,6.744824180021335,7.1337745421641126
4.385443100811211,3.2856205555648206,3.3617008414878784,1.17193942439752,6.637957266902365,7.9066383277820735
4.418299306366859,3.3520001282338443,3.3734202357318535,1.2510058076753408,6.519712587433323,8.696204229759136
4.451819307649197,3.4171972541081774,3.385930293808607,1.3379678499729322,6.387873237249685,9.500915172264621
4.485991280190279,3.481075986480674,3.399309972308336,1.4329770016955783,6.2398310418105005,10.318978697945948
4.520802040055086,3.543474296898779,3.4136397423252918,1.5361667886750379,6.072572958056925,11.148325799774836
4.556236783024074,3.6042000264793486,3.429001410212042,1.6476500466727861,5.882673140927132,11.986569124730407
4.592278783288868,3.6630267578886198,3.44547791067877,1.7675157379200903,5.666291847861939,12.830963034872589
4.628909050867754,3.7196896763672394,3.463153068057971,1.8958253682688162,5.41918260233631,13.678368465417199
4.666105947631426,3.7738815023906023,3.482111321740659,2.032609052922988,5.136709275690607,14.5252259798737
4.703844762655332,3.8252485951475084,3.502437412269889,2.177861312721725,4.813874943582386,15.36754087458651
4.742097248606807,3.8733873445833322,3.524216025397106,2.33153672146759,4.445364491557886,16.200884604403477
4.780831122052641,3.9178409894989112,3.547531392611782,2.4935455675116245,4.0256029400688,17.02041715172194
4.82000953194763,3.958097018899599,3.5724668482868984,2.663749739028844,3.548831284453025,17.82093519564794
4.8595905021366255,3.9935853317441294,3.599104345677187,2.8419590909853234,3.009201248924073,18.59695099944129
4.899526355454067,4.02367734423337,3.62752393658704,3.0279286009797364,2.400889685143168,19.342806759111323
4.9397631288964,4.047686241084802,3.6578032225968373,3.2213566685708495,1.7182323610776138,20.052828678749098
4.980239991307248,4.064868564695578,3.690016789282546,3.4218849553583404,0.9558755533368288,20.72152419954088
5.020888676954204,4.0744273202289465,3.7242356388361295,3.629100197353749,0.10894216729127819,21.343824565376423
5.061632950156493,4.075516741901859,3.760526640809667,3.8425384430075136,-0.8267929108939118,21.91537324111811
5.102388117575512,4.06724881279292,3.798952025239742,4.0616921754186945,-1.854725805917074,22.432858631012323
5.143060605703441,4.04870155473375,3.839568946993929,4.2860207617288175,-2.9772549717026564,22.894387144589984
5.183547621250779,4.018929005016723,3.8824291546112173,4.514964633174717,-4.195633149233197,23.299890051029678
5.2237369113009455,3.976972673524391,3.9275788009429644,4.747963533685014,-5.509854237867085,23.651554927027984
5.26350663803619,3.92187413114572,3.9750584362798147,4.984479082955294,-6.918590559452142,23.954270044388505
5.302725379347647,3.8526882255511987,4.024903227109368,5.224021783399179,-8.41919594686973,24.21606794740459
5.3412522616031595,3.768496266082501,4.07714344494336,5.466182462873225,-10.007788157941475,24.44855280234921
5.378937224263985,3.6684183845030867,4.131805269572092,5.710667990896717,-11.67941948488513,24.667294632042474
5.415621408109016,3.5516241896542353,4.188911949481059,5.9573409372171415,-13.428335970551379,24.892171450948982
5.451137650005558,3.4173408299487216,4.24848535885323,6.2062626517266315,-15.248311647168743,25.147635655601317
5.4853110583050455,3.264857713477034,4.310547985370497,6.457739008282645,-17.13302184520256,25.46286987901842
5.517959635439816,3.0935274950250085,4.375125375453323,6.712367707072829,-19.076383855270375,25.87177243934038
5.548894910390066,2.9027636564723047,4.442249052524051,6.971085431466233,-21.072734878821507,26.412659800795677
5.577922546954789,2.6920363076840896,4.5119599068387135,7.23521202947419,-23.116619370934686,27.127468294911953
5.60484291003163,2.460870113974743,4.584312027133455,7.5064867124233094,-25.201789789645506,28.06003522834537
5.629451611171378,2.208852216078288,4.659376894257688,7.787087064706763,-27.31873180707603,29.252662003959816
5.651540133332161,1.9356648980075277,4.7372477649047555,8.079613684746361,-29.449514793039608,30.739475639618725
5.670896782312236,1.6411697500771316,4.818043901752219,8.387008441142548,-31.55789895611064,32.533901060157156
5.687308479813008,1.3255907605160253,4.9019139861636445,8.712347451744119,-33.571232533433495,34.60556985335703
5.700564387418168,0.9898784351816903,4.989037460681086,9.05840315027769,-35.34871801472022,36.839112749115074
5.710463171769985,0.6363912550344881,5.079621492183863,9.42679427776884,-36.62888764146374,38.96443096395761
5.71682708432033,0.2701023786198507,5.173889434961551,9.816438587408417,-36.95116093985347,40.44985479969195
5.719528108106529,-0.09940923077868402,5.272053820835636,10.220937135405336,-35.56303892159464,40.37072291168145
5.718534015798742,-0.45503961999463044,5.374263192189689,10.624644364522151,-31.379142700477086,37.338405569201115
5.713983619598795,-0.7688310469994013,5.480509635834911,10.998028420214162,-23.17064640029997,29.727082346455667
5.706295309128802,-1.000537511002401,5.590489920037053,11.295299243678718,-10.24625157423354,16.551707631388958
5.696289934018777,-1.1030000267447364,5.7034429124738395,11.460816319992608,6.433585723421282,-1.0736007150143188
5.68525993375133,-1.0386641695105236,5.818051075673766,11.450080312842465,23.75983128083786,-19.297772896649672
5.674873292056224,-0.801065856702145,5.93255187880219,11.257102583875968,37.93408681436144,-33.478962355435264
5.6668626334892025,-0.4217249885585306,6.04512290464095,10.922312960321616,46.90290388287377,-41.34191302596736
5.662645383603617,0.047304050270207176,6.154346034244166,10.508893830061941,51.04898714047419,-43.743197407169426
5.663118424106319,0.557793921674949,6.259434972544786,10.071461855990247,51.92877858740079,-42.908383654758154
5.668696363323068,1.077081707548957,6.360149591104689,9.642378019442665,51.00001224735702,-40.779592974129194
5.679467180398558,1.5870818300225271,6.456573371299116,9.234582089701373,49.19856263616807,-38.53285739718047
5.6953379986987835,2.079067456384208,6.548919192196129,8.849253515729568,47.015740929609755,-36.73417536344088
5.7161286732626255,2.5492248656803054,6.637411727353425,8.481911762095159,44.674429503652306,-35.593622062801764
5.741620921919429,2.9959691607168284,6.722230844974376,8.125975541467142,42.26093463814067,-35.14207657606224
5.771580613526598,3.418578507098235,6.803490600389048,7.77455477570652,39.80145728495294,-35.327803667317355
5.80576639859758,3.8165930799477645,6.881236148146113,7.421276739033346,37.30188798696336,-36.06371720239428
5.843932329397058,4.189611959817398,6.955448915536446,7.060639567009403,34.76719043612667,-37.24930304366531
5.885828448995232,4.537283864178665,7.02605531120654,6.68814653657275,32.21005543789345,-38.78080419452477
5.931201287637019,4.8593844185576,7.092936776572268,6.3003384946275025,29.653924652284246,-40.5564890436252
5.979795131822595,5.155923665080442,7.155940161518543,5.894773604191251,27.132976539914726,-42.480151858411304
6.0313543684734,5.427253430479589,7.214887897560455,5.469972085607138,24.690429496062887,-44.464132014946706
6.085626902778196,5.674157725440218,7.2695876184165265,5.025330765457671,22.375941803867935,-46.43221615730416
6.142368480032598,5.897917143478898,7.3198409260711035,4.56100860388463,20.2426252742823,-48.32234371635546
6.201347651467387,6.100343396221721,7.36545101210995,4.077785166721075,18.344053812632765,-50.08884184320623
6.2623510854296045,6.283783934348048,7.4062288637771605,3.5768967482890126,16.731543633243263,-51.703852928202046
6.325188924773085,6.451099370680481,7.441997831260051,3.0598582190069923,15.451858086887436,-53.1576127437994
6.38969991847989,6.605617951549355,7.472596413450121,2.5282820915689985,14.545316651360592,-54.4572248265236
6.455756097995383,6.751071118062962,7.4978792343658105,1.9837098433037625,14.044035300300747,-55.62347968910056
6.523266809176013,6.891511471065969,7.517716332798848,1.427475046412757,13.969647513716222,-56.68497900324622
6.592181923886672,7.031207946203131,7.531991083262976,0.8606252563802949,14.329266275054124,-57.66818956542321
6.662494003348703,7.1745006089536725,7.540597335826779,0.28394336072606274,15.107505064345153,-58.58085037860754
6.73423900943824,7.325575659597124,7.54343676943404,-0.30186514306001266,16.250897612249734,-59.384139194643545
6.807494766034211,7.488084635719622,7.54041811800344,-0.8957065350064481,17.638993526605315,-59.94614770927975
6.8823756123914075,7.664474570985675,7.531461052653375,-1.4951680120992457,19.034548475171867,-59.96672063283078
6.959020358101264,7.8548200557373935,7.516509372532383,-2.0948352184275536,20.007345055075593,-58.867053534148745
7.037568558658638,8.054893506288149,7.495561020348108,-2.683505753769041,19.84392058963349,-55.663238586576284
7.1181174937215195,8.253332712184484,7.468725962810417,-3.240138139634804,17.513434117908616,-48.925940291703434
7.200650820843364,8.42846705336357,7.436324581414069,-3.7293975425518386,11.875437570304355,-37.09226738116847
7.284935491377,8.547221429066614,7.399030605988551,-4.1003202163635235,2.3808814240497447,-19.485715885750487
7.370407705667667,8.571030243307112,7.358027403824916,-4.295177375221028,-9.870331430809301,2.1597932517227343
7.456118008100738,8.472326928999019,7.315075630072705,-4.2735794427038005,-21.86713342693676,23.329475285844556
7.540841277390728,8.25365559472965,7.272339835645667,-4.040284689845355,-30.36951984628183,39.16495273563462
7.623377833338024,7.949960396266833,7.231936988747213,-3.6486351624890085,-34.12064045851691,47.68823592033668
7.7028774373006925,7.608753991681663,7.195450637122323,-3.1717528032856417,-34.040418029738994,50.13251387564697
7.778964977217509,7.268349811384273,7.163733109089467,-2.6704276645291722,-31.79730302288755,48.9003712816373
7.851648475331352,6.950376781155398,7.137028832444175,-2.1814239517127993,-28.717672445608436,45.96184475699325
7.921152243142906,6.6632000566993135,7.115214592927047,-1.7218055041428668,-25.55570824995519,42.482982597756184
7.987784243709899,6.407642974199762,7.097996537885618,-1.296975678165305,-22.652145451820196,39.03026566387131
8.051860673451896,6.18112151968156,7.085026781103965,-0.9066730215265919,-20.121687874494874,35.83188545062519
8.113671888648712,5.979904640936612,7.075960050888699,-0.54835416702034,-17.97358126867783,32.95089559285609
8.173470935058079,5.800168828249833,7.070476509218495,-0.21884521109177907,-16.174633241240656,30.378322454125517
8.231472623340577,5.6384224958374265,7.068288057107577,0.0849380134494761,-14.678709827864028,28.07841526832322
8.287856848298953,5.491635397558786,7.069137437242072,0.3657221661327083,-13.439345527320643,26.009167377335626
8.34277320227454,5.35724194228558,7.072794658903399,0.6258138399060645,-12.414467706443922,24.130908245130854
8.396345621697396,5.233097265221141,7.07905279730246,0.8671229223573731,-11.56764928465107,22.409382149934554
8.448676594349607,5.11742077237463,7.087724026526034,1.0912167438567186,-10.867947344605648,20.816385854660144
8.499850802073354,5.008741298928574,7.098636193964602,1.29938060240332,-10.289251228706238,19.329397564070955
8.549938215062639,4.905848786641512,7.111629999988635,1.4926745780440296,-9.809535339275042,17.93084857495256
8.598996702929053,4.807753433248761,7.126556745769075,1.671983063793555,-9.410171320326418,16.607323280643573
8.64707423726154,4.7136517200454975,7.14327657640701,1.838056296599991,-9.075347804118419,15.348804476490713
8.694210754461995,4.622898242004314,7.16165713937301,1.991544341364898,-8.791601056559083,14.148004850241527
8.740439736882038,4.534982231438723,7.181572582786659,2.1330243898673134,-8.547442941550937,12.999792655804013
8.785789559196425,4.449507802023214,7.2029028266853325,2.2630223164253533,-8.333068042174835,11.90070648707274
8.830284637216657,4.366177121601465,7.225533049849586,2.3820293812960807,-8.140122351476592,10.84854979033531
8.873946408432671,4.284775898086699,7.2493533436625475,2.490514879199434,-7.961518418809643,9.842055153263836
8.916794167413538,4.205160713898603,7.274258492454542,2.588935430732072,-7.791284765709442,8.880609152742892
8.958845774552524,4.127247866241508,7.300147846761862,2.677741522259501,-7.624440161428273,7.9640296231530066
9.00011825321494,4.051003464627225,7.326925261984457,2.757381818491031,-7.456885747304171,7.092388229531289
9.040628287861212,3.9764346071541836,7.354499080169368,2.828305700786344,-7.285309966191004,6.265872082818064
9.080392633932753,3.9035815074922735,7.382782137177231,2.8909644216145245,-7.107102806518407,5.484678818984145
9.119428449007676,3.8325104794270892,7.411691781393376,2.945811209804366,-6.920277057332891,4.7489401206617545
9.157753553801948,3.7633077088537603,7.44114989349142,2.993300611010983,-6.723395146909309,4.058669133859216
9.195386630890486,3.696073757384667,7.471082899601529,3.0338873023495756,-6.515500759135219,3.4137276594085693
9.232347368464332,3.630918749793315,7.501421772625025,3.0680245789436613,-6.296054840685868,2.8138094026784666
9.268656555962265,3.5679582013864564,7.532102018414461,3.096162672970446,-6.064875874025153,2.2584359582823437
9.30433613797613,3.507309442646205,7.563063645144165,3.1187470325532693,-5.822084436031579,1.7469625930412678
9.339409232402591,3.449088598285889,7.594251115469698,3.136216658483682,-5.568052122593738,1.2785912688099788
9.37390011838545,3.3934080770599517,7.625613282054535,3.1490025711717817,-5.303354922685889,0.852388712458887
9.40783419915605,3.340374527833093,7.657103307766253,3.1575264582963705,-5.028731092396117,0.46730768780029425
9.44123794443438,3.2900872169091318,7.688678572349216,3.1621995351743735,-4.745043526318711,0.12220994828698244
9.474138816603471,3.2426367816459445,7.72030056770096,3.1634216346572432,-4.453246562557122,-0.18411035435414796
9.50656518441993,3.1981043160203733,7.751934784047532,3.1615805311137017,-4.154357096701164,-0.4529037646533212
9.538546227580134,3.1565607450533615,7.783550589358669,3.1570514934671685,-3.8494298250912955,-0.6854438465259253
9.570111835030668,3.1180664468024486,7.8151211042933415,3.150197055001909,-3.539536391795074,-0.8830072590047265
9.601292499498692,3.082671082884498,7.846623074843361,3.1413669824118617,-3.225748178654277,-1.046855938489121
9.632119210327538,3.0504136010979552,7.8780367446674795,3.1308984230269705,-2.9091224539472336,-1.1782216009080362
9.662623346338517,3.0213223765584827,7.909345728897749,3.11911620701789,-2.590691582226348,-1.2782926639124597
9.692836570104102,2.9954154607362193,7.940536890967929,3.1063332803787653,-2.271454994750504,-1.3482036004542435
9.722790724711464,2.9727009107887143,7.971600223771716,3.092851244374223,-1.952373625313258,-1.3890266679753698
9.752517733819351,2.9531771745355817,8.002528736215458,3.0789609776944693,-1.6343665286812215,-1.4017659090002195
9.782049505564707,2.9368335092487694,8.033318345992402,3.0649433186044672,-1.3183094167746963,-1.3873532863491056
9.811417840657194,2.9236504150810223,8.063967779178446,3.0510697857409763,-1.0050348696575622,-1.346646796795078
9.840654344808005,2.9136000663844466,8.094478477035857,3.0376033177730255,-0.6953340029754488,-1.2804303983052845
9.86979034547185,2.9066467263546922,8.124854510213586,3.0247990137899725,-0.3899593994428387,-1.189415585824151
9.898856812735398,2.902747132360264,8.155102500351486,3.012904857931731,-0.08962913823565548,-1.0742444569051142
9.927884284059001,2.9018508409779074,8.185231548930803,3.00216241336268,0.20496821824531936,-0.9354941196639188
9.95690279246878,2.9039005231603605,8.21525317306443,2.9928074721660405,0.4931677966123801,-0.7736823100236973
9.985941797700383,2.908832201126484,8.245181247786089,2.9850706490658037,0.7743218380544088,-0.5892741017689116
10.015030119711648,2.916575419507028,8.275031954276747,2.9791779080481144,1.0477924521754851,-0.3826896104116717
10.044195873906718,2.927053344028783,8.304823733357228,2.9753510119439976,1.3129437578279712,-0.154312609328644
10.073466407347006,2.9401827816070627,8.334577243476668,2.9738078858507113,1.5691334569789415,0.09550000682171754
10.102868235163076,2.9558741161768523,8.364315322335175,2.9747628859189286,1.8157038788772728,0.3664079615501733
10.132426976324844,2.974031154965625,8.394062951194364,2.9784269655344304,2.051972527262718,0.6580765766482295
10.1621672878745,2.994550880238252,8.423847220849709,2.9850077313009127,2.2772221634011816,0.9701650216606185
10.192112796676883,3.0173231018722637,8.453697298162718,2.9947093815175188,2.490690462671133,1.302313856397059
10.222286027695604,3.042230006498975,8.483644391977894,3.0077325200814893,2.6915592925983023,1.65413189006785
10.252708327760594,3.0691455994249583,8.513721717178708,3.0242738389821677,2.8789436759835265,2.025182386384855
10.283399783754843,3.0979350361847935,8.54396445556853,3.0445256628460164,3.0518805244312692,2.4149686565727926
10.314379134116692,3.1284538414291063,8.57440971219699,3.0686753494117442,3.2093172554860927,2.822919102748525
10.345663672530982,3.160547013983967,8.605096465691108,3.0969045404392297,3.3501004409885677,3.2483718036633413
10.377269142670821,3.1940480183938527,8.6360655110955,3.129388258475863,3.472964675344732,3.690558774497912
10.40920962285476,3.2287776651473,8.66735939368026,3.1662938462208423,3.576521900176998,4.148590083354402
10.441497399506233,3.26454288414907,8.699022332142468,3.2077797470543863,3.6592514760650654,4.6214380703037055
10.474142828347723,3.3011353989097207,8.731100129613012,3.2539941277574234,3.7194913522249426,5.107921991117561
10.507154182336821,3.33833031243197,8.763640070890586,3.305073347668599,3.755430749977993,5.606693497619709
10.54053748546114,3.37588461993175,8.796690804367273,3.3611402826447963,3.7651048440802106,6.116223469927203
10.574296331660458,3.413535668372552,8.830302207193721,3.422302517344068,3.7463919949745947,6.634790832057302
10.608431688344183,3.450999588322298,8.864525232367162,3.488650425664641,3.697014151380458,7.160474109909887
10.642941684227406,3.4879697298361023,8.899411736623808,3.56025516676374,3.6145411017475433,7.69114662684715
10.677821381525767,3.524115140853578,8.935014288291445,3.637166633032211,3.49639929900545,8.224476372962688
10.713062532934304,3.5590791338436323,8.971385954621766,3.719411396761838,3.339886008205867,8.757931724020345
10.74865332427274,3.592477993925691,9.008580068589385,3.8069907140020414,3.1421895218826643,9.288794317463275
10.784578104211997,3.6238998891445173,9.046649975729405,3.899878657176674,2.9004161423366437,9.814180506346254
10.820817103103442,3.6529040505678836,9.085648762301172,3.9980204622401367,2.6116245310894963,10.33107289597401
10.85734614360912,3.6790202958787788,9.125628966923573,4.101331191199876,2.272867859693213,10.836363508956115
10.894136346567908,3.701748974475711,9.166642278835571,4.209694826289438,1.8812439485373251,11.32691010732899
10.931153836312665,3.720561413961084,9.208739227098466,4.322963927362728,1.4339532372518782,11.799607109643445
10.968359450452276,3.7349009463336027,9.251968866372094,4.440959998459162,0.9283639795714113,12.251472361341312
11.005708459915612,3.744184586129317,9.296378466356686,4.563474722072575,0.36208348873563934,12.679750735689533
