th1 (rad),w1 (rad/s),th2 (rad),w2 (rad/s),a1 (rad/s^2),a2 (rad/s^2)
4.174796386137628,0.7859854432978125,3.706425028422642,-0.2250990670047783,9.871159702023377,-3.283511087432563
4.182656240570607,0.8846970403180463,3.704174037752594,-0.25793417787910394,9.837568791872258,-3.145342399418857
4.191503210973787,0.9830727282367688,3.701594695973803,-0.2893876018732925,9.79736273641873,-2.984565262986228
4.2013339382561545,1.0810463556009562,3.69870081995507,-0.31923325450315476,9.749884686407617,-2.7994146028908875
4.212144401812164,1.1785452024650325,3.695508487410039,-0.34722740053206363,9.694583647731058,-2.588199556964235
4.223929853836815,1.275491038942343,3.692036213404718,-0.373109396101706,9.63105856181314,-2.3493732126304385
4.236684764226238,1.3718016245604745,3.6883051194437013,-0.3966031282280104,9.559097790157523,-2.081597100290837
4.250402780471843,1.4673926024620498,3.6843390881614213,-0.4174190992309188,9.478711251800162,-1.783796587133081
4.265076706496464,1.5621797149800514,3.6801648971691123,-0.4352570651022496,9.390152636067803,-1.4552035331271977
4.280698503646264,1.6560812413407293,3.67581232651809,-0.44980910043352157,9.293929552349615,-1.0953831722126743
4.297259316059671,1.7490205368642255,3.671314235513755,-0.4607629321556483,9.190800173324469,-0.7042431570709118
4.314749521428314,1.8409285385974703,3.6667066061921982,-0.4678053637263574,9.08175582554113,-0.28202398585244975
4.333158806814288,1.9317460968528817,3.6620285525549345,-0.47062560358488187,8.967989989650686,0.170728512380692
4.3524762677828175,2.0214259967493886,3.657322296519086,-0.46891831846107496,8.850855173516862,0.6532064858346625
4.372690527750311,2.1099345484845573,3.6526331133344754,-0.46238625360272834,8.731809989338903,1.164395709173963
4.393789873235157,2.197252648377946,3.6480092507984483,-0.4507422965109887,8.612359390688269,1.7031391413935957
4.415762399718936,2.2833762422848287,3.6435018278333384,-0.43371090509705273,8.493991332504917,2.268203416792592
4.438596162141784,2.368316155609878,3.639164718782368,-0.4110288709291268,8.378113080781713,2.8583432309496866
4.462279323697882,2.452097286417695,3.6350544300730765,-0.38244543861963,8.265990044459036,3.472358974477826
4.486800296562059,2.5347571868622856,3.63122997568688,-0.34772184887485175,8.158689399308987,4.109143722738902
4.512147868430682,2.6163440808553755,3.6277527571981314,-0.30663041164746274,8.057030019979798,4.767716680573498
4.538311309239235,2.6969143810551737,3.6246864530816567,-0.25895324484172777,7.961539438898256,5.447241264796105
4.5652804530497875,2.776529775444156,3.6220969206332394,-0.20448083219376673,7.872417807854367,6.147027052869095
4.593045750804229,2.8552539535226997,3.620052112311302,-0.14301056166507578,7.7895082265866735,6.866515733741417
4.621598290339455,2.9331490357885666,3.6186220066946513,-0.07434540432766161,7.712272370972771,7.605251907052086
4.650929780697341,3.0102717594982944,3.6178785526513746,0.001707114742859256,7.639770121336771,8.362840072245437
4.681032498292324,3.0866694607116623,3.617895623798803,0.08533551546531362,7.570641854759409,9.13888944782103
4.71189919289944,3.1623758792592565,3.618748978953456,0.17672440994352392,7.503092203251639,9.932948406711908
4.743522951692033,3.237406801291773,3.6205162230528916,0.276053894010643,7.434874362414856,10.744430364686187
4.775897019704951,3.3117555449159215,3.623276761992998,0.38349819765750487,7.363274430608654,11.572532976728342
4.8090145751541105,3.385388289222008,3.6271117439695733,0.49922352742478826,7.285095736707398,12.416152539562674
4.842868458046331,3.458239246589082,3.632103979243821,0.623385052820415,7.196643649612318,13.27379561526201
4.877450850512222,3.530205683085205,3.6383378297720252,0.7561230089730351,7.093711933497551,14.143490116782386
4.912752907343074,3.6011428024201804,3.6458990598617556,0.897557910140859,6.971572300678755,15.022698452099219
4.948764335367276,3.670858525426968,3.654874638963164,1.047784894661851,6.824969400297949,15.908235814445392
4.985472920621546,3.7391082194299474,3.6653524879097827,1.2068672528063051,6.648124043673614,16.7961973204471
5.0228640028158456,3.8055894598666837,3.677421160437846,1.3748292260107762,6.43474797753585,17.681898406787667
5.060919897414513,3.8699369396420424,3.6911694526979537,1.5516482100786528,6.178073936456373,18.559833652228196
5.099619266810933,3.931717679006606,3.7066859347987404,1.7372465466009348,5.870904986383857,19.423659929455475
5.138936443600999,3.9904267288704447,3.7240584002647497,1.9314831458954895,5.50568725137318,20.26621042601795
5.178840710889704,4.045483601384176,3.7433732317237047,2.134145250155669,5.074609923920477,21.07954650480734
5.219295546903545,4.096229700623381,3.7647146842252615,2.3449407152037423,4.5697359171679715,21.85505448909222
5.26025784390978,4.14192705979506,3.7881640913772987,2.5634912600946644,3.9831655444770746,22.58359413652548
5.30167711450773,4.181758715239831,3.8137990039782452,2.789327201459919,3.30723413492527,23.255704696786196
5.343494701660129,4.214831056589084,3.8416922759928442,3.021884248427781,2.5347424557035065,23.8618729317481
5.385643012226019,4.240178481146119,3.871911118477122,3.260502977745262,1.6592161875072986,24.392865250896097
5.42804479703748,4.256770643021191,3.904516148254575,3.504431630254223,0.6751875044186686,24.840123163139594
5.4706125034676925,4.263522518065378,3.939560464557117,3.752832861885619,-0.4215118770078122,25.196217621486696
5.513247728648346,4.2593073992953,3.977088793175973,4.004795038100486,-1.6334608402699151,25.455353676780984
5.555840802641299,4.2429727908926,4.017136743556978,4.259348574868296,-2.961380984044056,25.61391240062746
5.598270530550225,4.21335898105216,4.059730229305661,4.515487698874571,-4.4039133602261105,25.671012641903797
5.640404120360747,4.1693198474498985,4.1048851062944065,4.772197825293609,-5.957465654526062,25.62907132612551
5.682097318835246,4.109745190904638,4.152607084547342,5.028488538554864,-7.6161575584772425,25.49433829131433
5.723194770744293,4.033583615319865,4.202891969932891,5.283431921468008,-9.37189217464725,25.277380766233037
5.763530606897492,3.939864693573393,4.255726289147571,5.536205729130338,-11.21457896336326,24.993494247459015
5.802929253833225,3.8277189039397603,4.311088346438874,5.786140671604929,-13.132528481915747,24.66302133251771
5.841206442872623,3.696393619120603,4.368949753154923,6.032770884930105,-15.113030672885342,24.311568340321298
5.878170379063829,3.545263312391749,4.429277462004224,6.275886568333318,-17.143116649628762,23.97012105962222
5.913623012187746,3.3738321458954617,4.492036327687558,6.51558777892954,-19.210488890879386,23.675074535573817
5.947361333646701,3.181727256986668,4.557192205476853,6.752338524285278,-21.30458641597345,23.468204779828053
5.979178606216568,2.9686813928269333,4.624715590719706,6.9870205720835585,-23.417728834595735,23.39661766860051
6.008865420144837,2.734504104480976,4.694585796440542,7.220986748769564,-25.54625256233802,23.512703121520797
6.036210461189647,2.479041578857596,4.766795663928238,7.456113779984771,-27.691504798106738,23.874084792518456
6.061000876978223,2.2021265308765288,4.841356801728086,7.6948546279099554,-29.860475668420868,24.543456910444043
6.083022142286989,1.90352177419232,4.918305348007186,7.940289197014396,-32.06568393751326,25.58798276356632
6.102057360028912,1.5828649348171875,4.99770823997733,8.19616902465006,-34.323602327024986,27.077480077812208
6.1178860093770835,1.2396289115469377,5.07966993022383,8.466943825428181,-36.6502502254082,29.07971394754348
6.130282298492553,0.8731264092928557,5.164339368478112,8.757740964903617,-39.05128464251697,31.649329422109634
6.139013562585482,0.482613562867686,5.251916778127148,9.074234259124713,-41.50144147216207,34.80351300015931
6.143839698214158,0.06759914814606527,5.3426591207183955,9.422269389126306,-43.903728006638104,38.47121016023459
6.144515689695619,-0.3714381319203158,5.4368818146096585,9.806981490728653,-46.01186597538285,42.392784875690204
6.140801308376416,-0.8315567916741442,5.534951629516945,10.230909339485555,-47.29298021597821,45.936864796944676
6.132485740459674,-1.3044865938339263,5.6372607229118,10.690277987455001,-46.71845169651893,47.813454922273834
6.1194408745213345,-1.7716711107991157,5.74416350278635,11.16841253667774,-42.55689782938915,45.775973876460625
6.101724163413343,-2.197240089093007,5.8558476281531275,11.626172275442347,-32.516352327414246,36.77513941263602
6.079751762522413,-2.5224036123671496,5.972109350907551,11.993923669568707,-14.983979594723596,18.580424355955977
6.054527726398741,-2.672243408314386,6.092048587603237,12.179727913128266,8.402903683273369,-6.8031034424187045
6.027805292315597,-2.588214371481652,6.21384586673452,12.111696878704079,31.555747249041932,-31.57133082926793
6.001923148600781,-2.2726568989912326,6.33496283552156,11.7959835704114,47.88650865574311,-47.45099836088574
5.979196579610869,-1.7937918124338015,6.452922671225674,11.321473586802542,55.55782855694144,-52.56287757600504
5.96125866148653,-1.2382135268643872,6.5661374070936995,10.79584481104249,57.01087142016249,-50.503427737053414
5.948876526217886,-0.6681048126627623,6.674095855204125,10.290810533671957,55.3422788998993,-45.44578483854085
5.942195478091259,-0.11468202366376934,6.777003960540844,9.836352685286549,52.53263172808936,-39.92105468761168
5.941048657854621,0.4106442936171243,6.875367487393709,9.437142138410433,49.50963215030805,-35.032565016246416
5.945155100790792,0.9057406151202048,6.969738908777813,9.086816488247969,46.61227691251595,-31.125940125931645
5.954212506941994,1.3718633842453642,7.060607073660293,8.775557086988652,43.91411812740964,-28.225444530954608
5.967931140784448,1.8110045655194607,7.14836264453018,8.493302641679106,41.38602116817695,-26.241314153874246
5.986041186439643,2.22486477720123,7.233295670946971,8.230889500140364,38.968313677749684,-25.054358294988713
6.008289834211655,2.614547913978727,7.315604565948375,7.980345917190477,36.60063620388039,-24.546060293219416
6.034435313351442,2.9805542760175308,7.39540802512028,7.734885314258283,34.23346467566293,-24.606773678949807
6.064240856111617,3.32288892277416,7.472756878262863,7.488817577468785,31.831927964372465,-25.136026389099474
6.0974697453393585,3.641208202417885,7.547645054037551,7.23745731357779,29.376384767873706,-26.040644655754807
6.133881827363537,3.934972050096622,7.6200196271733285,6.9770508670202425,26.86156586006475,-27.232899870630742
6.1732315478645035,4.2035877086972695,7.6897901358435305,6.704721868313935,24.29498953827612,-28.62942305277669
6.2152674249514765,4.446537604080031,7.75683735452667,6.418427637786168,21.69493383385079,-30.15102243840841
6.259732800992277,4.663486942418539,7.821021630904532,6.116917413402084,19.0881095047284,-31.72328225311655
6.306367670416462,4.8543680374658225,7.882190805038553,5.7996845908709185,16.50715139328241,-33.277714434864635
6.35491135079112,5.019439551398647,7.940187650947262,5.4669074465222725,13.988055343214294,-34.753200882370045
6.405105746305106,5.1593201048307895,7.994856725412485,5.119375437698572,11.567699082234608,-36.09747009534227
6.456698947353415,5.274997095653136,8.046050479789471,4.758400736745149,9.281584474764372,-37.26838441104618
6.509448918309946,5.36781294040078,8.093634487156923,4.3857168926346874,7.1619221646180025,-38.234863494437825
6.563127047713954,5.43943216204696,8.13749165608327,4.003368257690309,5.236150148459896,-38.977329019716414
6.6175213693344235,5.491793663531559,8.177525338660173,3.613594967493145,3.5259399084156455,-39.48761804081979
6.672439305969739,5.527053062615716,8.213661288335105,3.2187187870849474,2.046702581742664,-39.76837250355156
6.7277098365958965,5.547520088433142,8.245848476205955,2.8210350620494316,0.8075680076172717,-39.8319645083134
6.783185037480228,5.555595768509315,8.27405882682645,2.4227154169662977,-0.18822476949157352,-39.69905684832146
6.838740995165321,5.5537135208144,8.298285980996113,2.025724848483083,-0.9426130917996246,-39.39692255729757
6.894278130373466,5.544287389896404,8.318543229480943,1.6317556229101076,-1.4617765143855252,-38.95765357717961
6.94972100427243,5.5296696247525485,8.334860785710044,1.2421790871383114,-1.7550942290082552,-38.41637669914008
7.005017700519955,5.512118682462466,8.347282576581426,0.8580153201469105,-1.8341053051006801,-37.80956565176777
7.06013888734458,5.4937776294114595,8.355862729782896,0.47991966362923283,-1.711579341997886,-37.17349340829308
7.115076663638695,5.4766618359914805,8.360661926419187,0.10818472954630198,-1.4008037648262768,-36.54280969935894
7.16984328199861,5.462653798343218,8.36174377371465,-0.25724336744728743,-0.9152024904554876,-35.9491542398806
7.224469819982042,5.453501773438663,8.359171340040177,-0.6167349098460935,-0.2684286537501598,-35.419620936377484
7.279004837716429,5.450817486901161,8.353003990941716,-0.9709311192098683,0.5248665132203745,-34.974761163171934
7.333513012585441,5.456066152033364,8.343294679749617,-1.3206787308415877,1.4472816043263879,-34.62563813491849
7.388073674105775,5.470538968076628,8.3300878924412,-1.6669351121907727,2.4754591511816417,-34.36920166722621
7.442779063786541,5.495293559588444,8.313418541319294,-2.010627128863035,3.574733858555177,-34.18094343169235
7.497731999382426,5.531040898173996,8.293312270030663,-2.352436563179958,4.690716242268346,-34.00349011441138
7.553042408364165,5.577948060596679,8.269787904398864,-2.692471464324072,5.736862082139574,-33.729777666182194
7.608821888970132,5.635316681418074,8.242863189755624,-3.029769240985894,6.577798312269265,-33.180504689977234
7.665175055784313,5.701094664540767,8.212565497345766,-3.361574287885666,7.010888972404935,-32.07943068682798
7.72218600242972,5.771203554264816,8.17894975446691,-3.682368594753946,6.755332870119996,-30.039708291487308
7.779898037972369,5.838756882966016,8.14212606851937,-3.982765677668819,5.470626481803209,-26.592076028059875
7.838285606802029,5.893463147784048,8.102298411742682,-4.248686437949417,2.8396329083767613,-21.304425456701257
7.8972202382798695,5.921859476867815,8.059811547363188,-4.46173069251643,-1.2577751624351365,-14.02868346569924
7.956438833048548,5.9092817252434635,8.015194240438023,-4.602017527173422,-6.527833212414373,-5.206893889010984
8.015531650300982,5.84400339311932,7.969174065166288,-4.654086466063532,-12.17876809113805,4.013286537012728
8.073971684232175,5.722215712207939,7.922633200505653,-4.613953600693405,-17.16195920916817,12.125381480330208
8.131193841354255,5.550596120116257,7.876493664498719,-4.492699785890102,-20.656609562377106,17.955206848906613
8.186699802555419,5.344030024492486,7.8315666666398185,-4.313147717401036,-22.40882738859388,21.143261931886464
8.240140102800343,5.119941750606547,7.788435189465808,-4.101715098082171,-22.676376323529972,22.065403363908505
8.291339520306408,4.8931779873712475,7.7474180384849864,-3.8810610644430863,-21.9389149081931,21.418905251028317
8.34027130018012,4.673788838289316,7.708607427840556,-3.6668720119328033,-20.65121872049881,19.86866572714419
8.387009188563013,4.467276651084328,7.671938707721227,-3.4681853546613612,-19.14121454304623,17.899384234668062
8.431681955073856,4.275864505653866,7.6372568541746135,-3.2891915123146807,-17.608668200110774,15.811776241399487
8.474440600130395,4.099777823652758,7.604364939051467,-3.1310737499006858,-16.159724191168543,13.77081121242102
8.515438378366921,3.9381805817410727,7.57305420155246,-2.9933656377764755,-14.842162453184839,11.855707312520057
8.554820184184333,3.7897589572092243,7.543120545174696,-2.874808564651275,-13.670895690832545,10.096429686221182
8.592717773756425,3.6530500003008988,7.514372459528183,-2.773844267789063,-12.643881914340005,8.496695901800418
8.629248273759433,3.5266111811574987,7.486634016850292,-2.6888773087710587,-11.751264607031608,7.047358645690181
8.664514385571009,3.4090985350871827,7.4597452437625815,-2.6184037223141567,-10.980323073212642,5.733784295665032
8.69860537092188,3.299295304355056,7.43356120653944,-2.5610658793575065,-10.318005278161294,4.539733396753305
8.73159832396543,3.1961152515734432,7.407950547745865,-2.5156685453899734,-9.752125770541895,3.4492858147508025
8.763559476481165,3.0985939938680245,7.382793862291965,-2.4811756872424655,-9.271852069597331,2.447706562236427
8.794545416419846,3.005875473172051,7.3579821054195405,-2.4566986216201014,-8.86782619761979,1.521755943407454
8.824604171151567,2.917197211195853,7.333415119203339,-2.441481062186027,-8.53210934892058,0.6597211953190784
8.853776143263525,2.8318761177066474,7.309000308581479,-2.4348838502328363,-8.258049111886164,-0.14868044348032997
8.882094904440592,2.7492956265877857,7.28465147007915,-2.4363706546676394,-8.04012003448296,-0.9124476216037992
8.90958786070647,2.668894426242956,7.260287763532474,-2.4454951308836774,-7.873761948302803,-1.6394484399942306
8.9362768049689,2.590156806759928,7.235832812223637,-2.46188961528362,-7.755226313162142,-2.33656097519933
8.9621783730365,2.512604543628307,7.2112139160708,-2.4852552250356132,-7.681433329144223,-3.0097907824448784
8.987304418472782,2.4357902103368647,7.186361363820445,-2.5153531328600622,-7.649838604400642,-3.664360727099586
9.01166232057615,2.359291824292858,7.1612078324918444,-2.551996740131058,-7.6583060744370695,-4.3047708426819025
9.035255238819078,2.2827087635484875,7.135687865090534,-2.595044448557877,-7.704982721797177,-4.93482663200532
9.058082326454562,2.205658936330516,7.109737420604955,-2.6443927148779305,-7.788169953792622,-5.5576340666975526
9.080138915817868,2.1277772367925896,7.083293493456176,-2.699969055544906,-7.9061860168453615,-6.175558934681837
9.101416688185793,2.048715376624136,7.0562938029007265,-2.761724644891724,-8.057213468355174,-6.790147417242853
9.121903841952035,1.9681432419405842,7.028676556451809,-2.8296261190641525,-8.239125509832212,-7.40200407625428
9.14158527437144,1.885751986842262,7.000380295261167,-2.903646159826695,-8.449285025815973,-8.010623045120216
9.160442794239863,1.8012591365841024,6.971343833662901,-2.9837523902778975,-8.684310696663134,-8.614168466373542
9.178455385605703,1.714416029617471,6.941506309760122,-3.069894074941633,-8.939805913628215,-9.209201554390654
9.195599545901878,1.625017970481189,6.910807369010706,-3.1619860904855397,-9.210048931688979,-9.790354706482544
9.21184972560669,1.5329174811642992,6.879187508105851,-3.259889637550365,-9.487647433882358,-10.349958665872684
9.227178900418334,1.4380410068254756,6.846588611730347,-3.363389224209092,-9.763168297752488,-10.877637872637058
9.241559310486588,1.3404093238479509,6.812954719488256,-3.4721656029354624,-10.024764778067718,-11.35990293081696
9.254963403725068,1.2401616760672738,6.778233063458901,-3.585764632243632,-10.257839348827194,-11.779788509022056
9.267365020485741,1.1375832825790018,6.742375417136465,-3.7035625173338524,-10.444801333334194,-12.116610230243104
9.27874085331153,1.03313526924566,6.705339791963127,-3.8247286196362835,-10.565003196611167,-12.345943897416312
9.289072206003988,0.9274852372795482,6.667092505766764,-3.9481880586104467,-10.59496472381211,-12.439960659108197
9.298347058376784,0.8215355900414272,6.627610625180659,-4.072587665201529,-10.509013564257161,-12.368274129052537
9.306562414277199,0.7164454543988555,6.586884748528644,-4.196270406492054,-10.280472743775404,-12.099456415325031
9.313726868821186,0.6136407269611015,6.544922044463723,-4.317264970645304,-9.883495669331987,-11.603341022451492
9.319863276090798,0.5148057702677816,6.50174939475727,-4.433298380869819,-9.295570690900263,-10.854132051711222
9.325011333793476,0.421850063358779,6.457416410948571,-4.541839701386931,-8.500580043009808,-9.834168889091165
9.329229834427064,0.3368442629286809,6.411998013934702,-4.640181390277843,-7.492108224018673,-8.537962404607319
9.33259827705635,0.2619231806884942,6.3655962000319235,-4.725561014323916,-6.276487198322216,-6.975866485169639
9.335217508863234,0.199158308705272,6.318340589888685,-4.795319679175613,-4.874907926225983,-5.176561741409106
