th1 (rad),w1 (rad/s),th2 (rad),w2 (rad/s),a1 (rad/s^2),a2 (rad/s^2)
5.216509642046868,-2.2815564327284283,1.9909312128304522,-2.4606979743514192,8.260233883513923,-1.15328791164317
5.193694077719584,-2.198954093893289,1.966324233086938,-2.4722308534678508,8.412290090772304,-1.0762713921481943
5.171704536780651,-2.1148311929855663,1.9416019245522593,-2.482993567389333,8.554718660563047,-1.0080635764216845
5.150556224850796,-2.029284006379936,1.916771988878366,-2.4930742031535496,8.689310180355609,-0.9459983184793176
5.130263384786996,-1.9423909045763796,1.8918412468468306,-2.502534186338343,8.817771438945426,-0.8875701977351086
5.1108394757412325,-1.8542131901869254,1.8668159049834472,-2.511409888315694,8.941702896975677,-0.8304686794659789
5.0922973438393635,-1.7647961612171688,1.8417018061002903,-2.5197145751103536,9.062575850312571,-0.7726121604191206
5.074649382227192,-1.6741704027140432,1.8165046603491868,-2.5274406967145446,9.181709141456343,-0.7121823251479533
5.057907678200052,-1.5823533112994796,1.7912302533820412,-2.534562519966024,9.30024546715526,-0.6476589851222762
5.042084145087057,-1.489350856627927,1.765884628182381,-2.541039109817247,9.419127564973682,-0.5778552546461517
5.0271906365207775,-1.3951595809781903,1.7404742370842086,-2.546817662363708,9.539074833609279,-0.501952539468881
5.013239040710996,-1.2997688326420975,1.7150060604605715,-2.551837187758397,9.660561241532672,-0.4195343871812182
5.000241352384575,-1.2031632202267708,1.6894876885829875,-2.5560325316302093,9.783795689227686,-0.33061779400701474
4.988209720182307,-1.1053252633344939,1.6639273632666853,-2.5593387095702793,9.908706287023582,-0.2356801126642375
4.977156467548962,-1.006238200464258,1.6383339761709825,-2.5616955106969215,10.03493026007926,-0.13567930480319293
4.9670940855443195,-0.9058888978634654,1.6127170210640134,-2.5630523037449535,10.161811354390233,-0.03206498426196112
4.958035196565685,-0.804270784319563,1.5870864980265638,-2.563372953587573,10.288406648790577,0.07322243353693828
4.94999248872249,-0.7013867178316573,1.561452768490688,-2.5626407292522035,10.413504535244401,0.17776706202370654
4.942978621544174,-0.5972516724792133,1.535826361198166,-2.5608630586319663,10.53565527925782,0.27870955676838566
4.937006104819382,-0.4918951196866351,1.5102177306118463,-2.5580759630642826,10.653214997017749,0.37279731301200436
4.932087153622516,-0.38536296971645756,1.4846369709812035,-2.5543479899341626,10.76440309437263,0.4564533265358232
4.928233523925351,-0.27771893877273124,1.4590934910818618,-2.5497834566688042,10.86737224551188,0.5258628946123519
4.925456334537623,-0.16904521631761243,1.4335956565151737,-2.5445248277226806,10.960288921184034,0.5770758400498248
4.923765882374447,-0.05944232710577209,1.408150408237947,-2.538754069322182,11.04142141362066,0.6061203907033776
4.923171459103389,0.05097188703043451,1.3827628675447252,-2.5326928654151484,11.109231374878304,0.6091234079534121
4.923681177973694,0.16206420077921754,1.3574359388905737,-2.5266016313356143,11.162464217988534,0.5824305125411515
4.9253018199814855,0.2736888429591029,1.3321699225772174,-2.5207773262102027,11.200233440205094,0.5227189725291012
4.928038708411076,0.3856911773611538,1.3069621493151153,-2.5155501364849115,11.222094090866289,0.4270961199158035
4.9318956201846875,0.49791211826981674,1.2818066479502663,-2.5112791752857535,11.228101244317514,0.29317660433078835
4.936874741367386,0.6101931307129919,1.2566938561974088,-2.508347409242446,11.218850409485025,0.11913294481441844
4.942976672674516,0.7223816348078421,1.2316103821049844,-2.5071560797943016,11.195498210926562,-0.09628451028564804
4.950200489022595,0.8343366169171077,1.2065388213070414,-2.508118924897158,11.159763265259146,-0.3537601439534064
4.958543855191766,0.9459342495696992,1.1814576320580699,-2.511656526336692,11.113908783590023,-0.6534580332102689
4.968003197687463,1.0570733374055994,1.156341066794703,-2.5181911066687945,11.060709891828393,-0.9950972967596099
4.978573931061519,1.1676804363238833,1.131159155728015,-2.5281420796363907,11.00340984367771,-1.378054268085696
4.990250735424758,1.2777145347606604,1.105877734931651,-2.5419226223172475,10.945670121623406,-1.8014869028876452
5.003027880772365,1.3871712359768944,1.0804585087084786,-2.559937491346124,10.891519852852554,-2.2644763947221493
5.016899593132134,1.49608643450542,1.0548591337950173,-2.5825822552933455,10.845310039518056,-2.7661811501862017
5.031860457477189,1.6045395349006004,1.0290333112420837,-2.6102440667952074,10.811677892327769,-3.3059990211857633
5.047905852826195,1.7126563138238782,1.0029308705741318,-2.643304057007065,10.795526170993176,-3.8837349224778577
5.065032415964433,1.82061157553381,0.9764978300040611,-2.6821414062318434,10.802021997950265,-4.499772575443285
5.083238531719771,1.9286317955133125,0.9496764159417427,-2.7271391319862763,10.836619247329994,-5.1552510155863995
5.1025248496749045,2.0369979879866125,0.9224050246218799,-2.77869164214214,10.90510843410514,-5.852248604827638
5.12289482955477,2.146049072327664,0.8946181082004585,-2.8372141281904164,11.013698137133897,-6.593979556233657
5.144355320278047,2.256186053699003,0.8662459669185544,-2.903153923752753,11.169132462893574,-7.385010399941933
5.1669171808150365,2.3678773783279388,0.8372144276810268,-2.9770040277521725,11.378849948214537,-8.231506414007521
5.190595954598316,2.481665877810084,0.8074443874035051,-3.059319091892248,11.651190629460933,-9.141520836517996
5.215412613376417,2.5981777841046934,0.7768511964845827,-3.1507343002574277,11.995659728477415,-10.12534264319448
5.241394391217463,2.7181343813894676,0.7453438534820084,-3.2519877266893724,12.423258349242884,-11.195921645614337
5.268575735031358,2.8423669648818963,0.7128239762151146,-3.363946943145516,12.94689329674625,-12.36939210609881
5.296999404680177,2.971835897849359,0.6791845067836595,-3.487640864206504,13.58187859467703,-13.665716650551284
5.326717763658671,3.107654683796129,0.6443080981415945,-3.624298030712017,14.346538248271624,-15.109467983617607
5.357794310496632,3.2511200662788453,0.6080651178344744,-3.775392710548193,15.2629084932487,-16.73075024743722
5.39030551115942,3.4037491512113323,0.5703111907289924,-3.9427002130225652,16.35750813115979,-18.566220957313163
5.424343002671534,3.56732423252293,0.5308841885987667,-4.128362422595697,17.66207651971641,-20.66007913566357
5.460016244996763,3.743944997720094,0.48960056437280974,-4.334963213952333,19.21402638932484,-23.064674441588085
5.497455694973964,3.9360852616133424,0.4462509322332864,-4.565609958368214,21.056031258899832,-25.839938081026474
5.536816547590098,4.14664557420234,0.4005948326496042,-4.824009339178479,23.233475152232085,-29.049874198482147
5.578283003332121,4.378980325724661,0.3523547392578194,-5.114508081163301,25.787050289877705,-32.752341037932396
5.622072806589368,4.636850828623438,0.3012096584461864,-5.442031491542624,28.734849596517492,-36.97424653906818
5.6684413148756025,4.9241993245886135,0.24678934353076015,-5.8117739569333065,32.03257844718141,-41.6562718024166
5.717683308121488,5.244525109060428,0.18867160396142707,-6.228336674957473,35.49049198250332,-46.53717167827494
5.770128559212092,5.599430028885461,0.12638823721185233,-6.693708391740222,38.61279280644686,-50.92953682273588
5.826122859500947,5.98555795694993,0.05945115329445011,-7.20300375996758,40.32813151280979,-53.34262511896944
5.885978439070446,6.388839272078028,-0.01257888430522569,-7.736430011157275,38.67650319301104,-51.042677345287885
5.949866831791226,6.775604304008138,-0.08994318441679844,-8.246856784610154,30.89081985972356,-40.16331351006854
6.017622874831307,7.0845125026053735,-0.17241175226289998,-8.648489919710839,14.946283058759992,-17.86871236044544
6.088467999857361,7.233975333192974,-0.2588966514600084,-8.827177043315293,-7.029148969406502,12.879841471445928
6.160807753189291,7.163683843498909,-0.3471684218931613,-8.698378628600834,-27.5074851895648,41.58872727130543
6.232444591624279,6.8886089916032605,-0.43415220817916966,-8.28249135588778,-39.43514520538125,58.445695615407
6.301330681540312,6.494257539549448,-0.5169771217380474,-7.69803439973371,-42.254119986169066,62.69813372045929
6.3662732569358065,6.071716339687757,-0.5939574657353845,-7.071053062529117,-39.661011864351316,59.49351410682559
6.426990420332684,5.675106221044244,-0.6646679963606758,-6.476117921460861,-35.06219915866156,53.5517577270986
6.4837414825431265,5.324484229457628,-0.7294291755752844,-5.940600344189875,-30.248247929695683,47.340721615025686
6.536986324837703,5.022001750160671,-0.7888351790171831,-5.467193128039618,-25.898903212406434,41.78889465521967
6.58720634233931,4.763012718036607,-0.8435071102975793,-5.049304181487421,-22.178715477736937,37.11439470314585
6.6348364695196755,4.541225563259237,-0.8940001521124535,-4.678160234455962,-19.058893321840063,33.270396725396196
6.680248725152268,4.350636630040837,-0.9407817544570132,-4.3454562672020005,-16.45445296179838,30.13387598008508
6.723755091452676,4.1860921004228535,-0.9842363171290331,-4.0441175074011495,-14.275451567974109,27.575567130949338
6.7656160124569045,4.043337584743113,-1.0246774922030446,-3.768361836091656,-12.44333226385631,25.481948542738362
6.806049388304336,3.9189042621045496,-1.0623611105639612,-3.5135423506642725,-10.89420606849878,23.759398223053324
6.845238430925382,3.8099622014195615,-1.097496534070604,-3.275948368433739,-9.577722163171392,22.33241493040889
6.883338052939577,3.7141849797878477,-1.1302560177549414,-3.05262421912965,-8.454787029417382,21.140362188080402
6.920479902737456,3.629637109493674,-1.1607822599462378,-2.8412205972488462,-7.495275971093013,20.134287335661796
6.956776273832393,3.5546843497827436,-1.1891944659187264,-2.639877723892228,-6.676074312934381,19.27426806183474
6.99232311733022,3.4879236066534,-1.2155932431576486,-2.4471350432738808,-5.979493589078777,18.527343767843924
7.0272023533967545,3.428128670762612,-1.2400645935903873,-2.2618616055954415,-5.392014348455162,17.865963370370665
7.061483640104381,3.3742085272780606,-1.2626832096463418,-2.083201971891735,-4.903287548340448,17.266854256132966
7.095225725377162,3.3251756517946562,-1.2835152293652592,-1.9105334293304053,-4.505332477018302,16.710222991605796
7.128477481895109,3.2801223270244733,-1.3026205636585633,-1.7434311994143472,-4.191882298421266,16.179212220424834
7.161278705165354,3.2382035040402606,-1.3200548756527068,-1.5816390772100988,-3.9578419490158425,15.659551329470284
7.193660740205757,3.1986250845501023,-1.3358712664248078,-1.425043563915396,-3.798835031271084,15.139348646070799
7.225646991051257,3.1606367342373916,-1.3501217020639618,-1.273650077454688,-3.7108259394951437,14.608980258505209
7.257253358393632,3.1235284748424403,-1.3628582028385086,-1.1275602748696358,-3.6898106271681392,14.061035974773048
7.288488643142056,3.086630368570759,-1.374133805587205,-0.9869499151219053,-3.731574211169782,13.490287571221243
7.319354946827763,3.049314626459061,-1.3840033047384241,-0.8520470394096928,-3.8315160867376554,12.893649323494035
7.349848093092354,3.0109994655916843,-1.392523775132521,-0.7231105461747525,-3.984543559781008,12.270106544743724
7.379958087748271,2.9711540299938743,-1.3997548805942686,-0.6004094807273153,-4.185033493230648,11.620594762209613
7.40966962804821,2.929303695061568,-1.4057589754015418,-0.48420353310521913,-4.426858587196189,10.947820085790454
7.438962664998826,2.885035109189606,-1.410601010732594,-0.3747253322473146,-4.703471299391509,10.256019709739212
7.467813016090722,2.838000396195691,-1.414348264055067,-0.27216513514992247,-5.008034775993555,9.550669522094742
7.496193020052679,2.7879200484357556,-1.4170699154065662,-0.17665843992897506,-5.333587189936027,8.83815257567254
7.524072220537037,2.734584176536395,-1.418836499805856,-0.08827691417224966,-5.6732241138127435,8.125406922565077
7.5514180623024005,2.6778519353982677,-1.4197192689475786,-0.007022844946598883,-6.020283289221306,7.419573550034785
7.578196581656384,2.617649102506055,-1.4197894973970446,0.06717289055374896,-6.368517414314175,6.727664790887787
7.604373072681444,2.553963928362913,-1.419117768491507,0.13444953846262683,-6.712243117538028,6.056270921085455
7.629912711965073,2.486841497187533,-1.4177732731068808,0.19501224767348138,-7.046457692626475,5.4113183137618535
7.654781126936948,2.416376920261268,-1.415823150630146,0.24912543081109992,-7.36691892897152,4.797887268474324
7.67894489613956,2.342707730971553,-1.413331896322035,0.29710430349584316,-7.670186994032811,4.2200922616120815
7.702371973449276,2.266005861031225,-1.4103608532870764,0.33930522611196395,-7.953630423081306,3.6810225289406793
7.725032032059588,2.1864695568004118,-1.4069678010259568,0.37611545140137076,-8.21540060430443,3.1827370495253193
7.746896727627592,2.1043155507573674,-1.403206646511943,0.40794282189662395,-8.454380624032925,2.726305376413777
7.767939883135166,2.0197717445170382,-1.3991272182929768,0.43520587566076174,-8.670114996607666,2.311884369625841
7.788137600580336,1.9330705945509616,-1.394775159536369,0.4583247193570201,-8.862726774992332,1.9388205909436342
7.807468306525846,1.8444433268010383,-1.3901919123427988,0.4777129252664565,-9.032827997115204,1.605768684187538
7.825912739793856,1.7541150468298863,-1.3854147830901342,0.49377061210833184,-9.181428553667027,1.3108172211605718
7.843453890262155,1.662300761293216,-1.3804770769690509,0.5068787843199376,-9.309847532485161,1.0516149853174852
7.8600768978750875,1.5692022859683643,-1.3754082891258514,0.5173949341731124,-9.419630036461326,0.8254922752884342
7.875768920734771,1.475005985603751,-1.3702343397841203,0.5256498569259968,-9.512471481602827,0.6295733744523895
7.890518980590809,1.3798812707877226,-1.3649778412148603,0.5319455906705206,-9.590150518586276,0.46087774091099193
7.904317793298686,1.28397976560186,-1.3596583853081552,0.5365543680796305,-9.654471013676563,0.31640866259726147
7.917157590954704,1.1874350554650943,-1.354292841627359,0.5397184547056031,-9.707212979348812,0.1932290710396961
7.929031941509355,1.0903629256716063,-1.348895657080303,0.541650745416,-9.750091952244341,0.0885249178532892
7.939935570766071,0.9928620061491629,-1.3434791496261431,0.5425359945945329,-9.784726058287092,-0.0003429890143803926
7.9498641908275625,0.8950147455662919,-1.3380537896801978,0.5425325647043892,-9.812609860026138,-0.07579748701946966
7.958814338283226,0.7968886469660306,-1.332628464033154,0.5417745898341945,-9.835094027167589,-0.14001254582928022
7.966783224752886,0.6985377066943547,-1.327210718134812,0.5403744643759016,-9.853369887017,-0.19488835782563982
7.973768601819829,0.6000040078241846,-1.3218069734910531,0.5384255807976452,-9.868457979081601,-0.2420327153742577
7.979768641898072,0.5013194280333686,-1.3164227176830767,0.5360052536439026,-9.881199842400854,-0.28274749028744595
7.9847818361784055,0.40250742960936003,-1.3110626651466377,0.5331777787410281,-9.892252393342204,-0.3180192107261066
7.988806910474499,0.303584905675938,-1.3057308873592275,0.5299975866337671,-9.902084396350572,-0.34851294186057014
7.9918427595312584,0.20456406171243224,-1.3004309114928898,0.5265124572151614,-9.91097468336581,-0.3745689063095133
7.993888400148383,0.10545431487877414,-1.2951657869207382,0.5227667681520662,-9.919011933779345,-0.3962015187966562
7.994942943297171,0.006264195540980691,-1.2899381192392176,0.5188047529640997,-9.92609598132347,-0.4131007484950837
7.9950055852525805,-0.09299676427225402,-1.2847500717095766,0.5146737454791488,-9.931940763014167,-0.4246359549225999
7.994075617609858,-0.1923161719023957,-1.279603334254785,0.5104273859299228,-9.936079163952849,-0.42986256177093457
7.992152455890834,-0.2916769635419242,-1.2744990603954858,0.5061287603122134,-9.937870135677635,-0.4275321297263442
7.989235686255415,-0.39105566489870053,-1.2694377727923636,0.5018534390149499,-9.936508569284479,-0.4161065549016
7.985325129606428,-0.49042075059154533,-1.2644192384022142,0.4976923734659339,-9.931038481206514,-0.3937772430549464
7.980420922100513,-0.5897311354036104,-1.2594423146675549,0.49375460103538443,-9.92037011192105,-0.3584901787610706
7.974523610746477,-0.688934836522821,-1.254504768657201,0.4901696992477737,-9.903301537854533,-0.30797780923042245
7.967634262381249,-0.7879678519013663,-1.2496030716647233,0.4870899211554695,-9.87854534610166,-0.23979858006791901
7.959754583862235,-0.886753305362383,-1.2447321724531686,0.4846919353547903,-9.844760812554865,-0.15138478106720824
7.950887050808611,-0.9852009134879316,-1.2398852530996207,0.48317808754411823,-9.800591850504576,-0.0400990726036863
7.941035041673732,-1.0832068319929773,-1.2350534722241795,0.48277709681808134,-9.744710755332653,0.09670033983041983
7.930202973353802,-1.1806539395463038,-1.2302257012559987,0.48374410021638553,-9.675867462313839,0.2615864342495435
7.918396433958339,-1.2774126141694422,-1.2253882602538348,0.486359964558881,-9.592943664987061,0.4569831809330392
7.905622307816644,-1.3733420508193128,-1.220524660608246,0.4909297963682114,-9.495010724039753,0.6850803201233132
7.891888887308451,-1.4682921580597104,-1.2156153626445638,0.49778059956944454,-9.38138985184356,0.9477457612579075
7.877205965727854,-1.562106056578146,-1.2106375566488694,0.5072580571820237,-9.251712614492805,1.2464390235178975
7.861584905162073,-1.654623182723074,-1.2055649760770493,0.5197224474172026,-9.105979388021394,1.5821298457016963
7.845038673334842,-1.745682976603288,-1.2003677516028772,0.5355437458742196,-8.944613081466294,1.9552266690207338
7.827581843568809,-1.835129107417951,-1.1950123141441351,0.555096012564427,-8.768505243623263,2.365520059114717
7.809230552494629,-1.9228141598541837,-1.1894613540184908,0.5787512131555741,-8.57905164986504,2.8121462038097382
7.790002410896087,-2.0086046763528342,-1.183673841886935,0.6068726751936715,-8.37817466247702,3.2935753315345226
7.769916364132559,-2.0923864229776044,-1.1776051151349982,0.6398084285090168,-8.168330103726936,3.8076291941207745
7.748992499902783,-2.1740697240148736,-1.171207030849908,0.6778847204502245,-7.95249708868882,4.351530632830907
7.727251802662634,-2.253594694901762,-1.1644281836454058,0.7214000267785335,-7.734150224022052,4.921986728377637
7.704715855713617,-2.3309361971419826,-1.1572141833776204,0.7706198940623099,-7.517214750114427,5.515305207149469
7.681406493742196,-2.406108344643127,-1.1495079844369973,0.8257729461338046,-7.306006517605172,6.127541773620667
7.657345410295765,-2.4791684098191786,-1.1412502549756594,0.8870483638700113,-7.105160048263249,6.754674047714782
7.632553726197573,-2.5502200103018113,-1.1323797713369592,0.9545951043471591,-6.919549218277058,7.392796023084176
7.607051526094555,-2.619415502484582,-1.1228338202934876,1.0285230645780008,-6.754206197411503,8.038325654093274
7.580857371069709,-2.686957564458697,-1.1125485896477076,1.1089063211189336,-6.614245070590885,8.68821753117662
7.553987795425122,-2.753100015164606,-1.1014595264365183,1.1957884964306997,-6.50479698119571,9.340172770142553
7.526456795273476,-2.818147984976563,-1.0895016414722114,1.2891902241321254,-6.43096363861278,9.992839297971079
7.498275315423711,-2.882457621362691,-1.0766097392308902,1.3891186171118362,-6.397795657996871,10.645997651874168
7.4694507392100835,-2.9464355779426596,-1.0627185530597718,1.4955785936305779,-6.410301543361339,11.300730117122878
7.439986383430657,-3.010538593376273,-1.047762767123466,1.6085858948018066,-6.473492338825519,11.959574340094665
7.409880997496894,-3.075273516764528,-1.0316769081754478,1.7281816382027533,-6.592466251530333,12.626666258212738
7.379128262329249,-3.1411981792798316,-1.0143950917934201,1.8544483007848807,-6.772537107709371,13.307881086373271
7.34771628053645,-3.2089235503569253,-0.9958506087855713,1.9875271116486133,-7.019410550794572,14.010985035660495
7.315627045032881,-3.279117655864871,-0.9759753376690852,2.1276369620052185,-7.339412609434086,14.745814335958826
7.282835868474232,-3.352511781959212,-0.954698968049033,2.2750951053648065,-7.7397767839332525,15.524501990816484
