th1 (rad),w1 (rad/s),th2 (rad),w2 (rad/s)
3.779520185150758,-2.998492342481679,3.713643704827018,-3.0460417616946764
3.749535261725941,-2.9469431135167197,3.683183287210071,-3.038507480133456
3.720065830590774,-2.897483970463579,3.6527982124087366,-3.031580731751472
3.691090990886138,-2.8501793935012576,3.6224824050912217,-3.025190741905144
3.6625891969511253,-2.8050834505394007,3.5922304976721704,-3.0192798442057813
3.6345383624457313,-2.762241078701093,3.5620376992301126,-3.013801715110267
3.60691595165872,-2.7216893132927775,3.53189968207901,-3.008719667648259
3.5796990585257924,-2.6834584542284476,3.501812485402527,-3.004005024545821
3.552864473983508,-2.647573163145257,3.471772435157069,-2.999635584529076
3.5263887423520552,-2.6140534870729524,3.4417760793117784,-2.995594190318389
3.500248207481326,-2.582915806576939,3.4118201374085944,-2.991867402636593
3.4744190494155567,-2.5541737078662714,3.3819014633822286,-2.988444281318485
3.448877312336894,-2.527838779523965,3.352017020569044,-2.985315272183701
3.4235989245416545,-2.503921335352428,3.3221638678472067,-2.9824711965865696
3.3985597111881303,-2.4824310653982753,3.292339155881341,-2.97990233936134
3.3737354005341476,-2.4633776175858575,3.2625401324877275,-2.9775976301301457
3.349101624358289,-2.4467711125960436,3.232764156186426,-2.975543912540691
3.324633913232329,-2.4326225947158786,3.203008717061019,-2.9737252958730305
3.30030768728517,-2.42094442138764,3.1732714641022888,-2.9721225835368963
3.276098243071294,-2.411750594127386,3.14355023826692,-2.9707127732234078
3.2519807371300202,-2.405057033382147,3.1138431105346855,-2.9694686238405286
3.227930166796199,-2.4008817997648513,3.08414842429628,-2.9683582848241326
3.2039213487985503,-2.3992452639557635,3.054464841448039,-2.9673449839594337
3.1799288961589927,-2.4001702273932572,3.024791391608445,-2.966386770462893
3.15592719388506,-2.4036819956960724,2.995127523903816,-2.9654363107622017
3.1318903739280994,-2.4098084065612073,2.965473160796194,-2.964440735178301
3.1077922898624872,-2.4185798136601266,2.9358287534444107,-2.963341534571744
3.083606491725886,-2.43002902780148,2.9061953380986933,-2.962074506985363
3.059306201447871,-2.4441912163277166,2.8765745930288396,-2.9605697554214205
3.034864289284594,-2.461103761348605,2.8469688954746255,-2.9587517391653546
3.0102532516711076,-2.4808060769650657,2.817381378082972,-2.956539382547051
2.9854451909014568,-2.5033393850752903,2.787815984257502,-2.9538462467576734
2.960411797050704,-2.528746448649611,2.758277521789925,-2.950580772365202
2.935124332564208,-2.557071260472364,2.7287717140662733,-2.9466466025515397
2.909553619959484,-2.5883586842321153,2.699305248040758,-2.941942999891663
2.8836700331171627,-2.6226540434420165,2.669885818041841,-2.9363653727811467
2.8574434926827426,-2.660002651926687,2.6405221643140298,-2.929805931469052
2.8308434661634756,-2.7004492774485116,2.6112241049993394,-2.922154498150291
2.8038389733889906,-2.7440375273830924,2.5820025600178367,-2.9132995007990514
2.7763985981151595,-2.7908091421016086,2.5528695650098463,-2.9031291864636968
2.7484905066941434,-2.840803177783773,2.523838273145209,-2.891533096663242
2.7200824749163055,-2.8940550556782214,2.494922942178577,-2.878403855369772
2.691141924359523,-2.9505954492713666,2.466138903624879,-2.8636393288258466
2.6616359698668095,-3.0104489743782943,2.4375025103366204,-2.8471452260450634
2.6315314801230265,-3.073632639850934,2.40903105807617,-2.8288382190596306
2.6007951537245173,-3.1401540085380595,2.3807426758855734,-2.8086496723890257
2.5693936136391367,-3.2100090096295246,2.3526561791616833,-2.7865300810807963
2.5372935235428415,-3.28317933513638,2.3247908783508753,-2.762454324846821
2.5044617301914776,-3.359629345944338,2.297166335102407,-2.7364278504898
2.470865436732034,-3.43930240811165,2.2698020565975088,-2.708493893339241
2.4364724126509176,-3.5221165800643326,2.2427171176641165,-2.678741837036508
2.4012512468502742,-3.6079595791882486,2.2159296992937514,-2.6473167845879844
2.3651716510583918,-3.696682976232108,2.1894565314478713,-2.614430365417588
2.3282048212960706,-3.7880956032776227,2.1633122277936954,-2.5803727248450175
2.2903238652632942,-3.8819562221578154,2.137508500545245,-2.5455255243649284
2.251504303041716,-3.977965591875095,2.112053245301596,-2.510375613415162
2.211724647122965,-4.075758201681624,2.086949489167444,-2.4755288079380713
2.1709670651061486,-4.174894103801587,2.0621942010880634,-2.44172292531486
2.1292181240681325,-4.274851482475698,2.037776971834915,-2.4098388873559
2.0864696092433754,-4.375020819098269,2.0136785829613557,-2.3809083389809516
2.0427194010523926,-4.474701725531114,1.9898694995715462,-2.3561158914738534
1.9979723837970815,-4.573103668211349,1.9663083406568078,-2.336793868062162
1.952241347114968,-4.669351824270672,1.9429404019761862,-2.324407417914981
1.9055478288722614,-4.762499117294459,1.9196963277970365,-2.3205281997949188
1.8579228376993169,-4.851545005048982,1.8964910457990873,-2.3267956292672265
1.809407387648827,-4.935460808358744,1.873223089506415,-2.3448659776181118
1.7600527795652396,-5.013220333937851,1.8497744297302339,-2.376351326373088
1.7099205762258611,-5.083833415662082,1.826010916466503,-2.422752273607336
1.6590822420692404,-5.146379039194995,1.8017833937304297,-2.4853899562929858
1.6076184516772904,-5.200034227369087,1.7769294941674998,-2.565343923643657
1.5556181094035997,-5.2440950928533745,1.7512760549310633,-2.663402276594295
1.503177158475066,-5.27798748543417,1.7246420321651204,-2.780029134249549
1.4503972836207242,-5.301266314448313,1.6968417408226248,-2.91535210835787
1.397384620476241,-5.313604545725961,1.6676882197390461,-3.0691695921392625
1.3442485750189814,-5.314774601926519,1.6369965238176536,-3.240974979900139
1.2911008289997161,-5.3046260529952,1.6045867740186521,-3.4299930183684593
1.2380545684697641,-5.283063884862104,1.5702868438349675,-3.6352226553688562
1.185223929621143,-5.250031327354131,1.533934617281279,-3.855480954894193
1.1327236163476018,-5.205500429819602,1.495379807732337,-4.08944357626258
1.0806686120494058,-5.149472587070264,1.4544853719697113,-4.3356785370804705
1.0291738861787032,-5.081990298679859,1.4111285865989065,-4.592671096938951
0.9783539831919046,-5.0031607595229675,1.365201875629517,-4.858838341535023
0.928322375596675,-4.91319149142476,1.3166134922141668,-5.132532301927365
0.8791904606824273,-4.81243810692109,1.2652881691948932,-5.4120302369277615
0.8310660796132164,-4.701464346402023,1.2111678668256156,-5.695510175710523
0.7840514361491961,-4.581114580783494,1.1542127650685103,-5.981009201319403
0.7382402903413612,-4.45259876412341,1.0944026730553162,-6.266361617381776
0.6937143027001271,-4.317588957117727,1.0317390568814986,-6.549114628186145
0.6505384131289499,-4.178324431772502,0.9662479105996371,-6.8264212875154815
0.6087551688112248,-4.037718206430642,0.8979836977244823,-7.094915346643447
0.5683779867469184,-3.8994507618639194,0.8270345442580478,-7.350581530325996
0.5293834791282792,-3.7680261516546687,0.7535287289547878,-7.588648550104121
0.4917032176117325,-3.6487526849114915,0.6776422434537466,-7.803549915065398
0.4552156907626176,-3.5475989282060887,0.5996067443030926,-7.989014375313737
0.4197397014805567,-3.4708748737219524,0.5197166005499552,-8.138352364001035
0.3850309527433372,-3.4247107991730865,0.43833307690994483,-8.244980201477212
0.35078384475160634,-3.414362996210505,0.3558832748951727,-8.303156175651877
0.3166402147895013,-3.443459816976431,0.2728517131386539,-8.30879922185911
0.282205616619737,-3.513377631531289,0.18976372092006283,-8.260166819643672
0.24707184030442408,-3.6229481028809927,0.10716205272362611,-8.158154996565552
0.21084235927561415,-3.7686105275426542,0.025580502757970594,-8.0060933339358
0.1731562540001876,-3.944966372533778,-0.05448043058138741,-7.809100473829712
0.13370659027484982,-4.145555580102784,-0.13257143531968452,-7.573228149617079
0.09225103447382198,-4.363632090528268,-0.2083037168158553,-7.304660641203336
0.048614713568539296,-4.592773714495812,-0.28135032322788867,-7.009152678621071
0.0026869764235811777,-4.827262031742909,-0.3514418500140994,-6.691758870812715
-0.045585643893847914,-5.062250613373815,-0.41835943872222653,-6.356808170080866
-0.09620815002758606,-5.293778945686848,-0.4819275204230352,-6.008036057748914
-0.14914593948445454,-5.518692057051389,-0.5420078810005243,-5.64879206695308
-0.20433286005496842,-5.734510656014013,-0.5984958016700551,-5.282265390877563
-0.26167796661510856,-5.93927848097465,-0.6513184555788307,-4.911697694965879
-0.3210707514248551,-6.131399809664483,-0.7004354325284895,-4.5405713425636955
-0.3823847495214999,-6.309472534383804,-0.7458411459541264,-4.172771360743905
-0.44547947486533795,-6.472120414319804,-0.7875688595615655,-3.8127215262895255
-0.510200679008536,-6.6178312048407175,-0.8256960748244608,-3.4654900871379857
-0.5763789910569432,-6.7448146468130155,-0.8603509756958407,-3.1368497106809623
-0.6438271375250734,-6.850904805701611,-0.8917194728026504,-2.833260685870079
-0.7123361855820894,-6.933542459189523,-0.9200520796613512,-2.5617300861097054
-0.7816716101739847,-6.989879412966712,-0.9456693805224482,-2.329491235411854
-0.8515704043036518,-7.01703813804047,-0.9689642928765667,-2.1434617860307266
-0.9217407856840565,-7.012526449945951,-0.990398910736874,-2.009490348169707
-0.991866050183516,-6.974746051658242,-1.010493814218571,-1.9314932696395806
-1.0616135107000984,-6.903464809577257,-1.0298087469149668,-1.9106855559239717
-1.130648158795871,-6.800088307039901,-1.0489156024742066,-1.9451590315536655
-1.19864904186627,-6.6676082758337145,-1.0683671927897431,-2.029994313898981
-1.2653251246246073,-6.510222039424518,-1.088667135928733,-2.1579137371129766
-1.3304273450188524,-6.332746278989062,-1.1102462732998628,-2.3202825131416835
-1.393754807808743,-6.140011958278025,-1.1334490984312797,-2.508163590236776
-1.4551549273915232,-5.936396438375701,-1.1585307343336475,-2.7131735840487416
-1.51451889177528,-5.7255614413283755,-1.185662470174135,-2.928018601900041
-1.571774506188564,-5.510382059518423,-1.2149426561931354,-3.1467189253171535
-1.626878326783748,-5.293007608090057,-1.2464098454463068,-3.3646051078712556
-1.6798084028646487,-5.074989536281765,-1.2800558965250195,-3.5781826145401565
-1.7305582982274663,-4.85742723571432,-1.315837722670421,-3.784942600638918
-1.7791325705846095,-4.641102854208057,-1.35368714867681,-3.9831676222977284
-1.8255435991266902,-4.426592500879412,-1.3935188248997874,-4.171756690313761
-1.8698095241354844,-4.214351421624612,-1.435236391802925,-4.3500780648694555
-1.9119530383517305,-4.004775888889369,-1.4787371724516194,-4.517849509880896
-1.9520007972406241,-3.7982464793041495,-1.5239156675504284,-4.675041968762651
-1.9899832620336657,-3.5951575926574852,-1.570666087238055,-4.821801648523531
-2.0259348379602407,-3.39593744746358,-1.6188841037232902,-4.958385872114346
-2.0598942124348762,-3.2010618854954793,-1.6684679624444336,-5.0851089697896406
-2.091904831289831,-3.01106436127402,-1.71931905214233,-5.20229554077676
-2.1220154749025713,-2.826543557352697,-1.7713420075500976,-5.310239484151066
-2.150280910476098,-2.6481691538549823,-1.8244444023916082,-5.4091682533584615
-2.176762602014648,-2.4766853728947247,-1.8785360849251929,-5.4992128560500175
-2.201529455743595,-2.312911016475373,-1.933528213485693,-5.580385207211065
-2.224658565908349,-2.157733876249405,-1.9893320655578037,-5.652565487662226
-2.246235904670843,-2.0120967589513525,-2.045857720434426,-5.715502983275338
-2.2663568722603564,-1.876972193336635,-2.1030127502671796,-5.768834156358741
-2.2851265941937227,-1.7533235000551897,-2.160701091830767,-5.8121209787920485
-2.3026598291942744,-1.6420516402582668,-2.2188223016186877,-5.844910387703158
-2.319080345596857,-1.5439302287868437,-2.277271405495719,-5.866811922638217
-2.334519647884725,-1.4595349555266555,-2.335939524722101,-5.877585591063963
-2.3491149974399916,-1.3891774155447805,-2.3947153806327406,-5.877227061659593
-2.3630067715954395,-1.3328555006338063,-2.4534876512493367,-5.866034374968344
-2.3763353266017777,-1.2902316001774818,-2.51214799499902,-5.844641410041503
-2.3892376426035526,-1.2606453554436015,-2.570594409099435,-5.814009085571591
-2.4018440961579888,-1.2431605974039808,-2.6287344999551507,-5.775374418807947
-2.4142757021320285,-1.236638706296699,-2.6864882441432303,-5.730167062367241
-2.4266420891949956,-1.2398255620614247,-2.7437899147669027,-5.679909396189445
-2.4390403448156097,-1.2514380587026663,-2.8005890087287972,-5.626117679123677
-2.4515547254026364,-1.2702386622914545,-2.856850185520034,-5.570218437348233
-2.464257112025551,-1.2950911685246094,-2.9125523698935165,-5.513488225601612
-2.477208023710797,-1.3249957513287907,-2.9676872521495326,-5.457018633068337
-2.490457981224085,-1.3591051898408337,-3.022257438480216,-5.401703700835997
-2.504049033122493,-1.3967262770275986,-3.076274475488576,-5.348244415065458
-2.5180162958927688,-1.437311012675732,-3.1297569196392305,-5.2971643734634535
-2.5323894060195262,-1.4804417692965617,-3.182728563373865,-5.248831408375327
-2.547193823712492,-1.5258137193977248,-3.235216877457618,-5.203481196478217
-2.5624519609064693,-1.5732168160457982,-3.2872516894224,-5.161240198128606
-2.578184129066927,-1.6225187443512168,-3.338864091403686,-5.122146383460149
-2.5944093165104394,-1.673649593299201,-3.3900855552382874,-5.0861670267183605
-2.6111458124434312,-1.7265885373838932,-3.440947225505471,-5.0532133964731845
-2.62841169781727,-1.781352530209812,-3.491479359470203,-5.023152492724543
-2.646225223119368,-1.8379868521084575,-3.5417108843974483,-4.995816146610134
-2.664605091640453,-1.8965572794353052,-3.59166904586355,-4.971007860259489
-2.683570664434806,-1.9571436222239773,-3.6413791244661446,-4.948507765474588
-2.7031421006570455,-2.019834386389738,-3.6908642021208906,-4.928076049301009
-2.723340444520943,-2.0847223416566036,-3.7401449626139005,-4.9094551505706185
-2.744187667937509,-2.151900807601692,-3.7892395141196067,-4.892370984963704
-2.765706676013526,-2.2214605024106113,-3.838163223969244,-4.876533412844773
-2.787921281037632,-2.293486829419191,-3.8869285580976913,-4.861636126729253
-2.810856149331824,-2.3680575041344993,-3.935544919364984,-4.847356104561006
-2.834536724373169,-2.4452404489233053,-3.984018480410594,-4.833352750846122
-2.858989128862402,-2.525091904132448,-4.032352007919055,-4.819266829427408
-2.8842400479037265,-2.607654723470063,-4.0805446762133295,-4.804719278423545
-2.910316595138427,-2.692956838488409,-4.128591868997565,-4.789309988672726
-2.937246163523311,-2.781009892394917,-4.176484968884292,-4.772616621006169
-2.96505626244726,-2.871808057527653,-4.224211135094354,-4.754193533964682
-2.9937743430225368,-2.9653270639161735,-4.271753070434,-4.733570891329636
-3.0234276136616987,-3.0615234785542254,-4.319088779347297,-4.7102540172568865
-3.054042848447241,-3.1603342863766333,-4.366191319519865,-4.683723065069347
-3.085646191311007,-3.261676834398656,-4.413028550170559,-4.653433063058149
-3.118262959654994,-3.36544920989169,-4.4595628808011405,-4.618814396116167
-3.151917451753911,-3.471531131609241,-4.5057510247623025,-4.579273774805632
-3.186632763070003,-3.579785439662311,-4.5515437625103585,-4.534195732646232
-3.2224306174666264,-3.690060274368492,-4.596885719836821,-4.48294467709857
-3.2593312202103113,-3.802192036968895,-4.641715166607806,-4.424867499029163
-3.2973531405800003,-3.916009225282637,-4.685963841598098,-4.359296718558637
-3.336513232832827,-4.031337235023245,-4.729556808783684,-4.285554111408976
-3.376826605183059,-4.148004212688365,-4.772412349897774,-4.202954718650364
-3.418306647309943,-4.265848038964171,-4.8144418970842775,-4.110811093825271
-3.4609651276995845,-4.384724513112545,-4.85555000802253,-4.008437584850326
-3.50481237283071,-4.504516799916828,-4.895634383871034,-3.8951543843370304
-3.5498575408298785,-4.6251461930458415,-4.934585927714404,-3.7702910120104964
-3.596109002760337,-4.746584244313932,-4.972288837834509,-3.6331888183273193
-3.643574845203476,-4.868866309979755,-5.008620726017782,-3.483202021511883
-3.6922635083032738,-4.992106576080167,-5.0434527462329015,-3.319696714273128
-3.7421845740640753,-5.11651464806717,-5.076649713375633,-3.1420472059389017
-3.793349720544747,-5.2424138282933495,-5.108070185435022,-2.9496290072012097
-3.8457738588276804,-5.370261258696394,-5.137566475507033,-2.741807728298567
-3.899476471414644,-5.5006701711291415,-5.164984552790019,-2.5179231644275823
-3.9544831731259356,-5.634434550133251,-5.1901637844342945,-2.2772679152630575
-4.010827518627268,-5.772556539266943,-5.212936463586925,-2.0190600862470505
-4.068553084019937,-5.916276841905724,-5.233127064449396,-1.7424100577112722
-4.127715852438994,-6.067108038925701,-5.250551165026509,-1.4462821955022307
-4.1883869328282515,-6.226869890087235,-5.265013986981531,-1.1294541213466018
-4.250655631729124,-6.397723761569394,-5.276308528194997,-0.7904795470174876
-4.314632869344818,-6.582199284275457,-5.284213323665172,-0.42766720481594567
-4.380454862187572,-6.7831982010742555,-5.288489995713332,-0.039100924723982466
-4.448286844198315,-7.003944367591317,-5.2888810049605715,0.3772502921422748
-4.5183262878742285,-7.247818302425616,-5.285108502039149,0.8232388385927376
-4.590804470898485,-7.517958468341014,-5.276876113653222,1.29988778765187
-4.665984055581895,-7.816415220879209,-5.263877235776703,1.806073049913997
-4.744148207790688,-8.142502868209501,-5.245816505277563,2.3360338336488486
-4.825573236472783,-8.489873622731912,-5.2224561669410745,2.875048365654471
-4.910471972700102,-8.842032019682422,-5.19370568328453,3.392921918266335
-4.998892292896926,-9.167341985374875,-5.159776464101866,3.8368922878718177
-5.090565712750674,-9.418171334883269,-5.121407541223148,4.130752347768346
-5.184747426099507,-9.542931542951187,-5.0801000177454645,4.192890054182902
-5.280176741529019,-9.513868141808572,-5.038171117203635,3.977410709372857
-5.3753154229471045,-9.34988513866601,-4.9983970101099064,3.508444711244328
-5.468814274333765,-9.10557286040218,-4.963312562997463,2.8655066586656104
-5.559870002937786,-8.836999836173476,-4.934657496410807,2.1340968404298746
-5.648240001299521,-8.580001208242779,-4.913316528006509,1.373071157070865
-5.734040013381948,-8.349706700020764,-4.8995858164358,0.6125708979892837
-5.817537080382156,-8.148249074959972,-4.893460107455907,-0.13557104973518164
-5.899019571131755,-7.971384143284552,-4.894815817953259,-0.8684095711936718
-5.9787334125646,-7.812255797302585,-4.903499913665196,-1.5863312901688913
-6.056855970537626,-7.663179460610396,-4.919363226566885,-2.290330326576393
-6.13348776514373,-7.516404575780048,-4.942266529832649,-2.980837609190581
-6.2086518109015305,-7.364428099551135,-4.972074905924555,-3.6573213662453883
-6.282296091897042,-7.200141029840163,-5.008648119587009,-4.318264970129957
-6.354297502195443,-7.016932894817032,-5.051830769288308,-4.961338711420922
-6.424466831143613,-6.808801525584626,-5.1014441564025175,-5.583680868750899
-6.492554846399459,-6.570477358898061,-5.157280965090027,-6.182245107293603
-6.55825961998844,-6.297552233170078,-5.219103416162962,-6.754186142372543
-6.62123514232014,-5.986592857614878,-5.286645277586688,-7.2972592063712245
-6.681101070896289,-5.63521517316844,-5.3596178696504,-7.810209049338735
-6.737453222627973,-5.242096451429151,-5.437719960143787,-8.29312511750477
-6.7898741871422645,-4.806906804168784,-5.520651211318834,-8.747743194863151
-6.837943255183952,-4.330150496504361,-5.608128643267466,-9.177680550830758
-6.881244760148996,-3.8129196847004643,-5.699905448775773,-9.588600190120149
-6.919373956996001,-3.256578971942247,-5.795791450676974,-9.988306538848937
-6.951939746715423,-2.6624205054492496,-5.895674516065464,-10.386772524378987
-6.978563951769916,-2.031363599665152,-5.999542241309253,-10.796072124335122
-6.998877587766567,-1.3638396497518634,-6.107502962552605,-11.230113424699194
-7.012515984264086,-0.6601475127639534,-6.219804096799597,-11.703872140341721
