th1 (rad),w1 (rad/s),th2 (rad),w2 (rad/s),a1 (rad/s^2),a2 (rad/s^2)
4.814748339320874,-2.9412875710245445,4.636355621642016,-2.4736555927252337,7.061865934917007,4.357024565317176
4.785335463610629,-2.8706689116753745,4.6116190657147635,-2.430085347072062,7.302553241362665,3.9820030446013477
4.756628774493875,-2.7976433792617477,4.587318212244043,-2.3902653166260484,7.520184208657544,3.629635469150876
4.728652340701258,-2.7224415371751722,4.563415559077782,-2.3539689619345396,7.715257902930883,3.300401238755581
4.701427925329506,-2.6452889581458634,4.539875869458437,-2.3209649495469837,7.888521474806337,2.994288097859939
4.674975035748048,-2.5664037433978,4.516666219962968,-2.291022068568384,8.040938216559148,2.7108432716433857
4.64931099831407,-2.4859943612322084,4.493755999277284,-2.2639136358519503,8.173653264904793,2.449231200201928
4.6244510547017486,-2.4042578285831606,4.471116862918764,-2.239421323849931,8.287958035601644,2.208295334590845
4.600408476415917,-2.3213782482271443,4.448722649680265,-2.2173383705040224,8.3852544688108,1.9866215659847433
4.577194693933646,-2.237525703539036,4.426549265975225,-2.197472154844175,8.467020070966012,1.782601115366934
4.5548194368982555,-2.152855502829376,4.404574544426783,-2.1796461436905057,8.534774583431732,1.5944910703196722
4.533290881869962,-2.0675077569950586,4.382778082989878,-2.163701232987309,8.590048916300713,1.420471170313516
4.512615804300012,-1.9816072678320515,4.361141070660005,-2.149496521284174,8.63435678176024,1.258695868923996
4.492799731621691,-1.8952637000144492,4.339646105447163,-2.1369095625949344,8.669169266160473,1.1073411047883779
4.473847094621546,-1.8085720073528444,4.318277009821214,-2.1258361515470505,8.69589240875567,0.9646455664507032
4.455761374548018,-1.7216130832652876,4.297018648305744,-2.1161896958825435,8.715847718180276,0.8289465227699072
4.438545243715366,-1.6344546060834848,4.275856751346918,-2.1079002306548444,8.730255460291216,0.6987105021597739
4.422200697654531,-1.5471520514805726,4.25477774904037,-2.1009131256332467,8.740220494298272,0.5725592394179663
4.406729177139725,-1.4597498465375898,4.233768617784038,-2.0951875332390673,8.746720416446161,0.44929137215518244
4.392131678674349,-1.3722826423731282,4.212816742451647,-2.0906946195175156,8.750595788308964,0.32790036699801683
4.378408852250617,-1.2847766844900386,4.191909796256472,-2.087415615847535,8.752542275256959,0.20758909782424181
4.365561085405717,-1.197251261737469,4.171035640097997,-2.085339724869293,8.75310459441864,0.08778139427209956
4.353588572788342,-1.1097202157932826,4.150182242849303,-2.084461910926572,8.752672264527158,-0.031869260827929666
4.34249137063041,-1.022193493148011,4.129337623740038,-2.0847806035348513,8.75147725581932,-0.15147387048536526
4.3322694356989295,-0.9346787205898178,4.108489817704689,-2.086295342239705,8.749593749117055,-0.2709050607779933
4.322922648493031,-0.8471827830986473,4.087626864282292,-2.089004392847485,8.74694032048592,-0.389797552942474
4.314450820662045,-0.7597133798937881,4.0667368203538174,-2.0929023683769095,8.743284960834615,-0.507552464633519
4.306853686863107,-0.6722805302854419,4.045807796670048,-2.0979778930232444,8.738253406010362,-0.6233460566374747
4.300130881560253,-0.5848979962253382,4.024828017739815,-2.104211353589619,8.731341278214108,-0.7361436070038071
4.294281901598,-0.4975845834431971,4.003785904203919,-2.1115727896596574,8.721930508920694,-0.8447190820503183
4.289306055763568,-0.41036527835399017,3.9826701763073227,-2.1200199804801607,8.709310412673897,-0.9476811619575987
4.285202402980028,-0.3232721742272512,3.961469976502521,-2.1294967920997365,8.692703598967755,-1.0435059507439006
4.281969681237755,-0.23634513823757364,3.940175008581524,-2.1399318516071757,8.671296640952349,-1.1305763477473108
4.279606229855379,-0.14963217182805016,3.918775690065452,-2.1512376150846486,8.644275069607804,-1.207227585062919
4.278109908137099,-0.06318942113197212,3.8972633139146056,-2.163309890935278,8.610861847868591,-1.2717978652824615
4.277478013925779,0.022919197346713785,3.875630215005253,-2.1760278695881023,8.570358033382448,-1.32268240984479
4.2777072058992465,0.10862277768053827,3.853869936309372,-2.1892546936865505,8.52218390824883,-1.3583886146749529
4.278793433676052,0.19384461676302658,3.8319773893725064,-2.2028385798333,8.465918497591746,-1.3775894873930181
4.280731879843682,0.27850380173894407,3.8099490035741734,-2.2166144747072303,8.401335178898773,-1.3791721970835302
4.283516917861071,0.3625171535279318,3.787782858827101,-2.2304061966780657,8.328431057591061,-1.3622784843917513
4.287142089396351,0.4458014641038424,3.7654787968603203,-2.2440289815219834,8.247447990474855,-1.326333914114221
4.291600104037389,0.528275944008591,3.7430385070451004,-2.2572923206631255,8.158883587986374,-1.2710635230371512
4.296882863477475,0.6098647798884548,3.720465583838469,-2.270002955893497,8.063491192825344,-1.196492291568307
4.30298151127636,0.6904996918167082,3.6977655542795342,-2.28196787880918,7.962268654107785,-1.1029299664713246
4.309886508194527,0.7701223783577861,3.6749458754914426,-2.292997178473893,7.856436600071087,-0.9909409593775532
4.317587731978105,0.8486867443584969,3.6520159037067037,-2.302906588067669,7.747407750471072,-0.8613011944292968
4.32607459942169,0.9261608218632076,3.628986837826027,-2.311519600011962,7.636749496971202,-0.7149447337496844
4.335336207640323,1.0025283168329195,3.6058716418259076,-2.318669047349459,7.526142432781346,-0.5529036554959953
4.345361490808652,1.077789741160733,3.582684951352413,-2.324198083904419,7.417337684699382,-0.37624492906649754
4.356139388220259,1.1519631180077268,3.5594429705133686,-2.327960533195084,7.312115787797606,-0.1860079173020009
4.367659019400336,1.2250842758857028,3.5361633651814177,-2.329820612368104,7.21224948231354,0.016854316042574098
4.379909862159193,1.2972067707088382,3.512865159057737,-2.329652069207678,7.119472271507088,0.23152741345583766
4.392881929866282,1.368401493423909,3.48956863836566,-2.3273367950731196,7.035453941716364,0.45738019745176384
4.406565944800521,1.4387560328410727,3.466295270414929,-2.322762993098602,6.9617835949752305,0.6940004151733375
4.4209535051289315,1.508373868790825,3.443067640483943,-2.3158229889468687,6.899960150676857,0.9412217331975112
4.436037243816839,1.5773734702975937,3.419909410594474,-2.3064107716148934,6.851389784918744,1.1991425909096938
4.451810978519815,1.6458873681467812,3.396845302878325,-2.2944193457057964,6.817389419300503,1.4681379662565581
4.468269852201283,1.7140612623397862,3.373901109421267,-2.2797379660432306,6.799195147812259,1.7488653615205163
4.485410464824681,1.7820532138179088,3.351103729760835,-2.2622493124280254,6.7979743865390265,2.042266393466264
4.50323099696286,1.850032957683299,3.328481236636555,-2.2418266484933627,6.814840520704429,2.349565300226024
4.521731326539693,1.9181813628903432,3.306062970151621,-2.2183309954911024,6.850868876618457,2.672265490675162
4.5409131401685965,1.9866900516565278,3.28387966019671,-2.191608340584351,6.907112931820358,3.0121449937312508
4.560780040685162,2.0557611809747316,3.2619635767908663,-2.1614868906470384,6.984619767736176,3.3712513422082515
4.581337652494909,2.1256073786520933,3.240348707884396,-2.1277743772249558,7.084443843007265,3.7518960676805606
4.60259372628143,2.196451817082166,3.2190709641121464,-2.09025541654815,7.207658205159405,4.156648599654611
4.624558244452252,2.26852839913376,3.198168409946665,-2.048688930551604,7.355362251389038,4.5883289566059835
4.647243528443589,2.3420820216476503,3.177681520641149,-2.002805640985544,7.528685088249093,5.049998184095012
4.670664348660066,2.417368872530141,3.1576534642312937,-1.952305659144594,7.72878342101144,5.544945027912179
4.694838037385367,2.4946567067402556,3.1381304076398475,-1.8968562088654721,7.956832726105637,6.0766668180018595
4.719784604452769,2.574225034001312,3.1191618455511927,-1.8360895406854536,8.214010227870576,6.648841973110853
4.745526854792782,2.656365136280018,3.1008009501443383,-1.769601120954345,8.501467922679414,7.265290913247819
4.772090506155583,2.741379815506812,3.083104938934795,-1.6969482118218668,8.820293585538868,7.929921493809182
4.799504304310651,2.8295827513622007,3.066135456816576,-1.617648996883775,9.171457383661416,8.646654374950666
4.827800131824273,2.921297325198815,3.0499589668477385,-1.5311824531342684,9.555741451023469,9.419323060863467
4.857013105076262,3.01685473970905,3.0346471423163957,-1.4369892225256338,9.973649611798367,10.251542770094165
4.887181652473352,3.1165912358270336,3.0202772500911395,-1.334473794824692,10.425294471086408,11.146541962024513
4.918347564831622,3.2208441805378976,3.0069325121428925,-1.223008375204447,10.910259445101659,12.106950439273838
4.950556006637001,3.329946774988914,2.994702428390848,-1.1019388708117086,11.427434144493635,13.13453873624133
4.98385547438689,3.4442211164338503,2.983683039682731,-0.9705934834492953,11.974823054302352,14.229905331081511
5.018297685551229,3.563969346976874,2.973977104848238,-0.8282944301384803,12.549329895489942,15.392111487009906
5.053937379020997,3.6894626459317736,2.965694160546853,-0.6743733152683812,13.146523621073735,16.618268669617308
5.090832005480315,3.8209278821425112,2.9589504273941696,-0.5081906285722081,13.760396844398644,17.903090876971724
5.1290412843017394,3.9585318505864975,2.9538685211084474,-0.3291597198024908,14.383133613526107,19.238434048480386
5.168626602807604,4.1023631867217585,2.9505769239104227,-0.13677537931768696,15.00491055363617,20.612856793973545
5.209650234674822,4.2524122922581205,2.949209170117246,0.0693531886220485,15.613762800858499,22.01125018569837
5.2521743575974025,4.408549920266705,2.9499027020034663,0.2894656904790322,16.195552603864776,23.41459758362152
5.296259856800069,4.570505446305353,2.952797358908257,0.5236116663152475,16.73408213789306,24.799935675009227
5.341964911263123,4.737846267684284,2.9580334755714093,0.7716110230653397,17.211390646835746,26.140591374952976
5.389343373939965,4.9099601741526415,2.9657495858020626,1.0330169368148694,17.60826709053278,27.406761696073115
5.438442975681492,5.086042845057969,2.976079755170211,1.3070845537756006,17.904991205628267,28.56648133359845
5.489303404132072,5.265092757114252,2.9891506007079673,1.592749367111585,18.08228800383831,29.58698361473257
5.541954331703215,5.445915637152636,3.0050780943790834,1.8886192032589109,18.122445442404693,30.436406300195532
5.596413488074741,5.627140091576683,3.0239642864116725,2.192983266260866,18.0105075708246,31.085731029842712
5.652684888990508,5.807245167284929,3.045894119074281,2.503840576559293,17.73542384923081,31.510785419955532
5.710757340663357,5.984599405777237,3.0709325248398742,2.8189484307588484,17.29101862238049,31.694094483713574
5.770603334721129,6.157509592001042,3.0991220091474627,3.1358893755959842,16.67665042180735,31.626357014018975
5.8321784306411395,6.324276096219116,3.1304809029034226,3.452152945736174,15.897461795457916,31.307351229352378
5.89542119160333,6.483250714173694,3.1650024323607844,3.765226458029698,14.964173066375233,30.746141279422158
5.960253698745067,6.632892444837447,3.202654696941081,4.07268787082392,13.892437631320307,29.960550422066834
6.026582623193441,6.77181682115065,3.2433815756493205,4.372293375044588,12.701838058683414,28.975968069991165
6.094300791404947,6.8988352017374845,3.287104509399766,4.6620530557445,11.414647671444934,27.82364449693032
6.163289143422322,7.012981678451934,3.333725039957211,4.940289500713803,10.05450253149639,26.538681341806136
6.2334189602068415,7.113526703766897,3.383127934964349,5.205676314131864,8.645121969568397,25.15794016584014
6.304554227244511,7.199977923462582,3.4351846981056675,5.457255715790265,7.209187175718986,23.71806795332364
6.376554006479137,7.272069795219771,3.4897572552635703,5.6944363953235015,5.767446455101949,22.253788674614988
6.4492747044313345,7.3297442597707905,3.5467016192168055,5.916974282069652,4.338073067310703,20.796548629434877
6.5225721470290425,7.373124990443897,3.605871362037502,6.124939768364,2.936265527382945,19.37354404533876
6.5963033969334814,7.402487645717727,3.6671207597211417,6.318675208817388,1.574055594589049,18.007111948416522
6.670328273390659,7.418228201663617,3.7303075118093156,6.498746328301554,0.2602769088568383,16.714434075089542
6.744510555407295,7.420830970752186,3.795294975092331,6.665890669052449,-0.9993544012567452,15.50748848010582
6.818718865114817,7.410837426739619,3.8619538817828554,6.820965553853507,-2.2020899583886724,14.393181559610007
6.892827239382213,7.388816527155732,3.9301635373213903,6.9648973694496075,-3.347963008839393,13.373600329251182
6.966715404653771,7.355336897067338,3.9998125110158864,7.098633372742119,-4.439587223554555,12.44633699936421
7.040268773624444,7.310941024831792,4.070798844743307,7.223096742735762,-5.481950602321291,11.604852066868695
7.113378183872761,7.2561215188085795,4.143029812170665,7.339145263404449,-6.482204857929516,10.838856277179303
7.185939399060847,7.191299470229285,4.21642126480471,7.447533826176242,-7.449442495145572,10.134704839019305
7.25785239376314,7.116805045277829,4.290896603066472,7.548880874566435,-8.394447233189842,9.475808802404657
7.329020444215918,7.03286057294593,4.366385411812137,7.643638962590481,-9.32939833428487,8.843078453523235
7.399349049945378,6.939566589603081,4.442821801438042,7.732069747125713,-10.267505834566743,8.215421850293708
7.468744715841408,6.836891531257414,4.520142498909299,7.81422396562865,-11.22255199466004,7.570327850307144
7.537113631153982,6.724666011310814,4.598284738565585,7.889927244131721,-12.208315294435502,6.884566320054942
7.60436029126709,6.602582858366459,4.6771840110069025,7.95877290733227,-13.23785823373532,6.135037229882238
7.670386119850755,6.470204276029105,4.756771740080225,8.020123279631093,-14.322670635855314,5.299793066751212
7.735088162611046,6.326977569670552,4.836972972876536,8.073121210298606,-15.47167765667327,4.3592432113247845
7.798357938307751,6.17226079310382,4.917704184979522,8.116713642411854,-16.69014728260361,3.297522737349771
7.860080546238789,6.005359320277783,4.998871321403641,8.149688869785352,-17.97856534140154,2.103970909782631
7.920134139441567,5.825573666863768,5.080368210101494,8.170728578883178,-19.33158410925424,0.7746184557824949
7.978389876110205,5.632257825771226,5.162075495890326,8.178474763441002,-20.737187328240665,-0.686466739135807
8.034712454367916,5.424885952488819,5.243860243524736,8.171610096049644,-22.176240179998768,-2.266168179898677
8.088961313892804,5.203123550688831,5.325576344485232,8.148948414250658,-23.62259539950407,-3.941857304936312
8.140992549399693,4.966897596693791,5.407065828627739,8.109529841201294,-25.0438946466224,-5.681676440372232
8.19066152536663,4.716458650227567,5.488161127039752,8.052713076797572,-26.403130941564353,-7.445703661956956
8.237826111868907,4.452427340811924,5.568688257807728,7.978256040178002,-27.660927000193187,-9.188023518948143
8.282350385277025,4.175818070809992,5.648470818209508,7.88637580498852,-28.77835262869399,-10.859581345288554
8.324108565985126,3.888034544523052,5.727334576259393,7.777779991535635,-29.719981088071506,-12.41154726704616
8.362988911430357,3.590834733642337,5.805112376174749,7.653664518865173,-30.456803843081442,-13.798797513593577
8.39889725876678,3.286266695211523,5.881649021363401,7.515676543729238,-30.968613448222023,-14.983070985306796
8.431759925718895,2.9765805607293028,5.956805786800693,7.36584583387617,-31.245535808663767,-15.935397660946379
8.461525731326187,2.664125202642665,6.030464245139455,7.206491857266706,-31.288532223680775,-16.63751663822505
8.488166983352613,2.351239880405857,6.102529163712122,7.040116690884456,-31.10886441096172,-17.082175173872635
8.511679382156672,2.04015123629624,6.172930330620966,6.869294939145729,-30.726679034919325,-17.272381713736856
8.532080894519634,1.732884445947047,6.241623280012424,6.69657112200836,-30.168984835574935,-17.21983268860746
8.549409738979104,1.4311945975912976,6.308588991232507,6.524372795122286,-29.46734522389112,-16.942816890397026
8.563721684955018,1.1365211453523865,6.37383271918373,6.354944626218316,-28.655592969416123,-16.46391580615518
8.575086896408543,0.8499652156582252,6.4373821654459125,6.190305468156764,-27.767808652885723,-15.807775465215437
8.583586548565124,0.5722871291293681,6.49928522012748,6.03222771350461,-26.836715799612772,-14.999147991541784
8.589309419856418,0.3039199711332404,6.559607497262526,5.882236233589192,-25.892556638256444,-14.061313485093196
8.592348619567751,0.044994404750675954,6.618429859598418,5.74162309873826,-24.962439720201957,-13.01491409679487
8.592798563615258,-0.2046299924513436,6.675846090585801,5.611473957770311,-24.070101800634376,-11.877172995325308
8.590752263690744,-0.4453310104576874,6.731960830163504,5.492702227817058,-23.236001534430923,-10.661434379823916
8.586298953586168,-0.6776910258019966,6.786887852441675,5.386087884018819,-22.47765709578096,-9.376944412966996
8.579522043328147,-0.9024675967598061,6.840748731281863,5.292318439889149,-21.810147321984925,-8.0287919750921
8.570497367360549,-1.1205690699796553,6.893671915680755,5.212030520138228,-21.246710049231027,-6.61793719960686
8.559291676660752,-1.3330361704719655,6.9457922208821365,5.145851148142159,-20.79938666779741,-5.1412707455531335
8.545961314956033,-1.5410300371499397,6.997250732363558,5.094438440686628,-20.479674452616816,-3.5916656093828205
8.530551014584534,-1.745826781676108,7.048195116770425,5.058521784592799,-20.29915438453561,-1.958006458208762
8.513092746767773,-1.948818325521464,7.098780334616353,5.038941720010712,-20.270057907395127,-0.22521279062087998
8.493604563512559,-2.1515189045954153,7.14916975181646,5.036689592104503,-20.405715048411395,1.6256796257234976
8.472089374466604,-2.355576055079529,7.199536647737506,5.052946388361738,-20.72077723167037,3.617232966370451
8.448533613915808,-2.562783827396233,7.250066111621123,5.089118718025443,-21.23101002931006,5.774825499149233
8.422905775641846,-2.7750939276893334,7.300957298801378,5.146866973016935,-21.952266013547316,8.12481759248027
8.395154836364952,-2.9946165878248063,7.352425968531547,5.228115148941737,-22.89790918311513,10.690631385532054
8.365208670486703,-3.2235956796559577,7.404707120020964,5.335021462797058,-24.073361298311625,13.484863243207213
8.332972713690143,-3.464329292639074,7.4580573346489345,5.46987009522913,-25.46542490153094,16.49411622478936
8.298329420763752,-3.7189835416543833,7.5127560356012255,5.634811257477024,-27.02248479281882,19.651043781977105
8.261139585347207,-3.9892083895825716,7.569104148175995,5.831321695296795,-28.61984442607247,22.78546857560004
8.221247501451382,-4.275406833843296,7.627417365128963,6.059176381052795,-30.004048311996687,25.545795807112867
8.17849343311295,-4.575447316963263,7.688009128939491,6.314634339123924,-30.717132599820488,27.291766043270645
8.132738959943318,-4.882618642961468,7.751155472330731,6.587551999556631,-30.031184903016854,27.000766010473903
8.083912773513703,-5.182930491991637,7.8170309923262975,6.85755965966137,-26.99553888865872,23.33091139207195
8.032083468593786,-5.452885880878224,7.885606588922911,7.0908687735820894,-20.788819690766644,15.11088212260257
7.977554609785003,-5.660774077785891,7.956515276658732,7.241977594808115,-11.476434684701575,2.399506338580512
7.920946869007144,-5.775538424632907,8.028935052606814,7.26597265819392,-0.689575420405165,-12.559988996116719
7.863191484760815,-5.782434178836958,8.101594779188753,7.140372768232753,8.852443827718892,-25.99925187610637
7.805367142972446,-5.693909740559769,8.17299850687108,6.880380249471689,15.050521148829521,-35.0025612316205
7.748428045566848,-5.5434045290714735,8.241802309365797,6.530354637155484,17.572580108965827,-39.10250377598011
7.692994000276133,-5.367678727981815,8.307105855737351,6.1393295993956825,17.37364997244089,-39.61266142870628
7.639317212996314,-5.193942228257406,8.368499151731308,5.74320298510862,15.645978718332909,-38.17242589095812
