th1 (rad),w1 (rad/s),th2 (rad),w2 (rad/s)
1.0212138962696629,-2.270024967941646,1.1635412753956538,-0.33497497902377066
0.9985136465902464,-2.339299173622472,1.160191525605416,-0.3636953786590283
0.9751206548540217,-2.404783564836337,1.1565545718188257,-0.3977282324040642
0.9510728192056583,-2.4662377493724486,1.152577289494785,-0.43742891705353926
0.9264104417119339,-2.5234459844320276,1.1482030003242496,-0.4831053335077523
0.9011759818676136,-2.5762206141569117,1.143371946989172,-0.5350099733412534
0.8754137757260445,-2.624404114687866,1.1380218472557595,-0.593333988554269
0.8491697345791659,-2.667869613738833,1.1320885073702167,-0.6582035538768845
0.8224910384417775,-2.7065198839973967,1.1255064718314478,-0.7296786242542818
0.7954258396018036,-2.7402849414124923,1.118209685588905,-0.8077539994716608
0.7680229901876786,-2.7691184932754886,1.1101321455941884,-0.8923624386387189
0.7403318052549237,-2.7929935634212093,1.101208521207801,-0.9833794397730391
0.7124018696207116,-2.811897665478179,1.0913747268100706,-1.080629225783398
0.6842828929659298,-2.8258278993288983,1.0805684345522366,-1.183891459743017
0.6560246139726408,-2.834786316218223,1.0687295199548064,-1.2929082426789462
0.6276767508104586,-2.8387758436790325,1.055800437528017,-1.4073910133314902
0.5992889923736683,-2.837796993635858,1.041726527394702,-1.5270270558982741
0.5709110224373097,-2.83184550615198,1.0264562568357194,-1.6514854135250583
0.54259256737579,-2.820911015718329,1.0099414027004687,-1.7804220897329217
0.5143834572186067,-2.804976772439163,0.9921371818031395,-1.9134844883217892
0.48633368949421507,-2.7840204099504393,0.9730023369199216,-2.0503150896625875
0.4584934853947107,-2.75801572621149,0.9524991860232956,-2.190554386052504
0.4309133281325958,-2.726935431742872,0.9305936421627706,-2.3338431016718286
0.4036439738151671,-2.6907548209537597,0.9072552111460523,-2.4798237057409205
0.3767364256056295,-2.6494563341879216,0.8824569740886431,-2.6281411934096957
0.35024186226375026,-2.603034999407588,0.8561755621545462,-2.7784430604475094
0.3242115122696744,-2.5515047716408614,0.828391131550071,-2.930378337484806
0.29869646455326576,-2.4949058241414375,0.799087348175223,-3.083595479834452
0.2737474063118514,-2.433312886052058,0.7682513933768784,-3.2377388325443297
0.24941427745133082,-2.366844764650351,0.7358740050514351,-3.392443311164038
0.22574582980482732,-2.295675231389871,0.7019495719397947,-3.5473268630067376
0.20278907749092862,-2.220045481796485,0.6664763033097273,-3.7019802120578413
0.18058862267296377,-2.1402783860841352,0.6294565011891489,-3.855953360854113
0.15918583881212242,-2.0567947080468447,0.5908969675806077,-4.008738353178579
0.13861789173165398,-1.9701313509171687,0.550809584048822,-4.159747936053651
0.11891657822248229,-1.8809614429629709,0.5092121046882855,-4.308290061377211
0.10010696379285258,-1.79011564073337,0.46612920407451336,-4.453538720496101
0.08220580738551889,-1.6986033334769095,0.42159381686955233,-4.59450250736016
0.06521977405074979,-1.607631417128736,0.37564879179595073,-4.729993647868589
0.04914345987946243,-1.5186169575833894,0.3283488553172648,-4.85860204606374
0.03395729030362853,-1.4331884841123534,0.27976283485662745,-4.978681064546479
0.019625405462504998,-1.3531691589464372,0.22997602421116264,-5.08835388242784
0.0060937138730406265,-1.2805342758246407,0.17909248538688424,-5.185550558655124
-0.006711628885205781,-1.2173363833729374,0.127236979800333,-5.2680851369961
-0.018884992718935154,-1.1655948663679578,0.07455612843037199,-5.333777839633042
-0.030540941382614734,-1.1271537062226238,0.021218350034041572,-5.380618690888647
-0.04181247844484097,-1.1035208234822675,-0.0325878368748449,-5.406956461966981
-0.05284768667966365,-1.095712407193834,-0.08665740149451472,-5.411683835477116
-0.06380481075160199,-1.104131754975365,-0.1407742398492859,-5.394381661685384
-0.07484612830135565,-1.128510135574994,-0.1947180564661397,-5.355387690088842
-0.08613122965710558,-1.1679254999322923,-0.24827193336702813,-5.295770201429045
-0.0978104846564285,-1.2208966227747085,-0.3012296353813186,-5.217210381190993
-0.11001945088417558,-1.2855323567618133,-0.35340173919322854,-5.121819979637075
-0.12287477445179372,-1.3597051056523344,-0.4046199389895993,-5.011933739219783
-0.13647182550831707,-1.4412174936435367,-0.4547392763817971,-4.889915386280536
-0.15088400044475245,-1.527939582037425,-0.5036384302446024,-4.7580044974840545
-0.1661633962651267,-1.6179058903802623,-0.551218475219443,-4.618215921710948
-0.1823424551689293,-1.709372119974238,-0.5974006344365524,-4.472289899511076
-0.19943617636867167,-1.8008382627108797,-0.6421235334316632,-4.3216827776236055
-0.21744455899578047,-1.8910474702139746,-0.6853403612078992,-4.167585361543771
-0.2363550336979202,-1.9789697918644296,-0.7270162148233369,-4.010956848354282
-0.2561447316165645,-2.063778102328758,-0.7671257833068797,-3.852564993309526
-0.27678251263985204,-2.1448213471863182,-0.805651433239975,-3.69302623332456
-0.2982307261117152,-2.221598274550363,-0.8425816955732206,-3.5328421303256823
-0.3204467088572188,-2.2937333356500904,-0.8779101168764775,-3.372430436610518
-0.3433840422137197,-2.360955439935759,-0.9116344212425826,-3.2121503473733193
-0.3669935966130773,-2.4230796498765312,-0.9437559247163159,-3.052322236981161
-0.3912243931118426,-2.4799915834834785,-0.9742791470861275,-2.893242538413581
-0.41602430894667736,-2.531634158617623,-1.0032115724702633,-2.7351945561326754
-0.4413406505328536,-2.5779962873159663,-1.03056351803159,-2.5784560003795685
-0.46712061340601324,-2.619103159878715,-1.0563480780353856,-2.4233039602869266
-0.4933116450048004,-2.6550078155235,-1.0805811176382547,-2.2700179334299992
-0.5198617231600354,-2.6857837606139876,-1.1032812969725547,-2.118881422372498
-0.5467195607661753,-2.7115184571081317,-1.1244701111962796,-1.9701825054534807
-0.5738347453372566,-2.7323075585693597,-1.1441719362508145,-1.8242136942880995
-0.6011578209229502,-2.748249817510624,-1.1624140731936954,-1.6812713056534918
-0.6286403190980565,-2.7594426262391587,-1.1792267862502304,-1.5416545004817634
-0.6562347453604481,-2.7659781846327114,-1.194643331255048,-1.40566407696471
-0.6838945272067752,-2.76794031337517,-1.2086999720246951,-1.273601047774805
-0.711573930340527,-2.765401950794376,-1.2214359825024432,-1.1457649830615144
-0.7392279498484707,-2.758423385749467,-1.2328936323330584,-1.0224520617774833
-0.7668121837059654,-2.7470512875428352,-1.2431181529508333,-0.9039527453534465
-0.7942826965813937,-2.731318595445501,-1.2521576804043677,-0.7905489718328893
-0.8215958825358487,-2.71124532339867,-1.2600631701226965,-0.6825107679408439
-0.8487083357698354,-2.686840317705713,-1.266888277802105,-0.5800921940865293
-0.8755767389468925,-2.6581039750339914,-1.2726891997429701,-0.48352657554552303
-0.9021577786972323,-2.62503188345638,-1.2775244654984252,-0.3930210334152686
-0.9284080975317961,-2.5876192906890103,-1.281454675832578,-0.3087504105279052
-0.9542842904386862,-2.5458662335392237,-1.2845421799378571,-0.2308507861073678
-0.9797429527740785,-2.4997830862830095,-1.2868506877989307,-0.15941288007403143
-1.0047407836369087,-2.449396211930301,-1.2884448165996711,-0.09447575049200166
-1.0292347457562117,-2.394753340583543,-1.289389574104591,-0.03602126894556655
-1.053182279162047,-2.3359282661597143,-1.2897497867940468,0.01603009972056898
-1.0765415618236442,-2.2730244583603394,-1.289589485796841,0.06182170126600036
-1.0992718064072475,-2.2061772385891723,-1.288971268784181,0.10156084814245701
-1.1213335787931393,-2.1355542672591823,-1.2879556603027564,0.13551644332536647
-1.142689121465731,-2.0613542276781724,-1.2866004958695028,0.16401398808896114
-1.1633026637425128,-1.983803752137317,-1.2849603559886131,0.1874281199914794
-1.183140701263886,-1.903152796791662,-1.2830860747886983,0.20617305436355082
-1.2021722292318024,-1.81966880984819,-1.2810243442450628,0.22069149261239956
-1.2203689173302843,-1.7336301326103318,-1.278817429318939,0.23144268556309622
-1.2377052186563877,-1.6453191132221907,-1.276503002463308,0.23889038372307247
-1.2541584097886096,-1.555015396861223,-1.2741140986260773,0.24349136760478526
-1.2697085637572219,-1.4629897917205639,-1.2716791849500295,0.2456851429867567
-1.2843384616744276,-1.3694990124453699,-1.269222333520162,0.24588523107123247
-1.2980334517988812,-1.2747814897625607,-1.2667634812094497,0.24447230877393156
-1.3107812666965069,-1.179054323916649,-1.2643187581217104,0.24178928498323266
-1.3225718099356734,-1.0825113633625811,-1.261900865271878,0.2381382537399978
-1.333396923569299,-0.9853223168680849,-1.259519482734478,0.23377915620637435
-1.3432501467379798,-0.8876327594249984,-1.2571816911724143,0.22892991355780945
-1.3521264743322299,-0.7895648686803795,-1.2548923920368362,0.22376775995208653
-1.3600221230190337,-0.691218724831597,-1.2526547144373155,0.21843150201325276
-1.3669343102673497,-0.5926740177606223,-1.2504703994171829,0.2130244506315122
-1.3728610504449559,-0.4939920252697304,-1.2483401549108677,0.20761780416551062
-1.3778009706976533,-0.3952177510075272,-1.2462639768692125,0.20225430230806954
-1.3817531482077285,-0.29638213649712125,-1.2442414338461318,0.19695201154071565
-1.3847169695726997,-0.19750428617557791,-1.2422719137307248,0.19170814255695084
-1.3866920124344555,-0.09859366609057815,-1.2403548323051552,0.18650283507432794
-1.3876779490953612,0.00034774479219559784,-1.2384898039544119,0.18130287503830955
-1.3876744716474392,0.09932335697757176,-1.2366767752040289,0.1760653331099664
-1.3866812380776634,0.19833992148004798,-1.2349161218729292,0.1707411317749302
-1.384697838862863,0.2974055161758898,-1.2332087105551799,0.1652785618930253
-1.381723783701104,0.396527548545096,-1.2315559249362495,0.1596267785476373
-1.3777585082156532,0.49571075271141296,-1.2299596571507732,0.1537393110822208
-1.372801400688539,0.594955157762434,-1.228422264039951,0.147577623486231
-1.3668518491109145,0.6942540056215809,-1.2269464878050886,0.14111475885156896
-1.3599093090546988,0.7935916003824709,-1.225535340216573,0.13433909526162302
-1.351973393050874,0.8929410772920386,-1.2241919492639568,0.12725822976486267
-1.3430439822779536,0.9922620889014624,-1.222919366966308,0.11990299139590525
-1.333121361388939,1.0914984187953949,-1.221720337052349,0.11233156279244635
-1.322206377200985,1.190575550260372,-1.2205970214244246,0.1046336620796389
-1.3103006216983815,1.289398238630008,-1.2195506848036282,0.09693470182604114
-1.2974066393120813,1.387848161893974,-1.2185813377853678,0.0893997999819157
-1.2835281576931417,1.485781753953662,-1.2176873397855486,0.08223746962762231
-1.268670340153605,1.58302835724621,-1.2168649650892722,0.0757027622533391
-1.2528400565811428,1.6793888637334153,-1.2161079374667387,0.070099587147448
-1.2360461679438086,1.7746350413768321,-1.2154069415952642,0.06578188351352114
-1.2182998175300404,1.8685097615177726,-1.214749122760129,0.06315329080324102
-1.1996147199148626,1.9607283439928656,-1.2141175898520966,0.06266495720025243
-1.180007436474934,2.0509812136108305,-1.2134909402800942,0.06481115805958106
-1.1594976243388257,2.1389380067303305,-1.2128428286994983,0.07012247635789354
-1.1381082442715225,2.224253175694904,-1.2121416039359194,0.07915643299597756
-1.1158657125145734,2.3065730124107753,-1.2113500396059595,0.0924856459246564
-1.0927999823904657,2.3855438582704904,-1.210425183146713,0.11068383263869268
-1.0689445438077607,2.46082110230119,-1.209318344820326,0.13431022704390988
-1.0443363327847488,2.5320784170127593,-1.2079752425498869,0.1638932236990847
-1.0190155486146213,2.599016570578074,-1.2063363103128961,0.1999142474872579
-0.9930253829088406,2.6613711119824206,-1.2043371678380235,0.24279293367968494
-0.9664116717890163,2.718918271371587,-1.2019092385012267,0.2928746627197253
-0.9392224890753005,2.7714785547600544,-1.1989804918740294,0.35042131787571246
-0.9115077035276999,2.8189177260424696,-1.1954762786952724,0.41560584073153817
-0.8833185262672753,2.8611451287889116,-1.191320220287957,0.4885107924954254
-0.8547070749793861,2.8981095644813513,-1.1864351123630026,0.5691307470444953
-0.8257259793345726,2.9297931711940866,-1.1807438048925576,0.6573780049699779
-0.7964280476226318,2.9562039050466216,-1.1741700248428577,0.7530908748454298
-0.7668660085721656,2.977367299699674,-1.1666391160944034,0.8560436445875895
-0.7370923355751688,2.9933181678798295,-1.1580786796485276,0.965957363078035
-0.7071591538963705,3.004092829071145,-1.1484191060177473,1.0825106498032364
-0.677118225605659,3.0097223232645196,-1.137593999519715,1.205349914743987
-0.6470210023730139,3.0102269279788865,-1.1255405003722752,1.3340985651255723
-0.616918733093225,3.0056121570509173,-1.1121995147210195,1.4683649672185601
-0.5868626115227158,2.9958663006721444,-1.097515865048834,1.6077490963704535
-0.5569039485159943,2.980959475225898,-1.0814383740851294,1.7518479333106591
-0.5270943537637354,2.960844090726805,-1.0639198947520228,1.90025974502259
-0.4974859128564673,2.935456610803423,-1.0449172973017968,2.05258742616514
-0.4681313467484331,2.904720470598753,-1.0243914230401454,2.208441077916493
-0.43908414204244556,2.8685500265390522,-1.0023070122609805,2.367439972276624
-0.41039864177705504,2.826855434121241,-0.9786326125382143,2.529213997966958
-0.38213008743584265,2.779548382476723,-0.9533404725585447,2.6934046143780574
-0.35433460361107544,2.7265486557940357,-0.9264064264147641,2.859665256011552
-0.32706911705313507,2.667791541468017,-0.8978097738546486,3.027661033225473
-0.3003912016384549,2.6032361639454797,-0.8675331635223938,3.1970674660180216
-0.2743588399990001,2.5328748930995646,-0.8355624888622136,3.3675678653224366
-0.24903009106800447,2.4567440578267803,-0.8018868102089892,3.5388488399992815
-0.22446265048973668,2.3749362892483292,-0.7664983218089965,3.7105932578776426
-0.20071328759725338,2.287614919909632,-0.7293923892302201,3.8824698299254337
-0.17783713839815707,2.1950309658397713,-0.6905676909309657,4.054118329531945
-0.15588682873975934,2.0975432962829017,-0.6500265076356463,4.225129329300646
-0.13491139577693032,1.995642612230402,-0.6077752143426398,4.395017284271165
-0.11495496965462629,1.8899797426406337,-0.5638250414999282,4.563185898415784
-0.09605517222821995,1.7813984202054438,-0.5181931825157703,4.728885119159371
-0.07824118802616552,1.6709719615277296,-0.4709043313241766,4.891160019495465
-0.06153146841088822,1.5600419472992164,-0.4219927311292219,5.048793525347929
-0.045931048937896055,1.4502548602430136,-0.37150479587574264,5.200247733152499
-0.03142850033546592,1.343589559729253,-0.3195023185442177,5.343612649031112
-0.017992604738173386,1.2423646063720961,-0.2660661920539066,5.47657641121203
-0.005568958674452425,1.1492105638948649,-0.21130042794178627,5.596436472241729
0.005923146964496223,1.0669902419991337,-0.155336063219369,5.700174550367191
0.01659304938448756,0.9986522283387722,-0.09833431771569709,5.784615665305071
0.02657957166787528,0.9470131858676616,-0.040488161062646376,5.8466789473125775
0.036049703526551895,0.9144837633000581,0.017978628410479404,5.883703028505109
0.04519454115955247,0.9027783075928315,0.0768156586955305,5.893795878968696
0.05422232423548079,0.9126699657956131,0.13575361748521747,5.876130960302225
0.06334902389343693,0.9438565344709244,0.19451492708823973,5.831106582823547
0.07278758923814617,0.9949798333917503,0.2528259929164752,5.760314783411738
0.08273738757206367,1.0637978409136852,0.3104291407505926,5.666322525708267
0.09337536598120053,1.1474638643709358,0.36709236600767525,5.552325621964837
0.10485000462490988,1.2428421047843414,0.42261562222732363,5.421766423440604
0.1172784256727533,1.3467928787256371,0.4768332864617297,5.277999210736937
0.13074635446000968,1.4563855946204236,0.529613278569099,5.12405352356041
0.14531021040621392,1.5690274198496699,0.5808538138047031,4.962506680602406
0.16100048460471061,1.6825178150644395,0.6304788806107272,4.7954487241707
0.177825662755355,1.7950495160855637,0.6784333678524342,4.624510919877264
0.19577615791621064,1.9051773609020162,0.7246784770512069,4.450929242642687
0.2148279315252308,2.0117720713587035,0.7691877694776338,4.275620831760662
0.23494565223881783,2.1139704458524466,0.8119439777952404,4.09925927884473
0.2560853566973423,2.2111284723855076,0.8529365705836878,3.922341226857617
0.2781966414211974,2.3027803316411743,0.8921599828522639,3.745241333446969
0.3012244447376091,2.388604070830975,0.9296123961867336,3.568255376835329
0.32511048544591886,2.4683935559658257,0.9652949499550869,3.3916326669653154
0.3497944210055771,2.5420357976621877,0.9992112766247401,3.2155994673988983
0.375214778982199,2.6094926155247844,1.031367271298729,3.0403752085524136
0.40130970513744685,2.6707856717562826,1.061771023384253,2.8661831220569045
0.42801756185500967,2.7259840530184576,1.090432854604822,2.6932566894634444
0.45527740238519426,2.775193748531414,1.1173654214994566,2.521843049067111
0.4830293398705084,2.818548531267466,1.1425838519901277,2.352204275202057
0.5112148251831831,2.8562018853047153,1.1661058947421483,2.184617246094723
0.5397768440362303,2.8883197330743147,1.1879520672030957,2.0193726496673294
0.5686600413669735,2.9150738032435046,1.208145793699769,1.8567735374465848
0.5978107793994085,2.9366355472228864,1.2267135290742348,1.6971337195163343
0.6271771348716374,2.953170564242481,1.2436848662693982,1.5407761930065744
0.6567088405140622,2.9648335359076956,1.2590926281994639,1.388031708494872
0.6863571758731392,2.9717637048632968,1.2729729452844125,1.2392374995034028
0.7160748129217721,2.974080961599645,1.2853653202794466,1.0947361277261092
0.7458156225377686,2.971882630465313,1.2963126815567076,0.9548743296740535
0.7755344488424217,2.965241071313177,1.3058614248534481,0.8200016894736426
0.8051868595555535,2.954202236137281,1.3140614417481846,0.6904689096990146
0.8347288819169263,2.9387853380652436,1.3209661308451748,0.5666254115066034
0.8641167352975787,2.9189837987754115,1.3266323849602408,0.448815973363782
0.8933065732853328,2.894767633593617,1.3311205446938787,0.337376122902987
0.922254249621269,2.866087403610369,1.3344943059229086,0.23262603899268228
0.9509151236573727,2.8328798033032987,1.3368205663128354,0.1348628110847057
0.9792439216904057,2.795074854153572,1.3381691944236824,0.04435104768330447
1.0071946702319414,2.752604537749853,1.3386127049005154,-0.038687973631195305
1.03472071560944,2.705412531488319,1.3382258251642034,-0.11408817554977216
1.0617748409243233,2.6534645220070283,1.3370849434087058,-0.18175086213374397
1.0883094861443936,2.5967583929694626,1.3352674347873683,-0.2416562533419329
1.1142770700740883,2.5353334508736736,1.332850872253949,-0.29387323381944747
1.139630404582825,2.4692778042186396,1.3299121399157545,-0.33856612095802274
1.1643231826250113,2.398733079499511,1.3265264787061744,-0.3759973703849086
1.1883105134200065,2.3238958554602442,1.3227665050023252,-0.4065254357001628
1.211549471974609,2.245015510694195,1.3187012506453235,-0.4305974603037975
1.233999627081551,2.1623885655334214,1.3143952760422855,-0.4487370374587213
1.255623512736885,2.0763499917866435,1.3099079056676983,-0.46152783468968517
1.2763870126547516,1.9872622917893257,1.3052926273208014,-0.46959433717433147
1.2962596355726448,1.8955033530093917,1.3005966839490581,-0.47358123906204774
1.3152146691027387,1.8014541362664105,1.2958608715584377,-0.4741330609635514
1.3332292104654027,1.7054871593894392,1.291119540948802,-0.4718754060955659
1.350284082059297,1.6079565287904867,1.2864007868878464,-0.46739893985802694
1.3663636473472018,1.50919000106737,1.281726797489266,-0.4612467653340848
1.3814555473578756,1.409483279245213,1.2771143298359253,-0.4539054494978189
1.3955503801503277,1.3090965067303415,1.2725752753409472,-0.44579959460814556
1.4086413452176312,1.2082527422590357,1.2681172793948656,-0.43728958344946095
1.4207238726402216,1.107138089122537,1.263744383560371,-0.4286719667311346
1.4317952535314469,1.0059031059821852,1.2594576638930597,-0.42018189683187224
1.4418542845912687,0.9046651307961461,1.255255844924741,-0.4119970231188555
1.4509009358992302,0.8035111871690197,1.2511358746935526,-0.4042423253250981
