th1 (rad),w1 (rad/s),th2 (rad),w2 (rad/s),a1 (rad/s^2),a2 (rad/s^2)
3.3264988280922836,-1.777208098468142,2.3066917696458824,2.64697615539081,0.01627237158503488,-4.581535456224267
3.308726747107602,-1.7770453747522916,2.3331615311997904,2.601160800828567,0.0984715723193697,-4.527824623035549
3.2909562933600793,-1.776060659029098,2.359173139208076,2.555882554598212,0.17243923065366942,-4.479836388060587
3.2731956867697884,-1.7743362667225613,2.384731964754058,2.511084190717606,0.23766269340010301,-4.435584542958642
3.255452324102563,-1.7719596397885602,2.409842806661234,2.4667283452880198,0.29344240294452173,-4.392943976480679
3.2377327277046772,-1.7690252157591149,2.4345100901141143,2.422798905523213,0.338896830427164,-4.349643737519897
3.220042475547086,-1.7656362474548433,2.4587380791693465,2.379302468148014,0.372973018278972,-4.303269312936388
3.2023861130725377,-1.7619065172720536,2.4825311038508264,2.3362697750186503,0.39446426251124617,-4.251276254992981
3.1847670478998173,-1.7579618746469412,2.505893801601013,2.2937570124687205,0.4020363768232632,-4.191017180791661
3.1671874291533477,-1.7539415108787086,2.5288313717257003,2.251846840660804,0.39426372413769367,-4.1197838198019925
3.1496480140445606,-1.7499988736373318,2.5513498401323083,2.2106490024627843,0.36967575018182935,-4.034865164325737
3.1321480253081875,-1.7463021161355134,2.573456330156936,2.170300350819527,0.3268141013422813,-3.9336218682761896
3.1146850041468324,-1.7430339751220907,2.5951593336651313,2.130964132136765,0.264299576871506,-3.813575869267136
3.0972546643956114,-1.7403909793533756,2.616468974986499,2.092828373444094,0.1809072094412142,-3.672512853872509
3.0798507546020777,-1.7385819072589634,2.6373972587209398,2.0561032449053687,0.0756467773952448,-3.5085937705510664
3.062464935529488,-1.737825439485011,2.6579582911699933,2.021017307199858,-0.05215485952795281,-3.3204702792572043
3.045086681134638,-1.7383469880802904,2.678168464241992,1.987812604407286,-0.2027739222177395,-3.1073979813356245
3.027703211253835,-1.740374727302468,2.6980465902860646,1.9567386245939296,-0.3760171067353327,-2.8693406433984827
3.0102994639808105,-1.7441348983698213,2.7176139765320038,1.9280452181599448,-0.5711610031269808,-2.6070584998343485
2.9928581149971123,-1.749846508401091,2.7368944287136032,1.9019746331616012,-0.7869080342310724,-2.3221740908346122
2.975359649913101,-1.7577155887434017,2.7559141750452194,1.878752892253255,-1.0213628270218622,-2.017209878984431
2.9577824940256674,-1.7679292170136203,2.774701703967752,1.8585807934634107,-1.2720321683114426,-1.695592937545229
2.940103201855531,-1.7806495386967347,2.793287511902386,1.8416248640879584,-1.5358508752943836,-1.3616231556592984
2.922296706468564,-1.7960080474496785,2.8117037605432658,1.8280086325313654,-1.8092351081293727,-1.0204025499723457
2.904336625994067,-1.8141003985309723,2.8299838468685796,1.8178046070316418,-2.0881638667538582,-0.677724407500266
2.8861956220087572,-1.8349820371985108,2.848161892938896,1.8110273629566391,-2.3682885507810894,-0.33992224513088715
2.867845801636772,-1.8586649227063217,2.866272166568462,1.8076281405053303,-2.6450693425743346,-0.013680203792327216
2.849259152409709,-1.885115616132065,2.8843484479735153,1.807491338467407,-2.9139355986003985,0.2941912197868026
2.8304079962483883,-1.914254972118069,2.9024233613581893,1.810433250665275,-3.170465268528678,0.577007077069132
2.811265446527208,-1.945959624803356,2.920527693864842,1.8162033214359663,-3.410575640294397,0.828476570584115
2.7918058502791743,-1.9800653812062998,2.9386897270792014,1.8244880871418074,-3.6307147190091023,1.0429731294750202
2.772005196467111,-2.0163725283963907,2.9569346079506196,1.8349178184365575,-3.8280398467052006,1.2157868546438866
2.7518414711831474,-2.054652926863443,2.9752837861349852,1.8470756869829965,-4.000568513695529,1.3433378358529793
2.7312949419145127,-2.0946586120003983,2.9937545430048154,1.8605090653415264,-4.147286472445968,1.4233290241730527
2.7103483557945087,-2.136131476724858,3.012359633658231,1.874742355583257,-4.2682007766576975,1.4548208594691718
2.6889870410272603,-2.178813484491435,3.0311070572140633,1.8892905641779487,-4.364330284102132,1.438216781213853
2.667198906182346,-2.2224567873324563,3.0499999628558427,1.9036727319900872,-4.437632913298699,1.3751582910541889
2.6449743383090216,-2.266833116465443,3.0690366901757438,1.9174243149006291,-4.490876397491189,1.2683387860669173
2.6223060071443673,-2.311741880440355,3.08821093332475,1.9301077027612983,-4.527465999252644,1.1212549136567314
2.5991885883399637,-2.3570165404328813,3.1075120103523632,1.9413202518978656,-4.5512472962305885,0.9379208175482956
2.575618422935635,-2.402529013395187,3.126925212871342,1.9506994600733485,-4.566303867028655,0.7225731351903087
2.551593132801683,-2.448192052065474,3.1464322074720754,1.9579251914252516,-4.576768352035849,0.4793927609245089
2.5271112122810284,-2.4939597355858325,3.1660114593863278,1.9627191190344966,-4.586661495196076,0.21226398900829727
2.50217161492517,-2.539826350537793,3.185638650576673,1.9648417589245795,-4.599768422931902,-0.07541584833820045
2.476773351419792,-2.585824034767112,3.205287068165919,1.9640876004411976,-4.619555758862193,-0.380871075325341
2.450915111072121,-2.632019592355734,3.224927944170331,1.9602788896879442,-4.649128206365756,-0.7020285017268227
2.4245949151485635,-2.6785108744193913,3.24453073306721,1.953258604670676,-4.691219584951581,-1.0375513031099188
2.3978098064043696,-2.7254230702689073,3.264063319113917,1.9428830916395767,-4.7482111953700965,-1.386835812157578
2.3705555757016805,-2.7729051822226083,3.2834921500303125,1.929014733518001,-4.822169685945276,-1.7499820241834119
2.3428265238794546,-2.821126879082061,3.3027822973654923,1.9115149132761668,-4.9148969650017085,-2.1277480234956068
2.314615255088634,-2.870275848732078,3.321897446498254,1.8902374330412108,-5.027985746716015,-2.521496961428526
2.285912496601313,-2.920555706199238,3.340799820828666,1.8650224634269257,-5.162875656310127,-2.9331431771438177
2.256706939539321,-2.972184462762339,3.3594500454629355,1.8356910316554875,-5.320906167846615,-3.365101940769983
2.2269850949116976,-3.0253935244408052,3.3778069557794903,1.8020400122477878,-5.503363818441658,-3.820245361795378
2.1967311596672894,-3.080427162625222,3.395827355901968,1.763837558629834,-5.711522041571986,-4.301865360641557
2.165926888041037,-3.137542383040942,3.4134657314882664,1.7208189050234184,-5.946672561624396,-4.813643267796223
2.1345514642106274,-3.197009108657186,3.4306739205385006,1.672682472345456,-6.210147606358073,-5.359624551186426
2.1025813731240555,-3.2591105847207666,3.4474007452619553,1.6190862268335917,-6.503332259318899,-5.944196305952009
2.069990267276848,-3.324143907313956,3.463591607530291,1.5596442637740715,-6.827666133392039,-6.572064389845002
2.0367488282037085,-3.3924205686478763,3.4791880501680317,1.4939236198756214,-7.184633241943635,-7.248226376267938
2.0028246225172297,-3.4642669010673126,3.494127286366788,1.421441356112942,-7.57573851483993,-7.977935764699567
1.9681819535065566,-3.540024286215712,3.508341699927917,1.3416619984659464,-8.002468891515733,-8.766652096001069
1.9327817106443994,-3.620048975130869,3.5217583199125766,1.2539954775059357,-8.466236364776584,-9.619970757342378
1.8965812208930908,-3.704711338778635,3.534298274687636,1.1577957699325119,-8.968299801467309,-10.54352535461198
1.8595341075053045,-3.794394336793308,3.545876232386961,1.052360516386392,-9.509661905219836,-11.542854654125064
1.8215901641373713,-3.889490955845506,3.556399837550825,0.9369319698451414,-10.090937420450718,-12.623225389237946
1.7826952545789163,-3.9904003300500133,3.5657691572492762,0.8106997159527619,-10.712188757960256,-13.789401912788334
1.7427912512784163,-4.097522217629616,3.573876154408804,0.6728056968248786,-11.372725857067676,-15.045354076471646
1.70181602910212,-4.211249476200293,3.5806042113770524,0.522352156060162,-12.07086855102513,-16.393896272053116
1.6597035343401172,-4.331958161710545,3.585827732937654,0.3584131933396309,-12.803672284213219,-17.836253828915982
1.6163839527230117,-4.4599948845526765,3.5894118648710505,0.18005065505047108,-13.566622071940277,-19.37155856043123
1.5717840038774848,-4.595661105272079,3.5912123714215554,-0.013664930553841215,-14.353305379549205,-20.996283815275923
1.525827392824764,-4.739194159067571,3.5910757221160168,-0.22362776870660045,-15.155082250143135,-22.703641378923294
1.4784354512340885,-4.890744981569003,3.5888394444289506,-0.4506641824958334,-15.9607803273562,-24.482978019831165
1.4295280014183984,-5.0503527848425644,3.5843328026039925,-0.6954939626941451,-16.75645266397456,-26.31922764254696
1.3790244735699728,-5.21791731148231,3.577377862977051,-0.9586862391196147,-17.525245891824532,-28.192493976829244
1.3268453004551497,-5.393169770400555,3.5677910005858546,-1.240611178887907,-18.247433079079187,-30.077855065388047
1.272913602751144,-5.575644101191347,3.5553848887969757,-1.5413897295417875,-18.9006662270721,-31.945489494859093
1.2171571617392305,-5.764650763462068,3.5399709915015576,-1.8608446244903785,-19.460494285704332,-33.76121919749861
1.1595106541046099,-5.959255706319111,3.521362545256654,-2.1984568164653644,-19.90117075157994,-35.487538687081596
1.0999180970414186,-6.158267413834911,3.499377977092,-2.5533322033361805,-20.19673921002505,-37.08515189975679
1.0383354229030695,-6.360234805935161,3.473844655058638,-2.9241837223337486,-20.322337862767874,-38.51496624955268
0.9747330748437179,-6.56345818456284,3.4446028178353005,-3.309333384829275,-20.25561189857943,-39.7404069162043
0.9090984929980894,-6.766014303548634,3.411509483987008,-3.7067374539913183,-19.97807654685769,-40.72982819855103
0.841438349962603,-6.9657950690172115,3.3744421094470947,-4.114035735976828,-19.476247038106987,-41.45873384819795
0.7717803992724309,-7.160557539398281,3.3333017520873263,-4.528623074458808,-18.74235603183992,-41.91149560783697
0.7001748238784481,-7.347981099716681,3.288015521342738,-4.947738030537177,-17.774519658838578,-42.0822925621243
0.6266950128812813,-7.525726296305066,3.2385381410373664,-5.36856095615842,-16.57628591415755,-41.975083735662174
0.5514377499182306,-7.691489155446642,3.1848525314757823,-5.788311793515042,-15.155589865201508,-41.60255725627778
0.4745228583637642,-7.843045054098657,3.126969413540632,-6.20433736607782,-13.523229372828393,-40.984143875556676
0.3960924078227776,-7.978277347826941,3.0649260398798535,-6.614178804833387,-11.691043897227416,-40.1433099044081
0.3163096343445082,-8.095187786799215,2.9987842518315198,-7.015611903877469,-9.670015830020445,-39.10443083444662
0.23535775647651605,-8.19188794509942,2.928628132792745,-7.406656212221935,-7.468517743317802,-37.88958257157749
0.15343887702552184,-8.266573122532598,2.854561570670526,-7.78555203793771,-5.09090892861298,-36.515578667170985
0.07077314580019585,-8.317482211818728,2.776706050291149,-8.15070782460942,-2.5366548626935064,-34.99154697676452
-0.012401676317991425,-8.342848760445664,2.6951989720450547,-8.500623294377064,0.19988287565666465,-33.31729895822449
-0.09583016392244806,-8.340849931689098,2.610192739101284,-8.833796283959309,3.128854392039778,-31.482715377957884
-0.17923866323933904,-8.3095613877687,2.5218547762616907,-9.148623437738888,6.263403749847777,-29.468357888687684
-0.26233427711702606,-8.246927350270221,2.430368541884302,-9.443307016625765,9.617119027908915,-27.247505804034944
-0.3448035506197283,-8.150756159991133,2.3359354717180443,-9.715782074666114,13.20039320080071,-24.789784587721552
-0.42631111221963963,-8.018752227983125,2.2387776509713833,-9.96367992054333,17.015753204085364,-22.066457739219143
-0.5064986344994709,-7.848594695942271,2.13914085176595,-10.184344497935522,21.052421300390407,-19.057254307396004
-0.5849845814588935,-7.638070482938367,2.0372974067865948,-10.374917041009482,25.280679843631887,-15.758272461342917
-0.6613652862882772,-7.385263684502049,1.9335482363765,-10.53249976562291,29.64698275945558,-12.190049983363668
-0.7352179231332977,-7.088793856907493,1.8282232387202708,-10.654400265456546,34.07109558399414,-8.404412352406261
-0.8061058617023726,-6.748082901067552,1.7216792360657054,-10.738444388980609,38.44668575355845,-4.488372346237629
-0.8735866907130482,-6.363616043531968,1.6142947921758992,-10.783328112442986,42.64653480019815,-0.5633936851169562
-0.9372228511483679,-5.937150695529986,1.5064615110514694,-10.788962049294156,46.53277962308459,3.221057976639665
-0.9965943581036678,-5.4718228992991405,1.3985718905585278,-10.75675146952776,49.971373322138646,6.699547707083648
-1.0513125870966593,-4.972109166077754,1.2910043758632501,-10.689755992456924,52.84860924907254,9.706620294916501
-1.1010336787574369,-4.443623073587029,1.184106815938681,-10.592689789507759,55.08659279525218,12.09365220240664
-1.1454699094933072,-3.8927571456345067,1.0781799180436034,-10.471753267483692,56.654461015626964,13.743017979479903
-1.1843974809496522,-3.326212535478237,0.9734623853687664,-10.334323087688892,57.57311116496339,14.576499047863123
-1.2176596063044347,-2.750481423828603,0.8701191544918775,-10.188558097210262,57.91291004776148,14.556317186060364
-1.2451644205427208,-2.1713523233509884,0.7682335735197748,-10.042994925349658,57.78567557617088,13.678991169950182
-1.2668779437762308,-1.5934955675892795,0.6678036242662783,-9.906205013650156,57.333495314045564,11.963696438080545
-1.2828128994521235,-1.0201606144488238,0.5687415741297767,-9.78656804926935,56.71732685684319,9.437488835998389
-1.2930145055966118,-0.4529873458803919,0.47087589363708315,-9.692193160909367,56.10787864870854,6.119577832439332
-1.2975443790554158,0.10809144060669351,0.3739539620279895,-9.630997382584974,55.680339112879054,2.0060956383640387
-1.296463464649349,0.664894831735484,0.27764398820213976,-9.610936426201334,55.61346250156348,-2.9440279975252275
-1.289814516331994,1.2210294567511188,0.18153462394012643,-9.640376706176587,56.09245290788081,-8.82187733598288
-1.277604221764483,1.7819539858299271,0.08513085687836056,-9.728595479536416,57.31366949202216,-15.779056367402607
-1.2597846819061838,2.355090680750149,-0.012155097917003616,-9.886386043210443,59.48618064499969,-24.031303927469256
-1.2362337750986823,2.9499524872001457,-0.11101895834910805,-10.126699082485136,62.81738937542826,-33.839991553418706
-1.206734250226681,3.578126380954428,-0.2122859491739594,-10.465098998019323,67.44915074215037,-45.42742530081584
-1.1709529864171366,4.252617888375932,-0.31693693915415266,-10.919373251027482,73.25755163240564,-58.70763468353257
-1.1284268075333772,4.985193404699988,-0.4261306716644275,-11.506449597862808,79.30794311514734,-72.54355111906433
-1.0785748734863774,5.778272835851461,-0.5411951676430555,-12.23188510905345,82.5705487975086,-82.97499562780854
-1.0207921451278628,6.6039783238265475,-0.6635140187335901,-13.061635065331537,75.74526154140014,-80.1788172150635
-0.9547523618895972,7.361430939240549,-0.7941303693869054,-13.863423237482172,47.183520126725405,-48.253114789834775
-0.8811380524971917,7.833266140507803,-0.9327646017617272,-14.34595438538052,-6.506082233189582,17.535857452698572
-0.8028053910921137,7.768205318175907,-1.0762241456155324,-14.170595810853534,-59.76132886326551,82.46172982988651
-0.7251233379103547,7.1705920295432515,-1.2179301037240677,-13.34597851255467,-82.36483742224048,106.08589537000982
-0.6534174176149221,6.346943655320847,-1.3513898888496145,-12.285119558854571,-79.4340557822748,96.31215434824179
-0.5899479810617136,5.552603097498099,-1.4742410844381602,-11.321998015372154,-68.53922063270316,77.04408267884106
-0.5344219500867327,4.867210891171068,-1.5874610645918816,-10.551557188583743,-58.00282832835993,59.090887681247956
-0.48574984117502196,4.287182607887468,-1.692976636477719,-9.960648311771264,-49.71682166640447,44.585377614257006
-0.44287801509614727,3.790014391223423,-1.7925831195954316,-9.514794535628694,-43.59730528626012,33.135169941040814
-0.40497787118391304,3.354041338360822,-1.8877310649517185,-9.183442836218285,-39.19689045587809,23.964493432447483
-0.3714374578003048,2.962072433802041,-1.9795654933139013,-8.943797901893811,-36.10464420180081,16.412810267980067
-0.34181673346228436,2.601025991784033,-2.0690034723328394,-8.77966979921401,-34.007633191532385,9.99467585327157
-0.315806473544444,2.260949659868709,-2.1568001703249795,-8.679723040681296,-32.6752141619303,4.36964470313926
-0.2931969769457569,1.9341975182494062,-2.2435974007317925,-8.636026593649904,-31.931932936347096,-0.6932956893987314
-0.27385500176326283,1.6148781888859354,-2.3299576666682915,-8.64295955054389,-31.632814067735477,-5.340291190245672
-0.25770621987440345,1.2985500482085806,-2.4163872621737306,-8.696362462446347,-31.642112345592974,-9.645407982783409
-0.24472071939231765,0.9821289247526508,-2.503350886798194,-8.792816542274181,-31.814205368961108,-13.613786809754393
-0.23489943014479114,0.6639868710630397,-2.591279052220936,-8.928954410371725,-31.975754550062323,-17.177813218151453
-0.22825956143416073,0.3442293255624164,-2.6805685963246533,-9.10073254255324,-31.90989307455892,-20.18988059995707
-0.22481726817853656,0.025130394816827217,-2.771575921750186,-9.302631348552811,-31.345875152627514,-22.417617650865026
-0.2245659642303683,-0.28832835670944795,-2.864602235235714,-9.52680752506146,-29.96126876857486,-23.55120142113637
-0.22744924779746276,-0.5879410443951966,-2.9598703104863286,-9.762319539272825,-27.407321680309774,-23.23624705578969
-0.23332865824141472,-0.8620142611982944,-3.057493505879057,-9.994682009830722,-23.368350664998765,-21.145770713118246
-0.24194880085339765,-1.095697767848282,-3.157440325977364,-10.206139716961905,-17.65733124769526,-17.094075221008932
-0.25290577853188045,-1.2722710803252346,-3.259501723146983,-10.377080469171995,-10.32796187162556,-11.168976545961119
-0.2656284893351328,-1.3755506990414903,-3.363272527838703,-10.488770234631605,-1.7543074293955105,-3.8241965967705505
-0.27938399632554767,-1.3930937733354454,-3.4681602301850187,-10.52701220059931,7.383674347566914,4.140140787107443
-0.29331493405890213,-1.3192570298597763,-3.573430352191012,-10.485610792728236,16.238506072454832,11.740941222340322
-0.3065075043574999,-1.156871969135228,-3.6782864601182945,-10.368201380504834,24.01492746173421,18.06543547750545
-0.31807622404885216,-0.9167226945178859,-3.781968473923343,-10.18754702572978,30.17037156762883,22.495226643309987
-0.327243450994031,-0.6150189788415976,-3.8838439441806405,-9.96259475929668,34.5074060223454,24.801375372008035
-0.333393640782447,-0.2699449186181436,-3.9834698917736073,-9.7145810055766,37.1407063530984,25.09655836976882
-0.3360930899686284,0.10146214491284039,-4.080615701829373,-9.463615421878911,38.38739426260363,23.704583931797337
-0.3350784685195,0.4853360875388767,-4.175251856048162,-9.226569582560938,38.646384204662304,21.02226460921658
-0.3302251076441112,0.8717999295854997,-4.267517551873771,-9.016346936468771,38.308995924506554,17.419001669975646
-0.32150710834825624,1.2548898888305653,-4.357681021238459,-8.842156919769016,37.71181124176554,13.18361550738993
-0.30895820945995056,1.6320080012482208,-4.4461025904361495,-8.710320764695117,37.12359716673712,8.507333935693426
-0.29263812944746836,2.003243972915592,-4.533205798083101,-8.625247425338182,36.75283068902103,3.4868719820344363
-0.27260568971831245,2.370772279805802,-4.619458272336482,-8.590378705517837,36.76476083533321,-1.8653613654068244
-0.24889796692025443,2.738419888159134,-4.7053620593916605,-8.609032319171906,37.30137758815141,-7.6119766256895245
-0.22151376803866307,3.111433664040648,-4.79145238258338,-8.6851520854288,38.50132118214062,-13.886349908666704
-0.1903994313982566,3.4964468758620546,-4.878303903437668,-8.824015584515468,40.518842225645834,-20.894914807422264
-0.15543496263963605,3.9016352981185127,-4.966544059282822,-9.03296473258969,43.541159102084485,-28.9252357793959
-0.11641860965845091,4.337046889139358,-5.056873706608719,-9.32221709038365,47.800907391830485,-38.35465107151334
