th1 (rad),w1 (rad/s),th2 (rad),w2 (rad/s),a1 (rad/s^2),a2 (rad/s^2)
0.5894103403067505,-0.224865605178738,3.0589586135321287,2.2460166470893848,-6.062207145449197,-5.584356334784916
0.5871616842549632,-0.28548767663322994,3.0814187800030224,2.1901730837415356,-6.214722546871997,-5.59594323385484
0.5843068074886308,-0.3476349021019499,3.1033205108404376,2.134213651402987,-6.356182674125747,-5.609065442362314
0.5808304584676114,-0.4111967288432074,3.1246626473544676,2.078122996979364,-6.4858899635258584,-5.622288867602143
0.5767184911791793,-0.476055628478466,3.1454438773242615,2.0219001083033428,-6.602977817788672,-5.633914961272398
0.5719579348943946,-0.5420854066563527,3.1656628784072947,1.9655609586906189,-6.70640152258825,-5.6419634557073195
0.566537080827831,-0.6091494218822352,3.1853184879942007,1.9091413241335458,-6.794932542563895,-5.6441597156387076
0.5604455866090087,-0.6770987473078741,3.204409901235536,1.8526997269771588,-6.867157294061574,-5.637928396263162
0.55367459913593,-0.7457703202484899,3.2229368985053077,1.7963204430145272,-6.9214816081110015,-5.620395323790594
0.5462168959334451,-0.8149851363295999,3.240900102935453,1.7401164897766213,-6.956142172702276,-5.588399683228988
0.5380670445701491,-0.8845465580566226,3.258301267833219,1.6842324929443313,-6.969226257028609,-5.538518675036991
0.5292215789895829,-0.9542388206269087,3.2751435927626624,1.6288473061939615,-6.9587009489093825,-5.467106748328198
0.5196791907833138,-1.0238258301160026,3.291432065824602,1.5741762387106795,-6.922452957257168,-5.370351293176386
0.5094409324821538,-1.0930503596885743,3.307173828211709,1.5204727257789157,-6.858339724457298,-5.244346241079463
0.4985104288852681,-1.1616337569331474,3.3223785554694985,1.4680292633681211,-6.764252145734329,-5.085184352553675
0.48689409131593664,-1.2292762783904907,3.3370588481031795,1.4171774198425844,-6.6381886012123,-4.889068051439086
0.47460132853203174,-1.2956581644026137,3.3512306223016055,1.3682867393281934,-6.478339282578935,-4.65243750627387
0.4616447468880056,-1.360441557228403,3.3649134896948873,1.3217623642654548,-6.2831789676731615,-4.372113297279164
0.4480403313157216,-1.4232733469051346,3.378131113337542,1.2780412312926632,-6.051565507933793,-4.045449511338397
0.4338075978466702,-1.4837890019844726,3.3909115256504685,1.2375867361792792,-5.782840406440172,-3.6704915758212286
0.4189697078268255,-1.5416174060488743,3.403287393012261,1.200881820421067,-5.476927051247111,-3.24613170025781
0.4035535337663368,-1.5963866765613455,3.415296211216472,1.168420503418489,-5.13442150876972,-2.772253584898445
0.38758966700072334,-1.6477308916490427,3.426980416250657,1.1406979675695044,-4.756670352396167,-2.249857223856221
0.37111235808423293,-1.6952975951730045,3.4383873959263522,1.1181993953309421,-4.3458298703537075,-1.681154314675081
0.35415938213250286,-1.7387558938765415,3.4495693898796618,1.1013878521841913,-3.9049012165642383,-1.0696250983254778
0.33677182319373744,-1.7778049060421839,3.460583268401504,1.0906916012009364,-3.437736671402982,-0.4200284695226052
0.3189937741333156,-1.8121822727562138,3.471490184413513,1.0864913165057104,-2.9490131767490877,0.26164105373103735
0.30087195140575346,-1.8416724045237047,3.48235509757857,1.0891077270430207,-2.444170690011941,0.9682534539519523
0.2824552273605164,-1.8661141114238242,3.4932461748490002,1.0987902615825402,-1.929314630381826,1.6917012971804561
0.2637940862462782,-1.8854072577276424,3.5042340774648255,1.1157072745543448,-1.4110837071353537,2.4231130691593714
0.24494001366900178,-1.899518094798996,3.5153911502103687,1.1399384052459385,-0.8964866333142323,3.153115209762666
0.22594483272101182,-1.9084829611321383,3.5267905342628283,1.1714695573435652,-0.39271351009559724,3.872132438725863
0.20686000310969044,-1.9124100962330943,3.538505229836264,1.2101908817308238,0.09307015220855289,4.570712443917563
0.1877359021473595,-1.9114793947110087,3.5506071386535725,1.2558980061699994,0.5539369396804356,5.239858185508797
0.16862110820024942,-1.9059400253142043,3.5631661187152726,1.3082965880250874,0.9834074003890609,5.8713493331680615
0.14956170794710738,-1.8961059513103136,3.5762490845955233,1.367010081356768,1.3756445403618176,6.45803402651489
0.13060064843400424,-1.8823495059066955,3.589919185409091,1.4315904216219169,1.725621600385973,6.99407344382986
0.11177715337493728,-1.8650932899028358,3.60423508962531,1.5015311560602154,2.029253170633293,7.475124614533672
0.09312622047590892,-1.844800758196503,3.619250401185912,1.5762824022055522,2.2834820847923867,7.898451330877136
0.07467821289394388,-1.821965937348579,3.6350132252079677,1.6552669155143236,2.486317702693297,8.262958492702065
0.056458553520458095,-1.797102760321646,3.651565894363111,1.7378965004413442,2.6368248121225775,8.56915116400704
0.03848752591724164,-1.7707345122004203,3.6689448593675245,1.8235880120814147,2.73506604213824,8.819025346087342
0.020780180795237434,-1.7433838517790379,3.6871807394883387,1.9117782655422881,2.782003950329228,9.015902315697193
0.0033463422774470536,-1.7155638122757455,3.7062985221437614,2.00193728869926,2.779371453199245,9.16422181160027
-0.0138092958453104,-1.687770097743753,3.726317895030754,2.0935795068152627,2.7295207638606396,9.269311077093203
-0.030686996822747933,-1.6604748901051467,3.7472536900989066,2.186272617586195,2.6352613962156366,9.337146740913644
-0.047291745723799405,-1.6341222761429903,3.769116416274769,2.2796440849953314,2.4996971630759046,9.374124952615889
-0.06363296848522931,-1.6091253045122313,3.7919128571247223,2.3733853345214904,2.326070641519974,9.38685247345376
-0.07972422153035164,-1.5858645980970316,3.815646710469937,2.467253859256028,2.1176215857144984,9.381968047351808
-0.09558286751132195,-1.5646883822398867,3.8403192490624973,2.5610735397295463,1.8774635398693689,9.365999828488292
-0.11122975133372082,-1.545913746841193,3.8659299844597927,2.6547335380144292,1.608480716262053,9.345261339513536
-0.12668888880213275,-1.5298289396785725,3.892477319839937,2.7481861514095645,1.31324526473853,9.32578567582563
-0.14198717819891848,-1.5166964870311872,3.9199591813540327,2.8414440081678207,0.9939534999197549,9.313295621362084
-0.15715414306923037,-1.5067569520319897,3.948373621435711,2.9345769643814417,0.6523785215131305,9.313206042428487
-0.17222171258955027,-1.5002331668168585,3.9777193910795257,3.0277090248057266,0.2898359488122977,9.330654325975985
-0.18722404425771885,-1.4973348073287356,4.007996481327583,3.1210155680654865,-0.09284086362778117,9.37055461477251
-0.2021973923310062,-1.4982632159650133,4.039206637008237,3.2147211142132117,-0.49531983459301043,9.437672023016948
-0.21718002449065632,-1.5032164143109434,4.07135384815037,3.309097834443381,-0.9177869675990111,9.536713747406157
-0.23221218863376575,-1.5123942839869335,4.104444826494803,3.4044649719174425,-1.3609642886485152,9.672434886990647
-0.2473361314736351,-1.5260039268734187,4.1384894762139774,3.501189320787349,-1.8261319004730907,9.849757732492376
-0.2625961707423693,-1.5442652458781496,4.173501369421851,3.5996868981122727,-2.31515674932772,10.073904173976858
-0.2780388232011508,-1.5674168133714268,4.209498238402974,3.700425939852041,-2.8305302210069865,10.350541589620713
-0.29371299133486506,-1.5957221155814967,4.246502497801494,3.803931355748248,-3.375416032741249,10.685942964883605
-0.30967021249068005,-1.6294762759089092,4.284541811358976,3.9107907853970842,-3.953708889718871,11.087161808930905
-0.32596497524976914,-1.6690133648060979,4.3236497192129475,4.021662403486394,-4.570102702752936,11.56222126722859
-0.34265510889783013,-1.7147143918336272,4.363866343247811,4.13728461615868,-5.2301642390014,12.120313937924145
-0.3598022528161664,-1.7670160342236412,4.405239189409398,4.258487755537922,-5.940402888343787,12.77200297019865
-0.3774724131584028,-1.826420063107079,4.4478240669647775,4.386207785239908,-6.708318004123067,13.529403715113927
-0.3957366137894736,-1.8935032431483096,4.4916861448171765,4.5215018223910475,-7.54238892141119,14.406304357713877
-0.4146716462209567,-1.9689271323624216,4.536901163041087,4.665564865968186,-8.45194384922623,15.418146224964294
-0.4343609175445809,-2.053446570854684,4.583556811700769,4.819746328217829,-9.446792922143311,16.581716878340384
-0.4548953832531277,-2.147914500076117,4.631754274982947,4.985563497001233,-10.536421447899109,17.914289080441897
-0.4763745282538889,-2.2532787145551083,4.681609909952959,5.164706387805652,-11.728384160997711,19.431727744527848
-0.49890731539943994,-2.3705625561650856,4.733256973831016,5.35902366525093,-13.02527527900476,21.14472200637187
-0.5226129409610908,-2.5008153089551333,4.786847210483525,5.570470885314649,-14.419206071196275,23.05168618395157
-0.5476210940506421,-2.645007369667096,4.842551919336671,5.800987747154165,-15.882023994802136,25.12589823858662
-0.574071167747313,-2.8038276096151176,4.900561796808213,6.052246729540031,-17.34853470743059,27.29306640037645
-0.6021094438434642,-2.9773129566894236,4.961084264103613,6.325177393543796,-18.689025681283137,29.394105632085907
-0.6318825734103585,-3.164203213502255,5.024336038039051,6.619118449864655,-19.66774643288423,31.128242391201162
-0.6635246055453811,-3.3608806778310973,5.090527222537697,6.930400873776667,-19.889645584729617,31.979112636930267
-0.6971334123236921,-3.5597771336783937,5.159831231275464,7.25019200014597,-18.75751986935725,31.153651898582883
-0.732731183660476,-3.747352332371966,5.232333151276924,7.561728519131798,-15.507280853634521,27.626393214015767
-0.7702047069841956,-3.9024251409083113,5.307950436468242,7.8379924512719565,-9.447502860060682,20.462951512629598
-0.8092289583932788,-3.996900169508918,5.386330360980962,8.042621966398253,-0.49207204545601924,9.545643845895341
-0.849197960088368,-4.001820889963478,5.466756580644944,8.138078404857206,10.260501882744965,-3.638377894579655
-0.8892161689880028,-3.899215871136029,5.548137364693516,8.10169462591141,20.626563833190673,-16.1445036374114
-0.9282083276993631,-3.6929502328041224,5.62915431095263,7.940249589537296,28.487859454562145,-25.154087454498594
-0.9651378300274044,-3.408071638258501,5.708556806848002,7.68870871499231,32.99830733253815,-29.608855628105477
-0.9992185464099894,-3.078088564933119,5.785443893997925,7.392620158711255,34.64189631087404,-30.25228092669963
-1.0299994320593207,-2.731669601824379,5.859370095585038,7.0900973494442585,34.444523461174406,-28.52868888137216
-1.0573161280775645,-2.3872243672126348,5.93027106907948,6.804810460630537,33.31778510742201,-25.691351636536048
-1.0811883717496908,-2.0540465161384147,5.998319173685785,6.547896944265177,31.852637913564266,-22.537518956551832
-1.101728836911075,-1.735520137002772,6.063798143128437,6.322521754699658,30.36641435739053,-19.486324244592094
-1.1190840382811027,-1.4318559934288666,6.127023360675434,6.1276585122537375,29.0036256897495,-16.723430832061837
-1.1334025982153915,-1.1418197365313716,6.188299945797971,5.960424203933119,27.81457748186916,-14.310754534977674
-1.1448207955807053,-0.86367396171268,6.247904187837302,5.8173166585833425,26.802944710591238,-12.251582895956195
-1.153457535197832,-0.5956445146067676,6.306077354423135,5.69480082962378,25.951415271796506,-10.524933518869222
-1.1594139803438996,-0.3361303618888025,6.363025362719373,5.589551494435088,25.23460546994009,-9.102339600463573
-1.1627752839627876,-0.08378430718940161,6.418920877663724,5.498528098430452,24.625218095475084,-7.95543275584369
-1.1636131270346817,0.16246787376534924,6.473906158648028,5.4189737708720145,24.09679219607027,-7.05894346141531
-1.1619884482970282,0.4034357957260519,6.528095896356748,5.348384336257862,23.624804873343393,-6.391510593432447
-1.1579540903397676,0.6396838444594859,6.581579739719327,5.284469230323538,23.18701890876541,-5.935494980300157
-1.1515572518951727,0.87155403354714,6.634424432022563,5.225114280520536,22.763518706205037,-5.676379517228211
-1.1428417115597012,1.0991892206091904,6.686675574827768,5.168350485348254,22.33664677799616,-5.6020333723033735
-1.1318498193536093,1.322555688389152,6.73835907968125,5.112330151625221,21.890936495082425,-5.701969140061929
-1.1186242624697178,1.5414650533399763,6.7894823811975025,5.055310460224602,21.413078009467057,-5.9666512168798675
-1.103209611936318,1.7555958334346469,6.840035485799748,4.995643948055803,20.891924617789755,-6.386881473075031
-1.0856536536019714,1.9645150796125443,6.889991925280306,4.931775133325052,20.31853207775496,-6.953274465666401
-1.066008502805846,2.167700400390094,6.939309676613556,4.862242388668388,19.68621644358445,-7.6558288967675105
-1.044331498801945,2.3645625648259383,6.98793210050024,4.785684099700713,18.990613393947502,-8.483599728580987
-1.0206858731536856,2.5544686987654135,7.035788941497247,4.700848102414904,18.22972208975324,-9.424473862265557
-0.9951411861660315,2.736765919662946,7.082797422521397,4.6066033637922486,17.40391843574317,-10.465050501670515
-0.9677735269694021,2.9108051040203775,7.128863456159319,4.501952858775543,16.515925674507404,-11.590624945553959
-0.9386654759291984,3.0759643607654517,7.173882984747075,4.386046609320004,15.570734061146794,-12.785271698027735
-0.9079058323215439,3.2316717013769196,7.217743450840275,4.258193892339726,14.575465517168242,-14.0320197763152
-0.8755891153077747,3.377426356548602,7.260325389763672,4.117873694576574,13.539183230802525,-15.313110291975569
-0.8418148517422888,3.5128181888566274,7.301504126709438,3.964742591656819,12.472649811812069,-16.610324075160477
-0.8066866698537225,3.6375446869747483,7.341151552626006,3.798639350905214,11.388040595561286,-17.90536543762741
-0.770311222983975,3.751425092930361,7.379137946135058,3.6195856965289397,10.298620949879188,-19.180287092043802
-0.7327969720546714,3.8544113024291526,7.4153338031003475,3.4277828256085017,9.218398043468392,-20.417940589696745
-0.6942528590303799,3.9465952828638367,7.449611631356433,3.223603419711534,8.161758662580477,-21.60243618394027
-0.6547869062017415,4.028212869489641,7.481847665553548,3.0075790578721313,7.143105514117195,-22.719595610947177
-0.6145047775068451,4.099643924630813,7.51192345613227,2.7803831017626597,6.176505167723208,-23.757380898750057
-0.5735083382605369,4.161408976308045,7.539727287149897,2.542809292775159,5.2753613789872045,-24.706282173112566
-0.5318942484974565,4.214162590097917,7.565155380077648,2.2957464710440334,4.452127862763855,-25.559647910972984
-0.4897526225964773,4.258683868725556,7.588112844788089,2.0401499919343036,3.7180743940082017,-26.313942671046167
-0.44716578390922174,4.295864612665638,7.608514344707432,1.777010565223842,3.083119109313542,-26.968920413388574
-0.40420713778256534,4.326695803758773,7.6262844503596705,1.5073213610899563,2.5557378372829107,-27.527706285334517
-0.3609401797449776,4.352253182131602,7.64135766397057,1.232044298236611,2.142958130833992,-27.996786030362138
-0.31741764792366156,4.373682763439942,7.6536781069529365,0.9520764379329898,1.850441547389202,-28.385909403570526
-0.27368082028926216,4.392187178913834,7.663198871332266,0.6682173438972845,1.6826529459615835,-28.70792123532179
-0.22975894850012382,4.4090137083734495,7.669881044771239,0.38113813154406656,1.643110549753404,-28.978539915822736
-0.18566881141638933,4.425444813870984,7.67369242608668,0.09135273238583919,1.7347055788834467,-29.216106801952208
-0.14141436327767948,4.4427918696598185,7.674605953410538,-0.2008083356336829,1.9600753959873949,-29.441330026746027
-0.0969864445810813,4.462392623619692,7.672597870054201,-0.49522163590114315,2.322008733911193,-29.67704087729299
-0.052362518344884375,4.485612710958804,7.66764565369519,-0.791992044674073,2.8238541135950492,-29.947968133904823
-0.007506391235296332,4.513851252094755,7.659725733248449,-1.0914717260131213,3.4698898645338057,-30.280511864144746
0.037632121285651216,4.548550150740093,7.6488110159883185,-1.3942768446545688,4.265590497118506,-30.702456354094345
0.08311762279305215,4.591206055711278,7.634868247541773,-1.7013014081955122,5.217679399235427,-31.24248941743875
0.12902968335016493,4.643382849703632,7.617855233459817,-2.0137263023699,6.333774113096952,-31.929268783158
0.17546351184720124,4.7067205908346015,7.597717970436118,-2.33301899020148,7.621276710163495,-32.78955342751182
0.22253071775554725,4.782933357936236,7.574387780534104,-2.660914524476598,9.084885018335637,-33.84452545284155
0.2703600513349096,4.873782208119592,7.547778635289338,-2.9993597790050135,10.721615115472295,-35.10274749645296
0.3190978734161055,4.980998359274315,7.517785037499287,-3.350387253969543,12.51141064895934,-36.54706305216771
0.36890785700884865,5.106112465763908,7.484281164959592,-3.7158578844912205,14.40015863421603,-38.11099700671098
0.4199689816664877,5.250114052106068,7.44712258611468,-4.09696785455833,16.27035457654136,-39.63802033594878
0.4724701221875484,5.412817597871482,7.406152907569097,-4.493348057917818,17.893868324332352,-40.815957911898714
0.5265982981662632,5.591756281114805,7.361219426989918,-4.901507637036805,18.865367723387646,-41.084607847058514
0.5825158609774113,5.780409958348682,7.312204350619551,-5.31235371550739,18.534869507056257,-39.54260320527145
0.6403199605608981,5.965758653419244,7.259080813464477,-5.707779747560105,16.01230551906801,-34.95588287420364
0.6999775470950905,6.125881708609924,7.202003015988876,-6.057338576302142,10.405521982305752,-26.094117329447087
0.7612363641811898,6.2299369284329815,7.141429630225855,-6.318279749596613,1.4547510367582583,-12.622712980160657
0.8235357334655196,6.244484438800564,7.078246832729889,-6.44450687939822,-9.668493353324347,3.7784499950821617
0.8859805778535252,6.14779950526732,7.0138017639359065,-6.406722379447398,-20.3617773979612,19.42516227048875
0.9474585729061984,5.944181731287708,6.949734540141432,-6.212470756742511,-28.047750197628176,30.68469439837193
1.0069003902190754,5.663704229311426,6.887609832574007,-5.905623812758792,-31.786146410513282,36.24171121229767
1.0635374325121896,5.345842765206293,6.8285535944464195,-5.543206700635816,-32.30586891459157,37.135839416437335
1.1169958601642525,5.022784076060377,6.773121527440061,-5.171848306471443,-30.918635136038247,35.22812966778483
1.1672237009248563,4.713597724699995,6.7214030443753465,-4.8195670097935945,-28.700248882439276,32.04735486016391
1.2143596781718562,4.426595235875602,6.6732073742774105,-4.499093461191955,-26.294814666629314,28.51373954303295
1.2586256305306123,4.163647089209309,6.628216439665491,-4.213956065761626,-24.01718726009609,25.08253875178128
1.3002621014227054,3.9234752166083484,6.586076879007875,-3.963130678243813,-21.991727805387992,21.939043583527454
1.3394968535887888,3.7035579385544684,6.546445572225436,-3.7437402424085384,-20.247827678283254,19.133079730784324
1.3765324329743334,3.501079661771636,6.50900816980135,-3.5524094451006953,-18.77290173915281,16.65383932061849
1.4115432295920498,3.3133506443801077,6.473484075350344,-3.3858710518945103,-17.538774914860532,14.467325654299897
1.4446767360358508,3.137962895231502,6.439625364831398,-3.2411977953515114,-16.513849168200604,12.533772224763586
1.4760563649881657,2.972824403549496,6.407213386877883,-3.1158600731038755,-15.668231800746975,10.815114702742699
1.5057846090236606,2.8161420855420265,6.376054786146844,-3.0077089260764485,-14.975550245524111,9.277754062623416
1.5339460298790808,2.6663865830867852,6.34597769688608,-2.914931385450214,-14.413285343257515,7.893194083594837
1.5606098957099486,2.52225372965421,6.316828383031578,-2.8359994446142656,-13.962494867786164,6.637787697777025
1.5858324330064906,2.3826287809763484,6.288468388585436,-2.7696215676364955,-13.607329419427144,5.492165437188467
1.609658720816254,2.246555486782077,6.26077217290907,-2.714699913264611,-13.334517889607007,4.4406014522116415
1.6321242756840748,2.113210307886007,6.233625173776424,-2.6702938987424947,-13.132893986803499,3.4704223793541416
1.6532563787629349,1.9818813680179719,6.206922234788999,-2.635589674948953,-12.992986940115898,2.571494957491757
1.6730751924431146,1.8519514986168129,6.18056633803951,-2.6098747253740355,-12.906678426914661,1.7357975332384594
