th1 (rad),w1 (rad/s),th2 (rad),w2 (rad/s),a1 (rad/s^2),a2 (rad/s^2)
1.9265458496277967,-3.105206208521414,5.1965451780416485,-2.0475787910082506,-8.936271638697722,1.0457024001997957
1.8954937875425826,-3.194568924908391,5.176069390131566,-2.0371217670062527,-8.899072291699614,1.3657773392815669
1.8635480982934987,-3.283559647825387,5.155698172461504,-2.023463993613437,-8.830138938637825,1.7396043464071942
1.8307125018152448,-3.371861037211765,5.135463532525369,-2.006067950149365,-8.725588552262883,2.1730388817887265
1.7969938914431272,-3.459116922734394,5.115402853023876,-1.9843375613314775,-8.58163755122809,2.67170320888177
1.7624027222157832,-3.544933298246675,5.0955594774105615,-1.9576205292426598,-8.39473219324713,3.240774039803433
1.7269533892333164,-3.628880620179146,5.075983272118135,-1.9252127888446255,-8.161707766009235,3.8847298836611377
1.690664583031525,-3.710497697839238,5.056731144229689,-1.8863654900080142,-7.879977226140589,4.607059775965115
1.6535596060531326,-3.789297470100644,5.037867489329608,-1.840294892248363,-7.547747783345756,5.409939005182263
1.6156666313521262,-3.8647749479341016,5.0194645404071245,-1.7861955021965403,-7.164260915656344,6.293882639416222
1.5770188818727853,-3.936417557090665,5.001602585385159,-1.7232566758023782,-6.730047395391567,7.257394034945822
1.5376547063018786,-4.003718031044581,4.984370018627136,-1.6506827354529199,-6.247184209279681,8.296632771764683
1.4976175259914328,-4.066189873137378,4.967863191272606,-1.567716407735273,-5.719535091394207,9.405133952182489
1.456955627260059,-4.1233852240513205,4.952186027195253,-1.473665068213448,-5.152951358979901,10.573617432671801
1.4157217750195459,-4.174914737641119,4.937449376513118,-1.36792889388673,-4.555405771700571,11.789929815171837
1.3739726276431348,-4.220468795358125,4.923770087574251,-1.2500295957350116,-3.937030427923911,13.039162057056995
1.3317679396895534,-4.259839099637364,4.911269791616901,-1.1196379751644416,-3.3100316030186487,14.30397948884031
1.2891695486931798,-4.29293941566755,4.9000734118652565,-0.9765981802760385,-2.688461107268842,15.565187423184291
1.2462401545365043,-4.319824026740238,4.890307430062496,-0.8209463060441956,-2.0878358205489276,16.802534041650862
1.2030419142691018,-4.340702384945727,4.8820979670020535,-0.652920965627687,-1.5246141711163623,17.99572420159253
1.1596348904196445,-4.355948526656891,4.875568757345777,-0.47296372361176164,-1.0155587544835842,19.1255866390297
1.1160754051530757,-4.366104114201727,4.870839120109659,-0.28170785722146463,-0.5770349530090786,20.175308111752642
1.0724143640110584,-4.371874463731818,4.8680220415374444,-0.0799547761039382,-0.22431228670037875,21.131627758268525
1.0286956193737402,-4.374117586598822,4.8672224937764055,0.13136150147874706,0.029055780601769655,21.98587930621885
0.984954443507752,-4.373827028792804,4.868536108791193,0.3512202945409355,0.1716996825964625,22.73478140905918
0.9412161732198239,-4.372110031966839,4.872048311736602,0.5785681086315273,0.19468870613773392,23.38090717425809
0.8974950729001555,-4.370163144905462,4.877833992822917,0.8123771803741082,0.09153536856274118,23.93280841298109
0.8537934414511009,-4.369247791219834,4.885957764626658,1.051705264503919,-0.14206068899300467,24.404820401863383
0.8101009635389026,-4.370668398109764,4.896474817271698,1.295753468522553,-0.5087123331618634,24.81661976877124
0.7663942795578049,-4.375755521441382,4.909432351956923,1.5439196662102652,-1.010050811082484,25.192643505179213
0.7226367243433911,-4.385856029552207,4.924871548619025,1.7958461012620575,-1.6475907037922806,25.561496457973856
0.6787781640478691,-4.40233193659013,4.9428300096316455,2.051461065841796,-2.4237087342985864,25.955477668771334
0.6347548446819677,-4.426569023933116,4.963344620290063,2.3110158425295095,-3.342703756497963,26.410346110647787
0.5904891544426366,-4.459996061498095,4.986454778715358,2.5751193036359874,-4.411925276411363,26.96542931920961
0.5458891938276557,-4.504115314262209,5.012205971751718,2.8447735968280834,-5.642980977671568,27.66415945685833
0.5008480406850335,-4.560545124038924,5.040653707719999,3.121415191396667,-7.053054458535999,28.5551027956112
0.4552425894446443,-4.631075668624284,5.071867859633966,3.4069662193527788,-8.666374796429452,29.69352613423143
0.40893183275840145,-4.717739416588579,5.105937521827494,3.703901480695093,-10.515864889441456,31.143499928633435
0.36175443859251566,-4.822898065482994,5.142976536634445,4.0153364799814275,-12.64492371245212,32.98042857963005
0.3135254579376857,-4.9493473026075145,5.18312990143426,4.345140765777728,-15.1090951947053,35.29361972493289
0.26403198491161056,-5.100438254554567,5.226581309092037,4.698076963027057,-17.976873540994863,38.187818093957134
0.21302760236606488,-5.280206989964515,5.273562078722307,5.079955143966628,-21.32770006607076,41.78098828552119
0.16022553246641974,-5.493483990625223,5.324361630161973,5.49776502682184,-25.242427664303115,46.19178805929974
0.10529069256016751,-5.745908267268254,5.379339280430191,5.959682907414837,-29.775191697064166,51.50136743956767
0.04783160988748498,-6.043660184238895,5.438936109504339,6.474696581810514,-34.88170364611584,57.65471115618896
-0.012604991954903978,-6.392477220700053,5.503683075322444,7.051243693372404,-40.25107654131576,64.22769334445519
-0.07652976416190452,-6.7949879861132105,5.574195512256168,7.693520626816956,-44.94571686033652,69.92619227838412
-0.14447964402303662,-7.244445154716575,5.651130718524337,8.392782549600797,-46.753335469617106,71.682130662809
-0.21692409557020237,-7.711978509412747,5.735058544020345,9.109603856228887,-41.49669977065427,63.68809853861815
-0.29404388066432985,-8.12694550711929,5.8261545825826335,9.746484841615068,-23.945725397541885,38.67020560994275
-0.3753133357355227,-8.366402761094708,5.923619430998785,10.133186897714495,6.454170989799079,-4.107289846066734
-0.4589773633464698,-8.301861051196717,6.024951299975929,10.092113999253828,38.47672402316982,-48.94407426825229
-0.541995973858437,-7.917093810965018,6.125872439968467,9.602673256571304,57.05871464245386,-74.87517718676479
-0.6211669119680872,-7.346506664540479,6.22189917253418,8.853921484703656,59.9180546745548,-78.83272749758757
-0.6946319786134919,-6.747326117794931,6.310438387381217,8.06559420972778,54.51114865905257,-71.2648953251492
-0.7621052397914412,-6.202214631204406,6.391094329478495,7.352945256476289,47.02451476778657,-60.77975157539425
-0.8241273861034852,-5.73196948352654,6.464623782043258,6.745147740722347,40.05203414940945,-50.965949352525165
-0.8814470809387507,-5.3314491420324455,6.532075259450481,6.235488247197095,34.25670639802767,-42.73094843728586
-0.9347615723590751,-4.9888820780521685,6.5944301419224525,5.8081787628242365,29.61977607160144,-36.04084320855031
-0.9846503931395968,-4.6926843173361545,6.652511929550695,5.4477703307387335,25.950025402586586,-30.625857737986614
-1.0315772363129583,-4.433184063310288,6.7069896328580825,5.141511753358867,23.048073954175482,-26.206622708051718
-1.075909076946061,-4.202703323768533,6.758404750391671,4.87944552627835,20.748161877140962,-22.551172833821663
-1.1179361101837464,-3.9952217049971237,6.807199205654455,4.653933797940134,18.921858904246,-19.479706052941374
-1.1578883272337177,-3.8060031159546637,6.853738543633856,4.45913673741072,17.471914066721908,-16.856021432898316
-1.1959483583932644,-3.6312839752874444,6.898329911007964,4.290576523081737,16.324916493063064,-14.577520923632573
-1.2322611981461389,-3.468034810356814,6.941235676238781,4.144801313845411,15.425051878669228,-12.566871780770184
-1.2669415462497071,-3.313784291570122,6.982683689377235,4.019132596037709,14.729272099825355,-10.765736601908321
-1.3000793891654083,-3.166491570571868,7.022875015337612,3.9114752300186257,14.20366674473272,-9.130261386011705
-1.331744304871127,-3.024454903124541,7.061989767637798,3.8201726161585086,13.820744562553598,-7.627902968615424
-1.3619888539023726,-2.886247457499005,7.100191493799383,3.743893586472354,13.55737650913756,-6.2352311481867995
-1.3908513284773627,-2.7506736924076294,7.137630429664107,3.681541274990486,13.393218774575843,-4.936418975004426
-1.418358065401439,-2.6167415046618707,7.174445842414012,3.632177085240442,13.309495533729557,-3.722198644442779
-1.4445254804480576,-2.483646549324575,7.210767613266416,3.594955098796014,13.288071684202372,-2.5891039936840254
-1.4693619459413034,-2.3507658324825513,7.246717164254376,3.569064058859174,13.310786022825377,-1.5388473334374828
-1.492869604266129,-2.2176579722542975,7.2824078048429675,3.553675585524799,13.359045958729476,-0.5776948156533341
-1.515046183988672,-2.0840675126670027,7.317944560698216,3.5478986373682657,13.413705268019525,0.28428152795366185
-1.535886859115342,-1.9499304599868075,7.353423547071898,3.5507414526478023,13.455254095188788,1.034177206933262
-1.5553861637152102,-1.8153779190349195,7.388930961598376,3.5610832247171347,13.464341845380758,1.6575226661242701
-1.5735399429055594,-1.6807345005811118,7.424541793845548,3.5776584513783773,13.422625747870667,2.1398597120728153
-1.5903472879113705,-1.546508243102405,7.460318378359331,3.5990570484991053,13.31389062663045,2.4685678583612467
-1.6058123703423945,-1.4133693368361007,7.496308948844322,3.6237427270827176,13.12532442765563,2.634794043863566
-1.6199460637107554,-1.2821160925595443,7.53254637611515,3.6500906675213534,12.848772475802617,2.635256139997366
-1.632767224636351,-1.153628367801518,7.569047282790363,3.676443228921327,12.481751000363943,2.473637987996339
-1.644303508314366,-1.0288108577978785,7.605811715079576,3.7011796088012905,12.027998482289952,2.161298425306426
-1.6545916168923447,-0.908530872974979,7.642823511167589,3.7227925930543546,11.497396059020831,1.717095239347995
-1.6636769256220945,-0.7935569123847708,7.6800514370981325,3.7399635454478344,10.905193663012351,1.1662713233835627
-1.671612494745942,-0.6845049757546473,7.717451072552611,3.75162625868167,10.270614526272322,0.5385318446030789
-1.6784575445034886,-0.581798830491924,7.754967335139427,3.757011577127701,9.615039541005409,-0.13439351358787652
-1.6842755328084078,-0.48564843508186994,7.792537450910704,3.7556676419918222,8.960055502203726,-0.8213113479405848
-1.6891320171592266,-0.3960478800598327,7.8300941273306215,3.7474545285124163,8.325663033470121,-1.4938553165198272
-1.6930924959598248,-0.3127912497251315,7.867568672615746,3.732515975347218,7.728881565689542,-2.1282044165544094
-1.6962204084570762,-0.23550243406823607,7.9048938323692175,3.711233931181674,7.182884052158697,-2.7060733493743863
-1.6985754327977587,-0.1636735935466491,7.942006171681034,3.68417319768793,6.696678599795369,-3.214974721214571
-1.7002121687332252,-0.0967068075486954,7.978847903657913,3.652023450475784,6.275259772495013,-3.6478745540565756
-1.7011792368087122,-0.033954209823745266,8.015368138162671,3.615544704935218,5.920096950525165,-4.0024292913626685
-1.7015187789069497,0.025246759681506387,8.051523585212024,3.5755204120215915,5.629812668705526,-4.280004266849615
-1.7012663113101347,0.08154488636856164,8.08727878933224,3.5327203693530955,5.400920567969273,-4.484645306212998
-1.7004508624464492,0.13555409204825436,8.12260599302577,3.4878739162909653,5.2285261927567115,-4.622126626756947
-1.6990953215259665,0.18783935397582147,8.15748473218868,3.441652650023396,5.106931374399507,-4.6991467295005656
-1.6972169279862084,0.23890866771981653,8.191901258688914,3.3946611827283903,5.0301156935218145,-4.722700526641053
-1.6948278413090103,0.2892098246550347,8.225847870516198,3.34743417746198,4.992092528823514,-4.699625117541086
-1.69193574306246,0.33913074994326986,8.259322212290817,3.3004379262865693,4.987152030811614,-4.636298403731818
-1.6885444355630272,0.389002270251386,8.292326591553683,3.254074942249251,5.010010550957037,-4.538461649489717
-1.6846544128605134,0.4391023757609564,8.324867340976176,3.208690325754354,5.055887850765243,-4.411135946482517
-1.680263389102904,0.48966125426860885,8.35695424423372,3.164578966289529,5.120531945488762,-4.258605414789324
-1.6753667765602178,0.5408665737234964,8.388600033896616,3.1219929121416357,5.2002083660169784,-4.084444670959302
-1.6699581108229828,0.5928686573836662,8.419819963018032,3.0811484654320425,5.291667068963962,-3.8915731839850056
-1.6640294242491462,0.6457853280733059,8.450631447672352,3.0422327335921926,5.392096842940842,-3.6823238193074026
-1.6575715709684131,0.6997062965027143,8.481053775008274,3.0054094953991184,5.499074164088346,-3.4585167803524395
-1.650574508003386,0.7546970381435978,8.511107869962265,2.970824327595594,5.610511145517093,-3.221533212786608
-1.64302753762195,0.8108021495987687,8.54081611323822,2.938608995467728,5.724605481255763,-2.9723850028373833
-1.6349195161259624,0.8680482044113264,8.570202203192897,2.9088851454393545,5.8397940266525925,-2.711778905788909
-1.626239034081849,0.9264461446778522,8.59929105464729,2.881767356381465,5.954710787359228,-2.4401742266893316
-1.6169745726350706,0.9859932525514445,8.628108728211105,2.857365614114572,6.068149515134817,-2.157833973820294
-1.6071146401095562,1.0466747477027927,8.656682384352251,2.835787274376369,6.179030751029833,-1.8648698263353976
-1.5966478926325283,1.108465055213091,8.685040257096015,2.817138576113015,6.286372951317984,-1.5612814866492066
-1.5855632420803973,1.1713287847262708,8.713211642857145,2.801525761246523,6.389267230375717,-1.2469910899089487
-1.5738499542331346,1.235221457030028,8.74122690046961,2.7890558503474336,6.486855222114411,-0.921873363434382
-1.5614977396628342,1.300090009251172,8.769117458973083,2.77983711671309,6.5783095724840415,-0.5857822004839346
-1.5484968395703225,1.3658731049760124,8.796915830140215,2.7739792947082504,6.662816612814876,-0.23857425665164828
-1.5348381085205622,1.4325012711041611,8.824655623087297,2.771593552141734,6.739560815967765,0.11986989249258484
-1.5205130958095205,1.4998968792638387,8.852371558608715,2.77279225106666,6.807710697171305,0.4896265687504714
-1.5055141270168821,1.5679739862355517,8.880099481119382,2.7776885167541647,6.86640588464172,0.8707113950826085
-1.4898343871545265,1.6366380450819689,8.907876366286924,2.7863956307049906,6.914745149139882,1.2630629706039838
-1.473468006703707,1.7057854965733676,8.935740322593974,2.7990262604110305,6.951775245299823,1.6665275722995117
-1.4564101517379733,1.7753032490263658,8.963730585198084,2.815691536134026,6.9764804804164635,2.0808447074808853
-1.4386571192477096,1.8450680538305304,8.991887500559423,2.8364999832088347,6.987772988393933,2.505633408206083
-1.4202064387094042,1.9149457837144697,9.020252500391512,2.8615563172908955,6.984483747909368,2.940379225981001
-1.4010569808722595,1.9847906211935633,9.048868063564422,2.8909601095507056,6.965354444742961,3.3844219533475073
-1.3812090746603238,2.054444165640993,9.077777664659928,2.9248043290841808,6.929030338750071,3.836944169637752
-1.3606646330039138,2.1237344690284936,9.10702570795077,2.9631737707805583,6.874054355974595,4.296960782242675
-1.339427288313629,2.1924750125882397,9.136657445658576,3.006143378602985,6.798862685471082,4.763309812886358
-1.3175025381877465,2.2604636394429507,9.166718879444606,3.0537764767318487,6.70178221765146,5.234644760880837
-1.294897901793317,2.3274814616194655,9.197256644211924,3.106122924340657,6.581030215023366,5.7094289618906755
-1.2716230871771224,2.393291763769699,9.22831787345533,3.163217213959564,6.434716655051631,6.185932450450933
-1.2476901695394254,2.4576389303202153,9.259950045594925,3.225076538464073,6.260849725843276,6.662231925672817
-1.2231137802362233,2.520247427578648,9.292200810979566,3.2916988577208013,6.0573449849003485,7.136214509654384
-1.197911305960437,2.5808208774276515,9.325117799556773,3.363061002817345,5.8220387048516855,7.605586073463874
-1.1721030971861603,2.6390412644761683,9.358748409584948,3.439116863551984,5.552705922423997,8.067884981391094
-1.1457126845413987,2.694568323700408,9.393139578220467,3.519795713365895,5.247083671482587,8.520502164404038
-1.1187670013043947,2.747039160415234,9.428337535354126,3.6050007350099356,4.9028998103236665,8.960708471011165
-1.0912966097002423,2.796068158518471,9.464387542704225,3.6946078197200474,4.517907739279644,9.385690249327803
-1.0633359281150576,2.841247235911267,9.501333620901425,3.7884647222133254,4.089927138350656,9.792594078270897
-1.034923455755945,2.8821465072947734,9.539218268123559,3.8863906629960345,3.6168906272831554,10.178581477913
-1.0061019906829973,2.918315413567605,9.578082174753519,3.9881764777751645,3.0968959544136694,10.540894278513823
-0.9769188365473213,2.9492843731117415,9.61796393953127,4.093585420560303,2.528262949809524,10.876931105009822
-0.9474259928162039,2.9745670026098368,9.658899793736873,4.202354731610401,1.9095940303764158,11.184335131696136
-0.9176803227901055,2.993662942913601,9.700923341052977,4.314198082927363,1.239836522580302,11.461092877951721
-0.8877436933609695,3.006061308139404,9.744065321882251,4.42880901170688,0.5183444825102757,11.705643354687634
-0.8576830802795754,3.0112447529645068,9.78835341199932,4.545865445253757,-0.2550629371353179,11.916996347283847
-0.8275706327499304,3.0086941235931537,9.83381206645186,4.665035408726595,-1.0800501671131262,12.094858061666775
-0.7974836915139988,2.9978936219220222,9.880462420539125,4.785983989343263,-1.9557251568224676,12.23976180909143
-0.7675047552947786,2.9783363703537975,9.928322260432557,4.908381607434177,-2.8806153029040584,12.35320092272384
-0.7377213915912406,2.949530217324757,9.977406076506899,5.031913616661416,-3.852664492382153,12.437760763159499
-0.708226089417993,2.9110035724009355,10.027725212673513,5.15629122429301,-4.869256549441899,12.497246573052683
-0.6791160536939836,2.8623110069065167,10.079288124916443,5.281263690023537,-5.927270264125988,12.536804184092922
-0.6504929436249185,2.803038304265257,10.132100761816679,5.406631731864466,-7.023170741262787,12.563031262298813
-0.6224625605822659,2.732806596852629,10.186167079135323,5.532262044487454,-8.153141012547264,12.584077984474376
-0.5951344946137396,2.6512751867271565,10.241489699580198,5.658102824332198,-9.313256710678795,12.609737821629619
-0.568621742746468,2.5581426196203685,10.29807072782352,5.784200202548494,-10.49970515488703,12.651531463129443
-0.5430403165502643,2.453145568071498,10.355912729849004,5.9107155171797885,-11.709048513349224,12.7227897700426
-0.5185088608695493,2.336055082938006,10.415019885020802,6.037943414880215,-12.938528862397629,12.838744810890388
-0.49514831004016924,2.2066697943140294,10.475399319169604,6.166330862989119,-14.186410971419992,13.016641164278289
-0.4730816120970289,2.0648056845998295,10.537062627799495,6.296497274631902,-15.452356360814504,13.275882182606301
-0.45243355525103063,1.9102821209916845,10.600027600545813,6.429256096457965,-16.737819116077564,13.638226792241321
-0.4333307340411138,1.7429039298309088,10.664320161510393,6.565638364380378,-18.0464489284217,14.128049880354947
-0.4159016947428047,1.5624394405466917,10.729976545154196,6.706918863183928,-19.384477445465564,14.772670131765432
-0.40027730033733777,1.368594666092036,10.797045733786035,6.854645564501582,-20.761045486494993,15.602727196745791
-0.3865913536764174,1.160984211227086,10.865592189431052,7.01067283646904,-22.18839185864408,16.652543531165175
-0.37498151156414655,0.9391002926406452,10.935698917795742,7.177198271780692,-23.681752005358316,17.960312415576155
-0.3655905086377401,0.7022827725870621,11.00747090051355,7.356801395936453,-25.258673535686682,19.567768529717682
-0.3585676809118695,0.44969603723019524,11.081038914472915,7.55247908123363,-26.937183583728817,21.518636416701746
-0.35407072053956756,0.18032420139290706,11.15656370528525,7.767665445400648,-28.731724286532614,23.854455248415942
-0.3522674785256385,-0.10699304147241911,11.234240359739257,8.006209997884808,-30.644800522422507,26.605054380422967
-0.3533374089403627,-0.41344104669664417,11.314302459718105,8.272260541689038,-32.65051994076383,29.768516935657694
-0.35747181940732914,-0.7399462461042825,11.397025065134995,8.569945711045614,-34.663217447188096,33.271270433492965
