th1 (rad),w1 (rad/s),th2 (rad),w2 (rad/s)
6.256799904324399,0.8475654949756266,0.8149513063055042,-1.3103730483928437
6.265275559274156,0.8919600590355518,0.8018475758215757,-1.416630066622628
6.274195159864512,0.9377177813534942,0.7876812751553495,-1.5240976232423722
6.283572337678047,0.9849109981954001,0.7724402989229258,-1.6328318444100058
6.293421447660001,1.0335933061709706,0.7561119804788257,-1.7428716153564656
6.303757380721711,1.0837931994690946,0.738683264325261,-1.8542304883707674
6.314595312716402,1.1355058604660795,0.7201409594415533,-1.9668860551290184
6.3259503713210625,1.18868266835367,0.7004720988902632,-2.0807661777162334
6.337837198004599,1.2432179519209172,0.6796644371131009,-2.195731413816059
6.350269377523808,1.2989325215697212,0.6577071229749403,-2.3115529756294975
6.363258702739505,1.355553617723859,0.6345915932186453,-2.427885691656679
6.376814238916744,1.4126911782038425,0.6103127363020785,-2.5442357921312753
6.390941150698782,1.4698108550217945,0.5848703783807657,-2.659924049685697
6.405639259249,1.5262051254119746,0.5582711378839087,-2.774046049043918
6.42090131050312,1.5809652669363752,0.5305306773934695,-2.88543330706931
6.436710963172484,1.6329589624430763,0.5016763443227764,-2.9926217045603756
6.453040552796915,1.6808207399454382,0.47175012727717264,-3.093837053000239
6.469848760196369,1.7229648332753895,0.44081175674717027,-3.1870109154408084
6.487078408529123,1.7576313028479313,0.4089416475927622,-3.2698415581263003
6.5046547215576025,1.7829747187885578,0.3762432320114992,-3.339912830287104
6.522484468745488,1.797198557384084,0.3428441037086281,-3.394875330553102
6.540456454319329,1.798726867224904,0.30889535040309707,-3.4326782724115463
6.558443722991577,1.786389552939786,0.27456856767898163,-3.451819544110622
6.576307618520975,1.759584310667905,0.2400503722378754,-3.4515631995256397
6.5939034616276535,1.7183745979581952,0.205534740242619,-3.43206875316498
6.611087207607236,1.6634945194411288,0.1712140527109692,-3.3943927213044818
6.627722152801647,1.5962562366434803,0.1372701254979244,-3.3403570894790717
6.6436847151680825,1.5183832916175959,0.10386655460313367,-3.272317625939693
6.658868548084258,1.4318113855169747,0.07114337834373674,-3.1928896616047453
6.673186661939428,1.3384997206675153,0.039214481727689286,-3.1046906382407666
6.686571659146103,1.2402834708113137,0.008167575345281619,-3.010141001913229
6.698974493854216,1.1387798314206306,-0.021933834673850672,-2.9113398300963786
6.710362292168422,1.0353446820780798,-0.05104723297481446,-2.810010352841064
6.7207157389892025,0.9310681656485252,-0.0791473365032251,-2.707498695608554
6.730026420645688,0.8267951997366061,-0.10622232345931064,-2.604806266467941
6.738294372643054,0.7231587223777247,-0.13227038612399006,-2.5026388889385034
6.745525959866831,0.6206168741073926,-0.15729677501337508,-2.401460612209273
6.751732128607905,0.5194887058640615,-0.1813113811354678,-2.301544871447179
6.7569270156665455,0.4199856463072992,-0.20432682984993958,-2.20301933487139
6.761126872129618,0.32223772752371005,-0.22635702319865347,-2.1059031961534207
6.764349249404855,0.22631459853545374,-0.2474160551601877,-2.0101370657289896
6.76661239539021,0.1322418697106433,-0.2675174258174776,-1.9156062942523486
6.767934814087316,0.040013523490943545,-0.2866734887600011,-1.8221588005651068
6.768334949322226,-0.05039885934076452,-0.30489507676565214,-1.7296184742802772
6.767830960728818,-0.13903938098891688,-0.3221912615084549,-1.6377951069865748
6.766440566918929,-0.2259630430441285,-0.3385692125783206,-1.5464916502983612
6.764180936488487,-0.3112324328795953,-0.3540341290813042,-1.4555094424697348
6.761068612159692,-0.3949155120324205,-0.36858922350600154,-1.3646519058582138
6.757119457039368,-0.47708422032142733,-0.3822357425645837,-1.2737271012295737
6.752348614836153,-0.5578136754375774,-0.3949730135768794,-1.1825494318661722
6.746770478081777,-0.6371817994614277,-0.4067985078955411,-1.0909407181878497
6.7403986600871635,-0.7152692434114873,-0.4177079150774196,-0.9987308087974659
6.7332459676530485,-0.792159510730572,-0.42769522316539427,-0.9057578532513092
6.725324372545743,-0.8679392025281781,-0.43675280169790737,-0.8118683325869613
6.716644980520462,-0.9426983229971347,-0.444871485023777,-0.7169169234303155
6.70721799729049,-1.0165305939097076,-0.45204065425808015,-0.62076625861798
6.697052691351393,-1.0895337333102828,-0.45824831684425993,-0.5232866404912624
6.686157354018291,-1.1618096559723206,-0.46348118324917253,-0.42435576158072275
6.674539257458568,-1.2334645520949639,-0.4677247408649798,-0.3238584909554291
6.662204611937618,-1.3046087960224384,-0.4709633257745341,-0.22168679309076927
6.649158523977394,-1.3753566281528267,-0.4731801937054418,-0.11773986011504058
6.635404957695865,-1.4458255400697637,-0.4743575923065922,-0.011924558500117213
6.620946702295168,-1.5161352744177454,-0.47447683789159334,0.09584368118848287
6.60578534955099,-1.5864063260202947,-0.4735184010797085,0.2056393664598989
6.589921286290787,-1.6567577978521852,-0.4714620074151095,0.3175246248723443
6.573353708312265,-1.7273044232396775,-0.46828676116638607,0.4315457939356575
6.556080664079868,-1.7981525127079736,-0.4639713032270295,0.5477285727999706
6.538099138952789,-1.8693945194512331,-0.4584940174990298,0.6660712998519711
6.519405193758276,-1.9411018421952162,-0.45183330450051007,0.7865358162730571
6.499994175336324,-2.0133154020760236,-0.4439679463377795,0.9090352627087765
6.479861021315564,-2.08603345065319,-0.43487759371069173,1.0334180480435768
6.459000686809032,-2.159196008894863,-0.42454341323025596,1.1594471534872062
6.437408726720084,-2.2326653377892396,-0.4129489416953839,1.2867739422092324
6.415082073342191,-2.306201960772078,-0.4000812022732915,1.4149058197158788
6.39202005373447,-2.3794360913456267,-0.38593214407613274,1.543167566147648
6.368225692821014,-2.45183500204847,-0.3705004684146563,1.6706571290443408
6.343707342800529,-2.5226680745471457,-0.3537938971242129,1.7961983631934815
6.318480662055057,-2.5909731647015843,-0.3358319134922781,1.9182958691066059
6.292570930408041,-2.6555305720696154,-0.316648954801212,2.0351008097894967
6.266015624687345,-2.7148541052720905,-0.29629794670331705,2.1444010692994904
6.238867083634624,-2.7672117042473747,-0.27485393601032215,2.243653255358823
6.21119496659215,-2.810689211973464,-0.2524174034567339,2.3300755789794794
6.1830880744724155,-2.8433077915646483,-0.22911664766693912,2.4008162045585335
6.154654996556769,-2.863195802300193,-0.20510848562135378,2.4531979475845307
6.126023038533767,-2.868799254837408,-0.18057650614550846,2.485016629527007
6.097335045985393,-2.8590951361901356,-0.1557263398502384,2.494842468697822
6.068744094623492,-2.833757815157207,-0.13077791516326018,2.4822541317164077
6.040406516471919,-2.793230786588212,-0.1059553738460961,2.447938108993093
6.012474208606037,-2.7386785936399236,-0.08147599275616517,2.3936180793123363
5.985087422669638,-2.6718294296293252,-0.05753981196304181,2.3218293393016824
5.958369128373345,-2.5947509699012983,-0.03432151857002498,2.2355986248750117
5.932421618674332,-2.509615422067601,-0.011965532321274862,2.1381085986086523
5.907325464453656,-2.418501289280922,0.00941555366481166,2.0324142562004357
5.8831404515608465,-2.3232575511166402,0.029739696226816017,1.921247712587109
5.8599078760496806,-2.2254333920189007,0.0489521733526871,1.8069159202101253
5.837653542129492,-2.1262615840511203,0.06702133255478836,1.691274612947078
5.816390926288981,-2.0266779013565155,0.08393407868425914,1.5757536259014433
5.796124147275416,-1.9273599449839764,0.09969161494327358,1.4614101062515428
5.776850547825576,-1.8287728995446073,0.11430571600578901,1.3489919453486243
5.758562818830129,-1.7312143570869831,0.12779563545927525,1.2390002593758505
5.74125067525926,-1.6348540987967612,0.14018563805303375,1.1317450448971753
5.724902134271292,-1.5397672759979368,0.1515030885020055,1.0273917436127713
5.709504461511313,-1.4459609287463755,0.1617770059381332,0.925998575016736
5.695044852223849,-1.3533945257030509,0.17103699168830058,0.8275455602212165
5.681510906966818,-1.261995487314267,0.17931244729051274,0.7319565643799104
5.668890952093676,-1.1716706756981423,0.18663201293431184,0.6391157245863285
5.657174245336694,-1.0823147342354562,0.19302317018017512,0.54887949549155
5.64635109799434,-0.9938160159722219,0.19851196513509062,0.4610853468727185
5.636412937834618,-0.9060606933719815,0.2031228186038178,0.37555794393446623
5.627352330900898,-0.8189355111537322,0.20687839804316246,0.29211345864572763
5.619162975789361,-0.7323295351053266,0.20979953262961973,0.2105625079734389
5.611839680438307,-0.6461351629557126,0.21190515770935411,0.13071209286778535
5.60537832880875,-0.5602485960771476,0.21321227863803197,0.05236681690644482
5.599775842847978,-0.4745699196228942,0.21373594680709643,-0.024670408941879066
5.5950301436517496,-0.3890029004138428,0.21348924271767764,-0.100598023419001
5.591140114647611,-0.3034545836330173,0.21248326248348762,-0.17561572228508282
5.58810556881128,-0.21783474887326906,0.2107271052606368,-0.24992453362241415
5.585927221322548,-0.13205527153620827,0.20822785992441264,-0.32372699992658144
5.584606668607186,-0.04602942568551349,0.20499058992514682,-0.3972274201577958
5.584146374350331,0.04032884170808701,0.20101831572356887,-0.4706321139714285
5.584549662767412,0.127105638222564,0.1963119945838546,-0.5441496748849615
5.585820719149638,0.21438782843354776,0.19087049783500498,-0.6179911795972309
5.587964597433973,0.3022636820649106,0.18469058603903268,-0.6923703171196792
5.590987234254622,0.3908234329717193,0.1777668828678359,-0.7675033935167781
5.5948954685843395,0.4801597050379631,0.17009184893266813,-0.8436091552175842
5.599697065634719,0.570367747776757,0.1616557573804923,-0.920908354967564
5.605400743112487,0.6615454057580253,0.15244667383081664,-0.999622957968893
5.612016197170067,0.7537927204312838,0.1424504442511277,-1.0799748494688852
5.619554124374379,0.8472110284673664,0.13165069575643887,-1.1621838562070559
5.628026234659053,0.9419013749190248,0.12002885719436832,-1.2464648292224263
5.637445248408244,1.0379619993338243,0.10756420890214405,-1.3330234503949847
5.647824868401582,1.1354845752070681,0.0942339743981942,-1.4220503152020183
5.659179714153653,1.2345487848474892,0.08001347124617401,-1.5137127053072175
5.671525202002128,1.335214691234975,0.06487634419310184,-1.6081432944992753
5.684877348914478,1.4375122277755725,0.048794911248109085,-1.7054248329514103
5.699252471192233,1.5414269756748367,0.03174066291859498,-1.8055696413563889
5.7146667409489815,1.6468812612720343,0.013684966505031093,-1.9084925523629912
5.7311355535617015,1.7537095322428515,-0.00539995901859882,-2.0139758323799835
5.7486726488841295,1.8616270544394493,-0.025539717342398655,-2.121624732119075
5.767288919428524,1.9701913656974808,-0.0467559646635894,-2.2308128679302133
5.786990833085499,2.0787568669615917,-0.06906409334289154,-2.3406179629014834
5.807778401755114,2.1864247448627023,-0.09247027297190638,-2.4497510284187936
5.829642649203741,2.29199344890483,-0.11696778325609432,-2.5564863314453543
5.85256258369279,2.3939193810440735,-0.14253264657054787,-2.658605741530239
5.876501777503231,2.4903029512712607,-0.16911870398585027,-2.753378805252263
5.901404807015943,2.5789202424839424,-0.1966524920383729,-2.8376070962360807
5.9271940094407825,2.6573220624756058,-0.2250285630007337,-2.907763609822849
5.953767230065538,2.7230154908957362,-0.2541061990989622,-2.9602486675467876
5.980997384974495,2.7737240337153963,-0.2837086857744301,-2.991757149659741
6.008734625311649,2.8076919522243573,-0.3136262572710275,-2.9997089328110573
6.036811544833893,2.8239664530715465,-0.34362334659913807,-2.9826494906344405
6.065051209364608,2.822576959787782,-0.3734498415054825,-2.940507054102245
6.093276978962486,2.8045499856017795,-0.4028549120465049,-2.874619545245517
6.121322478818503,2.7717494483897998,-0.4316011074989601,-2.787516340084849
6.1490399733024015,2.726591097530364,-0.4594762708998086,-2.6825224572929405
6.176305884277705,2.6717146585602514,-0.486301495472738,-2.563301960000355
6.203023030863308,2.6096936605965557,-0.5119345150727416,-2.4334525409517793
6.229119967469273,2.542830946561939,-0.5362690404822593,-2.2962187233660227
6.254548276934893,2.4730500892231175,-0.5592312277159196,-2.15433834034222
6.279278777827124,2.401866514841772,-0.5807746111193418,-2.0099999910353876
6.303297442975542,2.330411709473238,-0.6008746110296956,-1.864874528172002
6.326601560070275,2.25948524173185,-0.6195233563114156,-1.720185449016829
6.3491964124875935,2.189616031322259,-0.636725210801584,-1.5767923434370834
6.371092572800816,2.121121609456709,-0.6524931342359548,-1.4352717176259675
6.392303788895383,2.054159857370749,-0.6668458514122144,-1.2959874917840029
6.4128453874690905,1.9887714255480773,-0.6798057263300544,-1.1591486386714798
6.432733101724572,1.9249130848417086,-0.6913972127167692,-1.0248542810657815
6.4519822325729885,1.8624831882697563,-0.701645755527427,-0.8931278597716232
6.470607064455686,1.8013406967588377,-0.7105770341251433,-0.7639423701881932
6.488620471423275,1.7413191650998663,-0.7182164578270253,-0.637238591304857
6.506033663074273,1.6822368889479036,-0.7245888437400738,-0.5129379644725937
6.5228560319637525,1.6239041834506698,-0.7297182233847997,-0.39095146416137966
6.53909507379826,1.5661285480026117,-0.7336277380264136,-0.2711855070710769
6.554756359278286,1.5087182884194268,-0.7363395930971244,-0.1535456953474162
6.56984354216248,1.4514850210270347,-0.7378750500505985,-0.03793898910544759
6.58435839237275,1.3942453695438388,-0.738254439941653,0.07572525150321036
6.598300846068189,1.3368220796808166,-0.7374971874266208,0.18753503150248058
6.611669066864997,1.2790447123612785,-0.735621837111596,0.2975760575119246
6.62445951398861,1.2207500293084537,-0.7326460765364767,0.4059324734778955
6.636667014281694,1.1617821503254797,-0.7285867518016977,0.5126878708003131
6.648284835784949,1.1019925366631573,-0.7234598730936946,0.6179264822101661
6.6593047611515805,1.0412398369769502,-0.717280608271593,0.7217344937134494
6.66971715952135,0.9793896196836338,-0.7100632633344586,0.8242014270958129
6.679511055718186,0.9163140066951628,-0.7018212490635004,0.9254215587251913
6.688674195785138,0.8518912175617191,-0.6925670334762485,1.0254953500205137
6.697193107960755,0.7860050293117271,-0.6823120799760434,1.1245308718959957
6.705053158253873,0.7185441552690296,-0.6710667712570835,1.2226452103540306
6.712238599806563,0.6494015455689137,-0.6588403191535431,1.3199658435464372
6.718732615262252,0.5784736128497111,-0.6456406607180788,1.4166319822004998
6.724517351390749,0.50565938867254,-0.6314743408960738,1.5127958652587816
6.729573945277474,0.4308596197753057,-0.6163463822434859,1.6086240006466772
6.733882541475228,0.3539758186288888,-0.6002601422370192,1.7042983367542484
6.7374222996615165,0.2749092904817805,-0.5832171588694767,1.8000173426924815
6.740171392566334,0.1935601699893515,-0.5652169854425518,1.8959969634551275
6.742106994266228,0.1098265158489214,-0.5462570158080006,1.9924713980439417
6.743205259424718,0.02360353335735428,-0.5263323018275612,2.089693621916165
6.743441294758291,-0.06521697504019472,-0.5054353656083995,2.187935536288519
6.7427891250078895,-0.15674678885241833,-0.4835560102455143,2.2874875709864795
6.7412216571193655,-0.2511008766923813,-0.4606811345356495,2.3886574878815057
6.738710648352441,-0.3483961471079252,-0.43679455965683445,2.4917680192508205
6.735226686881362,-0.44874894368200485,-0.4118768794643262,2.5971528172295923
6.730739197444542,-0.5522707263970368,-0.3859053512920303,2.705149970842393
6.725216490180572,-0.6590611653766745,-0.3588538515836064,2.816092046174766
6.718625878526805,-0.7691975849246375,-0.3306929311218587,2.9302912011448137
6.710933902677559,-0.8827193225204109,-0.3013900191104106,3.048017399683171
6.702106709452355,-0.9996051071618812,-0.27090984511357885,3.1694670957056563
6.692110658380736,-1.1197410410163664,-0.23921517415652227,3.2947190087072444
6.680913247970572,-1.2428762780912457,-0.20626798406944982,3.4236728906309026
6.66848448518966,-1.368563248775189,-0.1720312551631408,3.5559667807123523
6.654798852701909,-1.4960797170275062,-0.13647158735601728,3.690868762707663
6.639838055531634,-1.6243318655897998,-0.09956289972894064,3.8271417684255913
6.623594736875735,-1.75174222711111,-0.06129148204468473,3.9628862452311697
6.606077314604624,-1.8761352206344348,-0.021662619592373034,4.095377776478679
6.5873159623982795,-1.9946475988648746,0.019291158172413753,4.220936851388443
6.567369486409631,-2.103710361224474,0.061500526686298185,4.33489476174579
6.546332382797386,-2.19916618806724,0.10484947430375609,4.4317442017986926
6.5243407209167135,-2.2765868337823534,0.149166916321743,4.505564295025886
6.50157485257889,-2.331816046439627,0.19422255927200188,4.550756697002202
6.478256692114494,-2.3616725589775744,0.23973012624202392,4.563004041349604
6.454639966524718,-2.3646298269394133,0.28536016665551994,4.540199181647232
6.430993668255324,-2.3412212903781735,0.33076215847199225,4.482999802989076
6.407581455351542,-2.293984254486428,0.375592156501883,4.394751829894681
6.384641612806678,-2.226947588318029,0.4195396748008298,4.280790084915231
6.362372136923497,-2.1448670895906274,0.46234757564998213,4.147397664786113
6.340923466027591,-2.0524824748762813,0.5038215522978433,4.000800157464572
6.320398641278828,-1.9539899105749405,0.543829553872489,3.8464586629046753
6.300858742173078,-1.852783628206807,0.5822941405015357,3.6887317888306015
6.28233090589101,-1.751415581305964,0.6191814583898417,3.5308338553177205
6.264816750077951,-1.6516853578617297,0.6544897969430189,3.3749676170089686
6.248299896499334,-1.5547836275059765,0.6882394731131086,3.222526356185022
6.232752060224274,-1.4614401610657912,0.7204647366749588,3.07429903452241
6.218137658613617,-1.3720525784840394,0.7512077270201829,2.9306468371441587
6.204417132828776,-1.286788332487785,0.7805141953916245,2.79164173775537
6.191549249503898,-1.2056608880548811,0.8084306127691782,2.6571690633003824
6.179492640623349,-1.1285843923802847,0.835002303402182,2.5270003750386683
6.168206796699546,-1.0554117618896643,0.8602723071525686,2.400843667959693
6.157652679080649,-0.9859605778114419,0.8842807438321656,2.2783770331091753
6.147793073302535,-0.9200302942577441,0.9070645141632574,2.159270633442266
6.138592770359957,-0.8574133899798375,0.9286572204976801,2.043200603098619
6.130018636460159,-0.7979023682871583,0.9490892265286662,1.929857460926604
6.122039612777288,-0.7412939514788799,0.9683878011379323,1.818950854003798
6.1146266732624985,-0.6873914065516529,0.9865773096779703,1.7102118828516821
6.107752759196982,-0.636005646599348,1.0036794285064872,1.6033938606255462
6.101392702730989,-0.5869555472804504,1.0197133671127427,1.4982720806874434
6.095523147258184,-0.540067775544706,1.0346960879196172,1.394642975952935
6.090122469502737,-0.49517632995019045,1.0486425176791465,1.2923229232077318
6.085170706203235,-0.4521219248931702,1.0615657469112239,1.1911468574375845
6.080649486954304,-0.41075130536389814,1.0734772154855996,1.0909668018750192
6.076541973900665,-0.37091654776218513,1.0843868835043498,0.991650379758502
6.072832808423043,-0.3324743812439958,1.0943033873019348,0.8930793474101064
6.069508064610603,-0.29528554985163974,1.1032341807760357,0.7951481708506327
6.066555209112087,-0.25921422613020195,1.111185662484542,0.6977626568461772
6.063963066850785,-0.22412748056277024,1.1181632890530038,0.6008386420189034
6.061721792045157,-0.18989480694808905,1.1241716754731927,0.5043007391010269
6.059822843975676,-0.15638770109941044,1.1292146828642031,0.4080811366457005
6.058258966964681,-0.12347928848524115,1.1332954942306601,0.312118446909736
6.057024174079829,-0.09104399533445949,1.1364166786997574,0.21635659577122474
6.056113734126485,-0.05895725706594331,1.1385802446574695,0.12074374815780488
6.055524161555826,-0.027095257523222588,1.1397876821390476,0.025231262349767858
6.055253208980593,0.004665307706534574,1.1400399947625453,-0.07022733343878797
