th1 (rad),w1 (rad/s),th2 (rad),w2 (rad/s)
3.631964760913093,0.16512285789235454,4.808904170341183,-2.508420518324895
3.6336159894920166,0.22615433084078346,4.783819965157934,-2.434549391247763
3.6358775328004245,0.28450640375260017,4.759474471245457,-2.3610914090616264
3.6387225968379506,0.34034305974599616,4.735863557154841,-2.288075981049434
3.6421260274354106,0.3938289189706221,4.712982797344346,-2.215530951684847
3.6460643166251168,0.4451289377687688,4.690827487827498,-2.1434839730918673
3.6505156060028043,0.49440819609682474,4.669392648096579,-2.071963724448589
3.6554596879637726,0.541831754455325,4.648673010852093,-2.0010009851921153
3.660878005508326,0.5875645631819819,4.628663001000172,-1.9306295682996977
3.6667536511401457,0.6317714086697405,4.609356705317175,-1.8608871193735665
3.673071365226843,0.6746168828500149,4.59074783412344,-1.791815786810434
3.6798175340553434,0.7162653641032514,4.572829676255336,-1.723462768034239
3.686980187696376,0.7568809995987823,4.555595048574993,-1.6558807366318498
3.6945489976923636,0.7966276808947498,4.539036241208675,-1.5891281552522167
3.702515274501311,0.8356690064127285,4.523144959656152,-1.5232694792832748
3.710871964565438,0.8741682261000111,4.507912264863319,-1.458375256559786
3.7196136468264385,0.9122881651577782,4.493328512297721,-1.394522128611862
3.728736528478016,0.9501911250914341,4.479383291011602,-1.3317927391541216
3.7382384397289306,0.9880387614708577,4.466065363620061,-1.2702755555420835
3.748118827343639,1.0259919386103646,4.45336260806464,-1.2100646086790177
3.758378746729743,1.0642105618266853,4.441261961977849,-1.1512591562315433
3.7690208523480098,1.1028533879450284,4.429749370415534,-1.093963272893298
3.7800493862274602,1.1420778142378807,4.418809737686601,-1.0382853697131618
3.791470164369839,1.1820396449423736,4.40842688398947,-0.9843376420736343
3.8032905608192626,1.222892832858627,4.398583507568733,-0.9322354426697169
3.815519489147849,1.2647891912376898,4.389261153142036,-0.8820965717122673
3.8281673810602257,1.3078780681834499,4.380440187424914,-0.8340404714866945
3.84124616174206,1.352305972084713,4.372099782710047,-0.78818730627643
3.8547692214629072,1.3982161321372506,4.364217909647283,-0.7446569014685374
3.86875138278428,1.4457479728018099,4.356771340632598,-0.7035675073835265
3.883208862512298,1.4950364750900214,4.349735665558763,-0.6650343440484977
3.898159227263198,1.5462113909388098,4.343085322118278,-0.6291678728764809
3.913621341172586,1.5993962697650408,4.336793643389513,-0.5960717302659797
3.9296153038702366,1.6547072488487315,4.330832926086853,-0.5658402469308869
3.946162376358724,1.7122515519276447,4.3251745236175445,-0.5385554660459341
3.963284891878,1.7721256340299312,4.319788968957085,-0.5142835642100633
3.9810061482182997,1.8344129062494439,4.314646133314985,-0.4930705735514891
3.999350277280794,1.8991809735337108,4.309715427579469,-0.4749373035827504
4.018342087016131,1.9664783239314818,4.304966054543642,-0.459873371224679
4.038006870255446,2.0363304222478704,4.300367320831395,-0.44783027148999555
4.058370174477925,2.1087351886157024,4.295889018116495,-0.4387134655994359
4.079457526364082,2.1836578877229305,4.2915018834605005,-0.43237353473197015
4.101294105241311,2.2610255221537323,4.287178148113181,-0.428596553401417
4.1239043604628485,2.3407209175458807,4.282892182579167,-0.4270939826431275
4.147311569638307,2.4225768096252267,4.278621242752736,-0.42749257216344094
4.171537337734559,2.506370390290142,4.274346317031102,-0.4293249873916797
4.196601041637461,2.59181893030264,4.2700530671571855,-0.4320221250008748
4.222519230940487,2.6785772469241076,4.265732845907177,-0.43490831510399053
4.249305003409728,2.766237889679208,4.261383762756137,-0.4372007762309723
4.276967382306521,2.854334927771452,4.257011754993827,-0.43801471835260297
4.305510731584235,2.942352084712429,4.252631607810301,-0.436375299525383
4.334934252431359,3.029735635051392,4.2482678548150465,-0.4312371661741689
4.3652316087818726,3.1159119410901357,4.243955483153305,-0.42151152294610195
4.396390728192774,3.200308804138361,4.239740367923844,-0.4060996406918328
4.428393816234157,3.2823790424651933,4.235679371516925,-0.38393057416883714
4.461217606658809,3.361624052919467,4.231840065775237,-0.35399986584597926
4.494833847188004,3.4376147526914798,4.228300067116777,-0.3154054338412737
4.529209994714919,3.5100073787456414,4.225146012778365,-0.26737690036486156
4.564310068502375,3.578552188052516,4.222472243774716,-0.2092953840805315
4.6000955903829,3.643094057513466,4.22037928993391,-0.140702129022455
4.636526530958035,3.703565115652595,4.218972268643686,-0.06129597340721403
4.67356218211456,3.7599705864463564,4.218359308909614,0.029078804200314723
4.711161887979024,3.8123697659774027,4.218650096951617,0.1304516144431428
4.749285585638798,3.8608543691467005,4.219954613096048,0.2427485090121427
4.787894129330265,3.9055263879033633,4.22238209818617,0.365815894373668
4.826949393209299,3.946477204328805,4.226040257129907,0.49944249243919725
4.8664141652525865,3.983769154676735,4.231034682054299,0.6433778174432356
4.906251856799354,4.017420186915867,4.2374684602287305,0.7973462577755355
4.946426058668513,4.047391793489227,4.245441922806486,0.9610565616234136
4.9868999766034054,4.0735800793868115,4.25505248842272,1.134207054359825
5.027635777397274,4.095809646166718,4.266394558966319,1.3164872534836565
5.068593873858941,4.113829911187824,4.279559431501156,1.5075767220398573
5.109732172970819,4.127313502902744,4.294635198721554,1.7071420583750871
5.151005307999847,4.135856442645469,4.311706619305305,1.9148329032449583
5.192363872426301,4.13897991205526,4.3308549483377545,2.1302777902029524
5.233753671546854,4.136133492110097,4.352157726239784,2.3530805956157455
5.275115006467955,4.126699831005048,4.375688532195942,2.5828182732597744
5.3163820047780055,4.110000745897587,4.4015167149285395,2.819040489242484
5.357482012236981,4.085304784212596,4.429707119820964,3.06127170390779
5.398335060079107,4.051836263311079,4.460319836860042,3.3090161727011216
5.438853422712218,4.008785775173724,4.493409998587053,3.561766250063099
5.478941280463955,3.955322090514607,4.529027661087683,3.819014270915983
5.518494501369101,3.8906053331863295,4.567217803796844,4.080268144519629
5.557400554700965,3.8138012344357466,4.60802048524204,4.345070616025428
5.595538567045322,3.7240962377016817,4.651471191402295,4.613021920333761
5.632779529422339,3.620713237618904,4.697601410605633,4.883805253740293
5.668986661798528,3.502927844226835,4.7464394631430356,5.1572140927585055
5.704015940240796,3.370085326734841,4.798011604070621,5.433179846314667
5.737716793508145,3.2216189009041023,4.8523434025337675,5.711797549225073
5.769932982517187,3.057070914222045,4.909461378026018,5.993346140015669
5.800503691659407,2.8761199541577804,4.969394839426174,6.278298061510514
5.829264891200985,2.6786192556560167,5.032177820041279,6.5673100700335025
5.856051083757546,2.4646554468288846,5.097850920741614,6.861182612707029
5.8806976382258345,2.2346422254386864,5.166462746868684,7.16076804780609
5.903044060480221,1.989471638366298,5.238070427346745,7.466797284136492
5.922938776863885,1.7307565172149324,5.31273840018811,7.779579382617911
5.940246342036034,1.46120994961683,5.390534194014289,8.098510565194658
5.954858441532203,1.1852152378689826,5.471519299666236,8.421315466137134
5.966710593910892,0.9096247798216024,5.5557324543276065,8.742957457292267
5.975806841709108,0.6447485189498702,5.643162028900529,9.05425018626664
5.982254326898607,0.4052841532462443,5.7337045307631955,9.340472023551175
5.986307168431069,0.21054615209196315,5.827109250998707,9.580809790036167
5.988412629951989,0.08289137316122597,5.922917348899069,9.75008262343736
5.989241543683601,0.04330744105976141,6.020418175133442,9.824133632775828
5.989674618094199,0.10467661850914592,6.118659511461201,9.788249555062002
5.99072138427929,0.26604664473739636,6.216542007011821,9.644256825434624
5.993381850726664,0.5122648777354994,6.312984575266167,9.410657630228501
5.998504499504018,0.8197259949035327,6.407091151568452,9.115021870646324
6.006701759453054,1.1640804332790924,6.498241370274916,8.784232088472901
6.018342563785845,1.5253708051577428,6.5860836911596445,8.438406694826938
6.033596271837423,1.8894848696606248,6.670467758107914,8.0896717966823
6.052491120534029,2.2473441435385784,6.751364476074737,7.7437240915353405
6.074964561969415,2.5934333563449763,6.82880171699009,7.402052714711118
6.100898895532865,2.9245050239584844,6.902822244137201,7.063787541207708
6.130143945772449,3.238678746239926,6.973460119549277,6.726953974303362
6.162530733234848,3.5348897945111166,7.040729659292311,6.38923758605888
6.197879631179959,3.81258091510642,7.1046220351529,6.0484178041063625
6.236005440331024,4.071544894386021,7.165106213193964,5.702597062075575
6.276720889274884,4.311853328761961,7.222132183814719,5.35030793907701
6.319839422562504,4.533830448845474,7.27563526320549,4.990547639933818
6.365177727050959,4.738046921066179,7.325540739604828,4.6227683104332415
6.412558196261621,4.925318812350424,7.37176842270916,4.2468398366709375
6.4618113843851255,5.0967032971583395,7.41423682107587,3.862995607721939
6.512778417356709,5.253486625998885,7.45286677715309,3.4717688670446303
6.565313283616698,5.397162210312335,7.487584465823536,3.0739262800977087
6.619284905719821,5.529397854300069,7.518323728624513,2.6704053866954056
6.674578884262822,5.651991366061263,7.545027782491467,2.262263307799978
6.731098797923435,5.7668130364077905,7.567650415569467,1.8506453640962308
6.788766928287513,5.875731717327403,7.58615686921043,1.4367842773542445
6.847524245460788,5.980518360122546,7.600524711983972,1.02204361750536
6.907329429062013,6.082716857628042,7.610745148159026,0.6080233036734264
6.968156597638294,6.183467199741562,7.616825381195761,0.19674993107608235
7.029991269635709,6.283261626694714,7.618792880506522,-0.20902133282375163
7.092823885902656,6.381614343658283,7.616702667178284,-0.6053687940607196
7.156640029339239,6.476637834045341,7.610648979237677,-0.9866261541026117
7.221406407679693,6.564559592918985,7.600782717696651,-1.3447210895874648
7.287052003608882,6.639303893533405,7.587335506800777,-1.6686189000712597
7.353445042544216,6.692414031165682,7.570649317800064,-1.9442749286055843
7.420369182855873,6.7137471395712,7.551206568514008,-2.155718658405233
7.487506654251584,6.693342503005082,7.529649381929955,-2.287836721282664
7.554440079281635,6.624351392030953,7.5067710147171285,-2.3306722168135385
7.620683593201945,6.505920141316131,7.483464292548993,-2.2836171679755
7.6857427946151065,6.344257999894168,7.460628120869238,-2.1569256410659596
7.749185374614048,6.150927653266908,7.439058864458579,-1.9691445061882273
7.810694651146717,5.939329498734859,7.419367419396696,-1.7418639045250972
7.870087946134065,5.721433590174202,7.401948780351446,-1.494782530094758
7.927302282035807,5.506080070473323,7.387000955050498,-1.2430479017426102
7.98236308274054,5.298810299023038,7.374570476033072,-0.9968617052864813
8.03535118573077,5.102517608127017,7.364601858980207,-0.7623372540982734
8.08637636181204,4.91828569114989,7.356978486439225,-0.5426844291931556
8.135559218723538,4.7460994221344,7.351551642147293,-0.33924592750218885
8.183020212944882,4.585347829134238,7.348159182872271,-0.15225068930340557
8.228873691236224,4.435144365275794,7.346636675979237,0.018690974865670146
8.273225134888982,4.294516049941896,7.346823585727894,0.1742823182746247
8.316170295388401,4.162507660698166,7.34856640891064,0.3153611135927241
8.357795371995383,4.038234216635527,7.351720020046567,0.44279933127466076
8.398177714161738,3.9209033816891856,7.356148013359314,0.5574501053083734
8.43738674797863,3.8098210912188555,7.3617225144123974,0.6601222363201426
8.475484958890819,3.704388296526865,7.368323736775599,0.7515702325658782
8.512528841856088,3.6040933873156873,7.375839439101258,0.8324927627569244
8.548569775729245,3.5085028588370117,7.384164366728827,0.9035353692376471
8.583654804317614,3.417251623451564,7.393199720421204,0.9652950734357515
8.61782732055213,3.330033694234663,7.402852671155562,1.0183255616676856
8.651127657494477,3.2465935876276455,7.413035926772238,1.0631422581007928
8.683593593370754,3.1667185810431557,7.423667349353246,1.1002269494768435
8.715260779181184,3.0902318478197275,7.434669618848014,1.1300318292153075
8.746163097659382,3.0169864339062396,7.445969937140167,1.1529829401371199
8.776332961998444,2.9468600137110967,7.457499766541538,1.1694830530530276
8.805801562135555,2.8797503525991335,7.469194597072068,1.1799140453312764
8.834599065661546,2.8155714025283416,7.480993737525381,1.1846388526791356
8.86275477968683,2.7542499607665585,7.492840126052172,1.184003066696015
8.890297279294495,2.6957228270217097,7.504680156719132,1.178336244995171
8.917254507564712,2.63993440032664,7.5164635191690845,1.1679529926170809
8.943653851567978,2.586834662966672,7.528143049095255,1.153153864675454
8.969522198197645,2.5363775043143715,7.5396745877420095,1.1342261315901438
8.994885973240788,2.4885193425261862,7.551016849057911,1.111444440351522
9.01977116666605,2.443218006643327,7.562131293461426,1.0850713982565945
9.044203346732484,2.400431845753835,7.572982007443992,1.0553580995361254
9.068207665190023,2.3601190355604906,7.583535588439353,1.0225446102441766
9.091808855545628,2.3222370560088383,7.593761034541794,0.9868604226472563
9.115031226105716,2.28674231660577,7.6036296387682665,0.9485248870443989
9.137898649271774,2.253589908740127,7.6131148876387105,0.9077476263755608
9.160434548359175,2.2227334667345606,7.6221923639024665,0.8647289370350838
9.18266188302652,2.1941251215388218,7.630839653272817,0.8196601779042214
9.204603134241909,2.167715532940987,7.63903625505186,0.7727241486627083
9.226280289571319,2.143453987943958,7.646763496538487,0.7240954578528983
9.247714829450759,2.1212885545471543,7.654004451117015,0.6739408808786371
9.26892771499623,2.1011662816035908,7.660743859925802,0.6224197080611139
9.289939377812267,2.083033436705753,7.666968057006413,0.5696840829903906
9.310769712179324,2.0668357752048525,7.6726648978363166,0.5158793316571925
9.331438069931373,2.0525188345017815,7.677823691152889,0.46114428318543627
9.35196325827639,2.040028248678894,7.682435133984743,0.40561158337932446
9.372363540763178,2.029310079383753,7.686491249818537,0.3494080027232862
9.392656641557016,2.0203111596428025,7.689985329845769,0.29265474090777516
9.412859753153445,2.0129794479874485,7.692911877254847,0.23546773038296692
9.43298954763332,2.0072643909292025,7.6952665545586765,0.17795794185397784
9.453062191542612,2.00311729243501,7.697046133977216,0.1202316950171339
9.473093364466962,2.0004916896378377,7.698248450927387,0.06239097819168561
9.49309828136334,1.9993437345783456,7.698872360709304,0.004533780821918687
9.513091718709124,1.9996325823161778,7.698917698517523,-0.053245556891170324
9.533088044532285,2.001320786276642,7.698385242948611,-0.11085597272335604
9.55310125239505,2.0043747022097445,7.697276683221377,-0.16820928481526587
9.573144999417147,2.0087649026293803,7.695594590373224,-0.22521976284519074
9.593232648443442,2.0144666040618824,7.693342392744772,-0.2818036630128143
9.61337731448406,2.0214601098501612,7.690524356114644,-0.33787872182747497
9.633591915582562,2.029731271609741,7.687145568896369,-0.39336360375891216
9.65388922829866,2.0392719726837916,7.6832119328587805,-0.4481772980085585
9.674281948025497,2.0500806370506743,7.678730159878695,-0.5022384600523085
9.694782754396003,2.06216276703787,7.673707775278172,-0.5554646942725215
9.715404382066382,2.07553151280721,7.6681531283354465,-0.6077717750508909
9.736159697194454,2.0902082757869653,7.662075410584937,-0.6590728052892983
9.757061779952323,2.106223346889807,7.655484682532045,-0.7092773136705961
9.778124013421222,2.1236165782801937,7.648391909395339,-0.7582902953403626
9.799360179204024,2.1424380843928463,7.640809006441935,-0.8060112054423328
9.820784560047953,2.162748963540632,7.632748894387512,-0.8523329215336429
9.84241204968336,2.184622025391599,7.624225565172176,-0.8971406999188541
9.864258269937276,2.208142501359603,7.615254158172987,-0.9403111630838558
9.886339694950872,2.2334087039696855,7.605851046542148,-0.9817113715292385
9.908673781990569,2.2605325868783512,7.596033932826856,-1.0211980543676988
9.931279107859352,2.289640138756601,7.585821952283179,-1.0586171001067988
9.954175509246918,2.3208715210171476,7.57523578128211,-1.0938034431030053
9.97738422445709,2.35438083088957,7.56429774685108,-1.1265815230389855
10.000928032765986,2.3903353375123957,7.553031931620691,-1.1567665446900472
10.02483138614111,2.4289140001541782,7.54146426617379,-1.1841668223983073
10.049120526142651,2.4703050362820114,7.529622597949807,-1.2085875554538896
10.073823576505472,2.5147022667934307,7.517536722395268,-1.229836441556226
10.098970599173406,2.5622999329494927,7.505238357979706,-1.247731586148035
10.1245935985029,2.6132856647759417,7.492761042118225,-1.2621121905863861
10.150726455150659,2.6678312988731023,7.480139920212361,-1.2728524799346999
10.17740476813939,2.726081314423462,7.467411395413014,-1.2798792324293573
10.204665581283624,2.788138803219186,7.45461260308872,-1.2831930622132695
10.232546969315816,2.854049136847814,7.441780672466588,-1.282893248058001
10.261087460684294,2.9237818600890626,7.428951739986008,-1.2792053645396482
10.290325279285184,2.997211826472625,7.416159686340611,-1.2725102521497809
10.320297397549911,3.074101172938692,7.403434583819114,-1.263371995400543
10.351038409279298,3.154084335773137,7.390800863865108,-1.2525616631737302
10.38257925263703,3.236658818427065,7.378275247233371,-1.2410727809757924
10.4149458408213,3.3211846670289704,7.365864519423613,-1.230124099383702
10.44815768749159,3.4068954076083493,7.3535632784297755,-1.221145477947923
10.482226641567673,3.492922402626351,7.341351823650296,-1.21574385449314
10.517155865593937,3.5783331515758077,7.329194385105365,-1.215648400376191
10.552939197109694,3.6621821174575984,7.317037901101603,-1.2226369075986847
10.58956101828427,3.743570523300069,7.304811532025616,-1.2384487578109684
10.626996723517271,3.821709687714136,7.292427044447507,-1.2646927996541464
10.665213820394412,3.895981337158084,7.279780116450966,-1.3027603618218997
10.704173633765992,3.9659882979812235,7.266752512832747,-1.3537538781344254
10.743833516745804,4.031590130135212,7.253214974051403,-1.4184399990116832
10.784149418047155,4.092920411383332,7.239030574061286,-1.4972328809091722
10.825078622160989,4.150385066280148,7.224058245252194,-1.590209252586909
10.86658247282379,4.204643800967979,7.208156152726325,-1.6971527276360465
10.90862891083347,4.2565788482197675,7.1911846254499645,-1.8176214913743838
10.951194699315668,4.307256520375617,7.17300841053622,-1.951031503983076
10.994267264519424,4.357887418196419,7.153498095496389,-2.0967469334164965
11.037846138701388,4.409790675717521,7.132530626162224,-2.2541705127801754
11.081944045458563,4.464366607429485,7.1099889210344225,-2.4228285131716305
11.126587711532858,4.523080895103486,7.085760635902706,-2.6024475420014523
11.171818520483892,4.587462315112164,7.059736160482691,-2.7930229678613587
11.217693143635014,4.659115195966438,7.031805930804078,-2.9948811231037884
11.264284295594678,4.739747450178708,7.00185711957304,-3.2087394081353042
11.311681770096465,4.83121520305869,6.969769725491687,-3.4357700457617293
11.359993922127051,4.935585746248929,6.935412025034069,-3.677674657964419
11.40934977958954,5.055221743906156,6.898635278454425,-3.936778262593308
11.459901997028602,5.192891240938581,6.859267495828492,-4.21615287586534
11.511830909437988,5.351909870263955,6.817105967069839,-4.519782615962903
11.565350008140628,5.5363231579797185,6.77190814091021,-4.852783407772383
11.620713239720425,5.751136346719605,6.723380306832486,-5.221688920498328
11.678224603187621,6.002592207934048,6.671163417627503,-5.634804028040277
11.738250525266961,6.29847189180564,6.6148153773471,-6.102591145939759
11.801235244185017,6.64831840313366,6.553789465887703,-6.637949179770172
