th1 (rad),w1 (rad/s),th2 (rad),w2 (rad/s),a1 (rad/s^2),a2 (rad/s^2)
5.86613157510512,-2.243587100555465,2.8015731668462456,2.1443879723215375,4.685282493856354,1.7904165223063504
5.843695704099566,-2.1967342756169015,2.823017046569461,2.162292137544601,5.230040797128124,2.7044233522889036
5.821728361343396,-2.14443386764562,2.844639967944907,2.18933637106749,5.703135840827427,3.511668187199502
5.80028402266694,-2.0874025092373456,2.8665333316555817,2.2244530529394853,6.095981246171541,4.202180207242859
5.779409997574566,-2.0264426967756304,2.8887778621849765,2.266474855011914,6.404328676006174,4.772210466196184
5.75914557060681,-1.9623994100155686,2.9114426107350955,2.314196959673876,6.627909953055839,5.223673390508973
5.739521576506655,-1.8961203104850102,2.9345845803318342,2.3664336935789656,6.769820199768453,5.563207714871392
5.7205603734018045,-1.8284221084873256,2.958248917267624,2.4220657707276794,6.835751839239616,5.80102518218603
5.702276152316931,-1.7600645900949294,2.9824695749749006,2.4800760225495395,6.83318433262831,5.949706332662943
5.6846755064159815,-1.6917327467686463,3.007270335200396,2.539573085876169,6.770615624418082,6.023072321304956
5.667758178948295,-1.6240265905244655,3.0326660660591576,2.599803809089219,6.656895172810753,6.035220672260319
5.651517913043051,-1.557457638796358,3.0586641041500497,2.660156015811822,6.500691366594602,5.999770952068606
5.635943336655087,-1.492450725130412,3.085265664308168,2.7201537253325077,6.310102597789085,5.929330487409668
5.621018829403783,-1.4293496991525212,3.1124672015614934,2.7794470302066046,6.092403725783644,5.835164091983442
5.606725332412258,-1.3684256618946848,3.140261671863559,2.837798671126439,5.853908729083093,5.727035994896373
5.593041075793311,-1.309886574603854,3.1686396585748238,2.895069031075403,5.599925279583978,5.613185461734477
5.579942210047272,-1.2538873218080142,3.1975903488855777,2.9512008856927476,5.3347763890650395,5.500397650797779
5.567403336829192,-1.2005395579173639,3.2271023577425053,3.0062048622007254,5.06186660083662,5.3941355512130515
5.5553979412500185,-1.1499208919089976,3.2571644063645127,3.0601462177128558,4.783774040308851,5.2987052440900975
5.543898732330929,-1.102083151505909,3.287765868541641,3.1131332701537566,4.502353944405043,5.217433616510729
5.53287790081587,-1.0570596120618587,3.3188972012431788,3.165307606318864,4.2188433754676,5.1528440325905205
5.522307304695252,-1.0148711783071827,3.3505502773063673,3.216836046644769,3.9339603200038264,5.106820809284491
5.51215859291218,-0.9755315751071444,3.382718637772815,3.2679042547376143,3.6479931380619246,5.08075749289232
5.502403277161108,-0.9390516437265252,3.4153976803201913,3.3187118296665377,3.3608783758319314,5.075686939921108
5.493012760723843,-0.9054428599682058,3.4485847986168565,3.3694686990657488,3.072266373399914,5.092393239726439
5.483958332124161,-0.8747201962342067,3.482279485607514,3.420392631463013,2.7815750147869,5.131506781272506
5.475211130161819,-0.8469044460863377,3.516483411922144,3.471707699275738,2.4880325040170987,5.193584461580278
5.466742085700956,-0.8220241210461667,3.551200488914901,3.523643543891541,2.1907103209880616,5.279177329642354
5.458521844490494,-0.8001170178362861,3.5864369243538166,3.5764353171879644,1.8885476068200557,5.388887990771627
5.450520674312131,-0.7812315417680855,3.622201277525696,3.6303241970956805,1.5803682229886813,5.523419959799964
5.44270835889445,-0.7654278595381987,3.658504519496653,3.68555839669368,1.264891678291372,5.683620911504659
5.435054080299068,-0.752778942755285,3.6953601034635897,3.7423946058087267,0.9407390672519481,5.870521468843485
5.427526290871515,-0.7433715520827655,3.732784049521677,3.8010998204971616,0.6064351513894097,6.085370804751944
5.4200925753506874,-0.7373072005688714,3.7707950477266485,3.861953528544681,0.26040777915023516,6.329669898498807
5.412719503344999,-0.734703122777369,3.8094145830120953,3.925250227529669,-0.0990139737397827,6.605202744672498
5.405372472117225,-0.7356932625147669,3.848667085287392,3.991302254976394,-0.4736011938472567,6.914065092368023
5.398015539492078,-0.7404292744532395,3.8885801078371562,4.060442905900074,-0.8652236628539911,7.2586892819829245
5.390611246747545,-0.7490815110817793,3.929184536896157,4.133029798719903,-1.2758421105953457,7.641862272999157
5.383120431636727,-0.7618399321877328,3.9705148348833563,4.209448421449895,-1.7074891325618717,8.06673175089417
5.3755020323148495,-0.7789148235133515,4.012609319097855,4.2901157389588365,-2.1622311883734397,8.536791856754773
5.367712884079716,-0.8005371353970859,4.055510476487443,4.3754836575263845,-2.6421002237339426,9.05583497891683
5.359707512725746,-0.8269581376344254,4.099265313062707,4.4660420073155525,-3.148977561944233,9.627848245959079
5.351437931349402,-0.8584479132538677,4.1439257331358625,4.562320489775143,-3.6844037936016965,10.25682147038301
5.342853452216863,-0.8952919511898847,4.189548938033614,4.664888704478973,-4.249275015899578,10.94641528196286
5.3339005327049644,-0.9377847013488805,4.236197825078404,4.774352857298602,-4.843365950460937,11.699411217011052
5.324522685691476,-0.9862183608534898,4.2839413536513895,4.891346969468713,-5.464591673928305,12.516825897495012
5.314660502082941,-1.0408642775927728,4.332854823346077,5.016515228443663,-6.107879244144737,13.39651503277244
5.304251859307014,-1.10194307003422,4.383019975630513,5.1504803787713875,-6.763466955860192,14.33101707714422
5.293232428606672,-1.169577739592822,4.434524779418227,5.2937905495428295,-7.414385943244799,15.3042946964186
5.281536651210743,-1.24372159902527,4.487462684913655,5.446833496507016,-8.032824160692112,16.28694717771878
5.2690994352204905,-1.324049840632191,4.541931019878725,5.6097029682842035,-8.575077776454576,17.229456226306333
5.255858936814168,-1.4098006183967366,4.5980280495615675,5.781997530547267,-8.974980938499383,18.053254311298893
5.241760930630201,-1.4995504277817304,4.655848024867041,5.962530073660256,-9.136317306222425,18.640203669026548
5.226765426352383,-1.5909136008439546,4.715473325603643,6.148932110350521,-8.926166795805932,18.823012233463487
5.210856290343943,-1.680175268802014,4.776962646707148,6.337162232685156,-8.173897411167774,18.382848159883917
5.194054537655923,-1.7619142429136918,4.840334269034,6.520990714283995,-6.684494849275284,17.065871190536125
5.176435395226786,-1.8287591914064447,4.90554417617684,6.691649426189356,-4.277913256870511,14.634581863895464
5.158147803312722,-1.8715383239751497,4.972460670438734,6.837995244828311,-0.861643807250657,10.963939914017857
5.13943242007297,-1.8801547620476564,5.040840622887017,6.947634643968489,3.4774916967539617,6.163472544261862
5.120630872452494,-1.8453798450801169,5.110316969326702,7.009269369411108,8.412743482761762,0.6571123665784623
5.102177074001692,-1.7612524102524993,5.1804096630208125,7.015840493076892,13.416989637966484,-4.872246247562113
5.084564549899167,-1.6270825138728344,5.250568067951582,6.967118030601271,17.92218176862991,-9.698561803723939
5.068293724760439,-1.4478606961865355,5.320239248257594,6.870132412564032,21.516142088455876,-13.314844398966027
5.053815117798574,-1.2326992753019768,5.388940572383234,6.736983968574371,24.050073337887564,-15.570488497799698
5.041488125045554,-0.9921985419231011,5.456310412068977,6.581279083596375,25.608600415888365,-16.622422756165236
5.031566139626323,-0.7361125377642175,5.522123202904941,6.415054856034722,26.401394978126827,-16.784202602763788
5.024205014248681,-0.4720985879829492,5.5862737514652885,6.247212830007084,26.660146220325863,-16.38722605550742
5.0194840283688515,-0.20549712577969054,5.648745879765359,6.08334056945201,26.580295254780413,-15.705300899121065
5.0174290571110545,0.06030582676811358,5.7095792854598795,5.926287560460799,26.303436643168535,-14.93458170164928
5.018032115378736,0.32334019319979895,5.768842161064487,5.776941743444306,25.92186139104616,-14.202506495116584
5.0212655173107335,0.5825588071102605,5.82661157849893,5.63491667849314,25.490480620662336,-13.585513120099032
5.027091105381836,0.8374636133168839,5.882960745283862,5.4990615472921505,25.038677181610044,-13.125694874452334
5.035465741515005,1.0878503851329844,5.9379513607567835,5.367804598547627,24.57959442325228,-12.843360217060159
5.046344245366335,1.3336463293655072,5.99162940674226,5.239370996377025,24.116677614745655,-12.745515185534206
5.0596807086599895,1.5748131055129637,6.04402311670603,5.1119158445216835,23.648035937448682,-12.831215226294605
5.075428839715119,1.8112934648874506,6.095142275151247,4.983603692258737,23.169275624343168,-13.094776781618847
5.0935417743639935,2.0429862211308825,6.144978312073834,4.852655924442549,22.675324963665837,-13.527621688517254
5.113971636575302,2.269739470767541,6.19350487131826,4.7173797075573765,22.16161447798889,-14.119292278399561
5.1366690312829775,2.49135561554743,6.240678668393834,4.576186784773381,21.62484775302192,-14.857991327256146
5.161582587438452,2.707604093077649,6.286440536241567,4.42760687150082,21.063508194714192,-15.73087370865765
5.188658628369228,2.918239175024791,6.330716604956575,4.270298134414244,20.478187799814826,-16.7242329655374
5.217841020119476,3.123021053022939,6.3734195863007175,4.10305580475887,19.87178709582589,-17.82367196530255
5.249071230649705,3.321738923981198,6.414450144348306,3.924819085105844,19.249613565157844,-19.01431142243889
5.282288619889517,3.5142350596327767,6.453698335199364,3.734675970881455,18.619393977012386,-20.28106593761732
5.3174309704858445,3.7004289994029005,6.491045094908179,3.531865311505282,17.99121057577313,-21.608999604065165
5.354435260479874,3.880341105160632,6.526363748023232,3.3157753154646303,17.377369533839353,-22.98375931459021
5.39323867153148,4.0541148004990255,6.559521501177878,3.0859377223187283,16.792210577810884,-24.392071945353457
5.433779819536471,4.222036906277134,6.590380878401065,2.8420170028651937,16.251867588691077,-25.822280432431786
5.476000188599242,4.384555582164045,6.6188010484297175,2.583794198540876,15.773989563032217,-27.26488227168552
5.519845744420882,4.542295477794367,6.644638990415126,2.3111453758240206,15.377427566016596,-28.713020518844967
5.5652686991988265,4.696069753454533,6.667750444173366,2.024015170635571,15.081883432318365,-30.162859056683015
5.612229396733372,4.846888587777717,6.687990595879722,1.7223865800687408,14.907495818002198,-31.613745535947224
5.660698282611149,4.995963545957739,6.705214461680409,1.4062491247092685,14.874302156128229,-33.06801784994589
5.710657918070726,5.144706567519021,6.719276952927502,1.0755689462098097,15.001450239657016,-34.53022763508517
5.762104983745917,5.2947210699155915,6.7300326423896,0.7302666698589579,15.30592259207107,-36.00541113480554
5.815052194445072,5.447780295836302,6.73733530908819,0.3702125585109025,15.800351598894894,-37.495792455578176
5.869529997403435,5.605783811825251,6.741037434673299,-0.00474536604487924,16.48920017772556,-38.99489573130967
5.9255878355216876,5.770675813602507,6.7409899810128495,-0.39469432335797594,17.36210653939138,-40.47739560603973
5.983294593657712,5.944296878996421,6.737043037779269,-0.7994682794183732,18.38250534221832,-41.8821040818159
6.042737562447677,6.128121932418604,6.7290483549850855,-1.2182893202365321,19.468836773136992,-43.08442529984266
6.104018781771862,6.322810300149974,6.71686546178272,-1.6491335732349588,20.465308530941382,-43.854237756810136
6.167246884773362,6.527463385459388,6.70037412605037,-2.0876759508030602,21.101156177024187,-43.79817145114618
6.232521518627956,6.73847494722963,6.679497366542339,-2.525657665314522,20.946320766049045,-42.298267303868876
6.299906268100252,6.94793815489012,6.654240789889194,-2.9486403383532105,19.39562861648423,-38.49359601131257
6.369385649649153,7.141894441054962,6.6247543865056615,-3.333576298466336,15.757009661214923,-31.413073266882243
6.440804594059703,7.299464537667111,6.591418623520998,-3.6477070311351585,9.548586376537791,-20.40830764933641
6.5137992394363735,7.394950401432489,6.554941553209646,-3.8517901076285224,1.0041205092351442,-5.883067249031241
6.587748743450699,7.40499160652484,6.516423652133361,-3.9106207801188346,-8.562418415012027,10.183297698742974
6.661798659515947,7.31936742237472,6.477317444332173,-3.808787803131405,-17.131460344365827,24.777471791752216
6.734992333739694,7.1480528189310615,6.439229566300859,-3.561013085213883,-23.081405493789685,35.4487168916377
6.806472861929004,6.917238763993165,6.40361943544872,-3.206525916297506,-26.00282436646444,41.50243396749145
6.875645249568936,6.657210520328521,6.371554176285745,-2.7915015766225917,-26.510120404166077,43.75407453359568
6.942217354772221,6.39210931628686,6.343639160519519,-2.353960831286635,-25.544806739540835,43.53422966671242
7.006138447935089,6.136661248891452,6.320099552206653,-1.9186185346195108,-23.89092119259859,41.98006597009133
7.067505060424003,5.897752036965466,6.300913366860458,-1.4988178749185974,-22.04767886626622,39.83551198243563
7.126482580793658,5.677275248302804,6.285925188111272,-1.1004627550942412,-20.28242892687339,37.515414303073364
7.183255333276686,5.47445095903407,6.2749205605603295,-0.7253086120635075,-18.716645341626638,35.22330527137595
7.237999842867027,5.287284505617803,6.267667474439694,-0.373075559349748,-17.39159287339192,33.04400189142959
7.290872687923205,5.113368576883884,6.263936718846197,-0.042635540435452146,-16.3083677370479,31.001330269018087
7.342006373692044,4.950284899513405,6.263510363441842,0.26737776225472876,-15.449800064106661,29.09047943212762
7.391509222687178,4.795786898872338,6.2661841410643895,0.558282556576005,-14.791655244464712,27.295070073948267
7.439467091675901,4.647870346427691,6.27176696663015,0.8312332573154877,-14.308041962796581,25.595749158818787
7.485945795140178,4.504789926799726,6.2800792992033045,1.0871907489036756,-13.97384094243471,23.974280831219687
7.530993694408175,4.365051517375378,6.290951206692341,1.3269335572158725,-13.765665607533236,22.41530245585905
7.574644209581929,4.227394861300046,6.3042205422645,1.551086581774463,-13.662136711847747,20.90689337194195
7.616918158194929,4.090773494181568,6.319731408082244,1.7601555154938826,-13.643864096307734,19.440553666002884
7.657825893136745,3.9543348532184908,6.337332963237183,1.9545610521539114,-13.693326318494313,18.01090117343275
7.697369241668929,3.8174015900335476,6.356878573758722,2.134670063888239,-13.794735125915665,16.615245200379395
7.735543257569265,3.679454238774391,6.378225274397605,2.300822515892033,-13.933919382796839,15.253118689099793
7.772337799957009,3.5401150449464227,6.401233499556525,2.4533537027830308,-14.098237356259292,13.925811497419685
7.807738950406473,3.3991326713838297,6.4257670365843556,2.5926118177572275,-14.27651438262865,12.63592767227494
7.841730277120312,3.256367527557543,6.451693154761927,2.718971094479977,-14.458998209865578,11.3869794741623
7.874293952395887,3.1117775454588874,6.478882865706727,2.8328408892216,-14.637323271142638,10.183025511699988
7.905411727850476,2.965404312747461,6.507211274598943,2.9346711443386,-14.804475947013735,9.028357172848766
7.935065770977951,2.8173595532773237,6.53655798604233,3.0249547160670875,-14.954754525104407,7.927235370871835
7.963239366510724,2.6678120080262797,6.566807533203001,3.104227069775806,-15.083719515913922,6.8836779034224485
7.989917486590986,2.5169748128671405,6.5978498039007585,3.1730638488100302,-15.188131918854245,5.90129623476709
8.015087234719658,2.365093493678598,6.629580442388859,3.232076811157701,-15.265878775751407,4.983179199059325
8.038738169656444,2.212434705921084,6.661901210500436,3.2819086031482945,-15.315886801480264,4.13182000046813
8.060862516715655,2.059275837906281,6.694720296531919,3.3232268031529757,-15.338025996492192,3.3490819870944133
8.081455275094719,1.9058955779413593,6.727952564563449,3.3567176230239197,-15.333005912505424,2.636198028254676
8.100514230874133,1.7525655188163052,6.761519740793688,3.3830796033064665,-15.3022676748021,1.9937979412668043
8.118039886062295,1.5995428420682842,6.795350536826752,3.4030175827191345,-15.247874994862908,1.4219582875627585
8.134035314482977,1.4470640921196551,6.829380712653943,3.417237165594762,-15.172407280035245,0.9202689636708251
8.148505955404174,1.2953400193193028,6.863553084309891,3.4264398552314703,-15.078857613657089,0.48791130993439447
8.161459355597367,1.144551443182732,6.897817482862206,3.4313189683308143,-14.97053789183862,0.12374289691145739
8.172904870029194,0.9948460642643457,6.932130672545514,3.432556397299929,-14.850992810482511,-0.17361533315541589
8.182853330671838,0.8463361361595206,6.966456236518513,3.4308202439683746,-14.723923738426445,-0.40569335829389785
8.191316692033434,0.6990968987752562,7.000764438958197,3.426763310385436,-14.59312281803563,-0.5740911059093108
8.198307661021186,0.5531656705948998,7.035032072062052,3.421022399326343,-14.462416915942754,-0.6804051553735081
8.203839317727136,0.4085415014354723,7.069242296055315,3.414218347772608,-14.335620298354963,-0.726165872109044
8.20792473274149,0.2651852984519227,7.103384479533042,3.4069566890515177,-14.216494100649635,-0.7127878213153377
8.21057658572601,0.12302035744542633,7.137454046423557,3.3998288108383643,-14.108709748777782,-0.6415367613721512
8.211806789300464,-0.01806674004235148,7.171452334531941,3.393413443224643,-14.015812391179772,-0.5135174463753488
8.211626121900041,-0.1582248639541492,7.205386468964187,3.3882782687608897,-13.94117900312055,-0.32968802256392715
8.2100438732605,-0.29763665398535466,7.2392692516517965,3.3849813885352504,-13.887963983013073,-0.09090917545277744
8.207067506720646,-0.4365162938154854,7.273119065537149,3.384072296780723,-13.85902258777833,0.20196038774866196
8.20270234378249,-0.5751065196932688,7.306959788504956,3.3860919006582093,-13.85679923826941,0.5479057732361267
8.196951278585558,-0.7136745120759629,7.340820707511538,3.3915709583905707,-13.883163355194082,0.9455123294244766
8.1898145334648,-0.8525061456279037,7.374736417095444,3.4010260816848152,-13.939169831268334,1.392605784897018
8.18128947200852,-0.991897843940587,7.408746677912292,3.4149521395337854,-14.024714633860368,1.8857354499501582
8.171370493569114,-1.1321449902791907,7.44289619930763,3.433809494033287,-14.1380491020499,2.4194495111476373
8.160049043666323,-1.2735254812996897,7.477234294247963,3.458003989144763,-14.27511126263859,2.9853033817436163
8.147313788853326,-1.4162765939260755,7.511814334139411,3.4878570229621992,-14.428633363477879,3.570542487528716
8.133151022914065,-1.5605629275608544,7.546692904369032,3.5235624478374863,-14.587000408234788,4.156421900854895
8.117545393638457,-1.7064329316432023,7.581928528847407,3.565126666846035,-14.7328798051014,4.716188148892637
8.100481064322025,-1.8537617296942164,7.6175797955158675,3.6122885483349614,-14.841740472286673,5.212886181969568
8.081943447025083,-2.002179134417083,7.653702680999217,3.664417410154657,-14.880560024352967,5.597408484728962
8.061921655680912,-2.150984734660613,7.690346855100763,3.7203914950019468,-14.807302781724502,5.807605330541914
8.040411808334307,-2.299057762477858,7.727550770050783,3.7784675483073658,-14.572117114459274,5.769795561343654
8.017421230709529,-2.444778933622451,7.765335445533856,3.8361655039208022,-14.121512550665146,5.404467188609018
7.992973441373304,-2.5859940591291024,7.803697100573064,3.8902101758068923,-13.406704827418514,4.63787276748872
7.9671135007820135,-2.7200611074032874,7.842599202331133,3.9365889034817796,-12.39634460824591,3.419877591313003
7.939912889707981,-2.8440245534857467,7.8819650913659505,3.9707876793949097,-11.091577436779536,1.745244076168658
7.911472644173124,-2.954940327853542,7.9216729681599,3.9882401201565965,-9.53827401387533,-0.3288427367179887
7.881923240894588,-3.0503230679922955,7.961555369361466,3.9849516927894166,-7.829315424556027,-2.678998698436283
7.851420010214666,-3.1286162222378557,8.00140488628936,3.958161705805054,-6.091861437045481,-5.132817705820168
7.820133847992287,-3.1895348366083107,8.04098650334741,3.9068335287468523,-4.461392098775082,-7.504655497498101
