th1 (rad),w1 (rad/s),th2 (rad),w2 (rad/s),a1 (rad/s^2),a2 (rad/s^2)
5.884809143189274,-1.9757803839793688,3.4440412134461633,-3.0296477181357977,4.124364227127241,8.588608229032346
5.86505133934948,-1.9345367417080965,3.4137447362648055,-2.9437616358454743,4.4891981470292635,8.478769890932718
5.845705971932399,-1.889644760237804,3.384307119906351,-2.858973936936147,4.829579008974443,8.355882052230879
5.826809524330021,-1.8413489701480594,3.3557173805369893,-2.7754151164138383,5.146459375381172,8.221553980897799
5.80839603462854,-1.7898843763942478,3.327963229372851,-2.69319957660486,5.440863616073521,8.077412805995207
5.790497190864597,-1.7354757402335126,3.3010312336068024,-2.6124254485449083,5.713867342078631,7.925080959122446
5.7731424334622625,-1.6783370668127262,3.2749069791213534,-2.533174638953684,5.966579120071724,7.766157188699859
5.756359062794135,-1.618671275612009,3.2495752327318166,-2.4555130670666854,6.200124405254665,7.6022007836356815
5.740172350038015,-1.5566700315594624,3.2250201020611495,-2.3794910592303284,6.415631568451453,7.434718622497709
5.72460564972242,-1.4925137158749477,3.201225191468846,-2.3051438730053513,6.614219852319756,7.265154663289519
5.709680512563671,-1.4263715173517502,3.1781737527387928,-2.232492326372456,6.796989067526377,7.094881501693448
5.695416797390154,-1.3584016266764865,3.1558488294750684,-2.1615435113555215,6.965010828560373,6.925193647407766
5.681832781123389,-1.2887515183908826,3.1342333943615133,-2.0922915748814437,7.119321127114379,6.757302195127633
5.66894526593948,-1.217558307119739,3.113310478612699,-2.0247185529301674,7.260914045803188,6.59233059588255
5.6567696828682825,-1.144949166661707,3.0930632930833974,-1.9587952469713419,7.390736424162067,6.431311263780104
5.645320191201665,-1.0710418024200865,3.073475340613684,-1.8944821343335407,7.509683300694464,6.275182781385454
5.6346097731774645,-0.9959449694131419,3.0545305192703487,-1.8317303065196862,7.618593968036075,6.124787493261603
5.624650323483333,-0.9197590297327811,3.0362132162051516,-1.7704824315870702,7.718248492305431,5.980869301359316
5.615452733186006,-0.8425765448097268,3.0185083918892808,-1.710673738573477,7.80936456199658,5.84407149809496
5.607026967737908,-0.764482899189761,3.001401654503546,-1.6522330235925273,7.892594546179115,5.714934493475387
5.5993821387460105,-0.6855569537279698,2.9848793242676206,-1.5950836786577733,7.96852265634987,5.593893312100277
5.592526569208731,-0.605871727164471,2.9689284874810427,-1.5391447455367706,8.037662121221988,5.481274755003979
5.586467851937086,-0.5254951059522511,2.953537040025675,-1.4843319979867309,8.100452299338187,5.37729414089049
5.5812129008775635,-0.44449058295886923,2.9386937200458076,-1.430559056577826,8.157255671021895,5.282051562218347
5.576767995047975,-0.36291802624865027,2.9243881294800294,-1.3777385409556424,8.208354669235188,5.195527614684185
5.573138814785488,-0.28083447955629837,2.910610744070473,-1.3257832648088006,8.25394832880945,5.1175785848089
5.570330469989925,-0.19829499626820385,2.897352911422385,-1.2746074789607116,8.294148755648317,5.047931110390664
5.568347520027244,-0.11535350871172068,2.8846068366327775,-1.224128167856805,8.328977442219712,4.986176363324648
5.567193984940126,-0.032063734289523554,2.8723655549542095,-1.1742664042235584,8.358361483219245,4.9317638443507725
5.566873347597231,0.051519880542668886,2.8606228909119737,-1.1249487657800508,8.382129775841976,4.883994925145037
5.567388546402658,0.13534117830108866,2.849373403254173,-1.0761088165286004,8.400009322614501,4.842016325022978
5.568741958185669,0.21934127152723368,2.838612315088887,-1.0276886532783707,8.41162179096145,4.8048137672264914
5.5709353709009415,0.3034574894368482,2.828335428556103,-0.9796405156061058,8.416480522076215,4.771206122708276
5.57396994579531,0.38762229465761033,2.8185390234000423,-0.931928454379023,8.413988221362903,4.739840416327753
5.577846168741885,0.47176217687123934,2.809219738856252,-0.8845300502157455,8.403435602452449,4.709188139558334
5.582563790510598,0.5557965328957638,2.8003744383540945,-0.8374381688201622,8.384001294879523,4.677543382522257
5.5881217558395555,0.639636545844559,2.7920000566658927,-0.7906627349949397,8.354753359800887,4.643023362904262
5.594518121298001,0.7231840794425679,2.784093429315943,-0.744232501365897,8.314652786076374,4.603571985659966
5.601749962092427,0.8063306073033316,2.7766511043022843,-0.6981967815092973,8.262559357687913,4.556967110207664
5.60981326816546,0.8889562008802108,2.7696691364871913,-0.6526271104072207,8.1972402896545,4.500832225057112
5.6187028301742625,0.9709286037767557,2.763142865383119,-0.6076187881566495,8.117382020040267,4.43265322720843
5.62841211621203,1.0521024239771584,2.7570666775015527,-0.5632922558845652,8.021605517217791,4.349800968663006
5.638933140451802,1.1323184791493364,2.751433754942707,-0.5197942461979351,7.90848541151384,4.249560158880903
5.650256325243295,1.2114033332644747,2.7462358124807276,-0.4772986446091261,7.7765731866989665,4.129165094728832
5.66237035857594,1.2891690651314645,2.741462826034636,-0.43600699366183776,7.624424568423691,3.98584252457278
5.675262049227254,1.3654133108157014,2.7371027560980177,-0.39614856841610996,7.450631123782395,3.8168617388747395
5.6889161823354115,1.4399196220535253,2.7331412704138565,-0.3579799510273626,7.253855940145191,3.619591716627046
5.7033153785559465,1.5124581814549771,2.7295614709035827,-0.3217840338610921,7.032873084986697,3.3915648486699825
5.718439960370496,1.5827869123048441,2.7263436305649718,-0.2878683853743923,6.786610365540017,3.1305464117521082
5.734267829493544,1.6506530159602444,2.723464946711228,-0.2565629212568712,6.51419471241957,2.8346085902409377
5.750774359653146,1.71579496308444,2.720899317498659,-0.2282168353544618,6.214999310003847,2.502207447241768
5.7679323092839905,1.7779449561844785,2.7186171491451145,-0.20319476088204413,5.888691393475021,2.1322608470987756
5.785711758845835,1.8368318701192288,2.716585201536294,-0.18187215241105636,5.53527943284194,1.724224941986757
5.804080077547027,1.892184664447648,2.7147664800121833,-0.1646299029911888,5.155158232661529,1.278166473104202
5.823001924191503,1.9437362467742634,2.7131201809822714,-0.15184823826014676,4.749150297383803,0.7948278199832123
5.842439286659246,1.9912277497481015,2.71160169859967,-0.14389996006031464,4.318541652342723,0.27568148001652565
5.862351564156727,2.034413166271529,2.710162698999067,-0.14114314526014937,3.865110178105559,-0.27702950184880387
5.882695695819442,2.0730642680525846,2.7087512675464653,-0.14391344027863742,3.3911444242241005,-0.8602686780106723
5.903426338499968,2.1069757122948256,2.707312133143679,-0.15251612705874415,2.899450836345952,-1.4702043362699846
5.924496095622916,2.1359702206582853,2.7057869718730916,-0.167218170421444,2.393347383798808,-2.102231754152666
5.945855797829499,2.1599036944962733,2.704114790168877,-0.18824048796297066,1.8766417449136312,-2.7510221669868
5.967454834774462,2.1786701119454097,2.7022323852892476,-0.21575070963283866,1.3535925296363842,-3.4106002532311606
5.989241535893916,2.1922060372417738,2.700074878192919,-0.24985671216515026,0.8288525266264356,-4.074450850907286
6.011163596266334,2.2004945625080383,2.6975763110712676,-0.2906012206742231,0.3073936785952923,-4.735654228463206
6.033168541891414,2.2035684992939912,2.6946702988645255,-0.33795776295885516,-0.2055855806176586,-5.387047571239477
6.055204226884354,2.2015126434878147,2.691290721234937,-0.39182823867124994,-0.7047688755489451,-6.0214084859211345
6.077219353319232,2.194464954732325,2.6873724388482247,-0.4520423235304613,-1.1848433282491944,-6.63165439737716
6.099164002866555,2.1826165214498334,2.6828520156129203,-0.5183588675042329,-1.6406296184338356,-7.2110498933002845
6.120990168081053,2.166210225265495,2.677668426937878,-0.5904693664372357,-2.0672152330418334,-7.753412577933248
6.142652270333708,2.145538072935077,2.671763733273506,-0.6680034922165682,-2.4600845750853817,-8.253307054950664
6.164107651063059,2.120937227184223,2.66508369835134,-0.7505365627660748,-2.81523912183084,-8.706216475550741
6.1853170233349015,2.0927848359659147,2.6575783327236793,-0.8375987275215823,-3.129300886086315,-9.108681800737704
6.206244871694561,2.0614918271050517,2.6492023454484634,-0.9286855455289593,-3.3995931094299,-9.458400574713611
6.226859789965611,2.0274958960107528,2.639915489993174,-1.0232695512760954,-3.6241933918091562,-9.754279501907996
6.247134748925719,1.9912539620926613,2.629682794480413,-1.1208123462951753,-3.8019562401582947,-9.996438248518505
6.267047288546645,1.9532343996910784,2.618474671017461,-1.2207767287803604,-3.932504122533747,-10.18616533116748
6.286579632543556,1.913909358465741,2.6062669037296575,-1.322638382092035,-4.0161883123906845,-10.325830332758775
6.305718726128213,1.8737474753418342,2.593040519908737,-1.425896685419623,-4.054022851083522,-10.418759623231697
6.324456200881632,1.833207246830999,2.578781553054541,-1.5300842816519398,-4.047596620063043,-10.469084948557436
6.342788273349941,1.7927312806303686,2.5634807102380215,-1.634775131137514,-3.9989696318109336,-10.481575485397038
6.360715586156245,1.7527415843122593,2.5471329589266465,-1.7395908859914844,-3.910560137583296,-10.461464180222917
6.378243001999368,1.7136359829364265,2.5297370500667316,-1.8442055277937135,-3.7850290171492076,-10.414278476501442
6.3953793618287325,1.6757856927649344,2.5112949947887944,-1.948348312558728,-3.6251672463001365,-10.345684069132917
6.412137218756381,1.639534020301933,2.491811511663207,-2.051805153250057,-3.4337911728780783,-10.261348368035653
6.428532558959401,1.6051961085731523,2.4712934601307066,-2.1544186369304135,-3.213649038475099,-10.166828179785577
6.444584520045133,1.5730596181884013,2.4497492737614026,-2.2560869187282693,-2.9673408253356213,-10.067483982633975
6.460315116227017,1.543386209935045,2.42718840457412,-2.356761758554609,-2.697252225816874,-9.968421277862241
6.475748978326368,1.5164136876768763,2.403620786988574,-2.4564459713332316,-2.405502425842834,-9.874457982138653
6.490913115203137,1.492358663418448,2.379056327275242,-2.555190551154618,-2.0939045219762837,-9.790115743834624
6.505836701837321,1.4714196181986852,2.3535044217636956,-2.653091708592964,-1.7639367722899604,-9.719632422895058
6.520550898019308,1.4537802504757855,2.326973504677766,-2.750288032821915,-1.4167225011737512,-9.666992725613442
6.535088700524065,1.439613025464048,2.2994706243495466,-2.8469579600780492,-1.0530163039811684,-9.635974061771254
6.549484830778706,1.4290828624242364,2.271001044748766,-2.943317700695762,-0.6731941853861272,-9.630205009384014
6.563775659402948,1.4223509205703753,2.2415678677418085,-3.039619750789602,-0.27724537106599245,-9.653234248820054
6.577999168608652,1.4195784668597153,2.2111716702339126,-3.136152093277803,0.13523628206781693,-9.708608386877446
6.592194953277248,1.4209308296803935,2.1798101493011344,-3.2332381771465775,0.5650631120983628,-9.799957664200798
6.606404261574053,1.4265814608013772,2.1474777675296686,-3.3312377537885856,1.0134682642795343,-9.931089062618442
6.6206700761820665,1.4367161434441724,2.1141653899917827,-3.43054864441477,1.4821252926770425,-10.106086735079765
6.635037237616508,1.4515373963709428,2.079859903547635,-3.5316095117655677,1.9731735017133236,-10.329419883306244
6.6495526115802175,1.4712691313880761,2.044543808429979,-3.63490371059863,2.4892491243549943,-10.606058076923146
6.664265302894099,1.496161622631626,2.0081947713239927,-3.740964291367862,3.0335214130863113,-10.941593329546816
6.679226919120415,1.5264968367624892,1.9707851284103142,-3.85038022466333,3.609731048532552,-11.342366661042846
6.69449188748804,1.5625941472478146,1.9322813261636809,-3.9638038912737583,4.222225470564109,-11.815593764007323
6.7101178289605174,1.6048164019534557,1.8926432872509433,-4.081959828913831,4.875981004776757,-12.36947870155168
6.726165992980052,1.6535762120012232,1.851823688961805,-4.205654615929348,5.576593643596052,-13.013294491980023
6.7427017551000645,1.7093421484371838,1.8097671428025115,-4.335787560849148,6.330206777054303,-13.757391918511798
6.759795176584436,1.772644216207727,1.76640926719402,-4.473361480034266,7.143321248769248,-14.613067744139434
6.777521618746514,1.8440774286954194,1.7216756523936771,-4.61949215747566,8.022394502211053,-15.592171984054605
6.795962393033468,1.9243013737175299,1.6754807308189206,-4.775413877316207,8.97307089200175,-16.706246554411322
6.815205406770644,2.0140320826375473,1.6277265920457584,-4.94247634286032,9.998777939425215,-17.964841305551527
6.835345727597019,2.1140198620317996,1.5783018286171553,-5.122124755915835,11.098248664629395,-19.37241307209485
6.856485926217338,2.2250023486780934,1.527080581057997,-5.3158488866367835,12.26125567243581,-20.922832049704052
6.878735949704119,2.3476149054024518,1.4739220921916292,-5.525077207133824,13.461439921253008,-22.5899539903945
6.9022120987581435,2.482229304614982,1.418671320120291,-5.750976747037769,14.644608736373028,-24.311989817909435
6.927034391804293,2.628675391978712,1.3611615526499132,-5.994096645216864,15.710480364592804,-25.966802518883398
6.95332114572408,2.78578019562464,1.3012205861977446,-6.2537646704056975,16.486338216867175,-27.335833304519618
6.981178947680326,2.9506435777933118,1.2386829394936876,-6.527123003450893,16.694484034847335,-28.058934183922524
7.010685383458259,3.1175884181417852,1.1734117094591787,-6.807712345290119,15.925953395741546,-27.5967975830598
7.0418612676396775,3.276847952099201,1.1053345860062775,-7.083680321120717,13.655788740693191,-25.24909195372727
7.074629747160669,3.4134058395061326,1.0344977827950703,-7.33617124065799,9.36549147685821,-20.318452018454728
7.10876380555573,3.5070607542747148,0.9611360703884904,-7.539355760842537,2.8328913288804216,-12.503545599581392
7.143834413098477,3.535389667563519,0.885742512780065,-7.664391216838351,-5.484560163387727,-2.419748573910525
7.179188309774112,3.480544065929642,0.8090986006116815,-7.688588702577456,-14.309750209876475,8.215278831852205
7.213993750433408,3.337446563830877,0.7322127135859069,-7.606435914258934,-22.0110625296962,17.224517273582197
7.247368216071717,3.117335938533915,0.6561483544433175,-7.434190741523111,-27.44668438222739,23.12242196113029
7.278541575457056,2.8428690947116415,0.5818064470280864,-7.202966521911809,-30.422709408309633,25.720456648988772
7.306970266404172,2.538642000628545,0.5097767818089682,-6.945761955421921,-31.45179613610056,25.774068952874266
7.332356686410458,2.2241240392675397,0.44031916225474904,-6.688021265893179,-31.248438082261057,24.285377468459835
7.354597926803134,1.9116396584449291,0.37343894959581725,-6.44516749120858,-30.40513113155468,22.068077658980936
7.373714323387583,1.6075883471293824,0.30898727468373144,-6.224486714618771,-29.30861235785527,19.64430821663165
7.389790206858877,1.3145022235508297,0.24674240753754373,-6.028043632452454,-28.175241205124248,17.301238277797726
7.4029352290943855,1.0327498114995872,0.1864619712130192,-5.855031249674477,-27.110261908457563,15.176214665577746
7.413262727209381,0.7616471924150117,0.1279116587162744,-5.7032691030187,-26.15489818100277,13.322554971568197
7.420879199133531,0.5000982106049839,0.07087896768608741,-5.570043553303018,-25.31638438990922,11.750650764692352
7.425880181239581,0.24693436670589175,0.015178532153057235,-5.452537045656094,-24.58522482597727,10.451058744666367
7.42834952490664,0.0010821184461190236,-0.03934683830350371,-5.34802645820943,-23.944539618662336,9.406606228326886
7.428360346091101,-0.23836327774050434,-0.092827102885598,-5.253960395926161,-23.374918109936495,8.5983386520957
7.4259767133136965,-0.4721124588398693,-0.1453667068448596,-5.167977009405204,-22.856844999540748,8.008177305612843
7.421255588725297,-0.7006809088352768,-0.19704647693891164,-5.087895236349076,-22.371861861815077,7.619880424139475
7.414248779636945,-0.9243995274534276,-0.2479254293024024,-5.011696432107681,-21.90309429833432,7.419161815597206
7.4050047843624105,-1.1434304704367708,-0.29804239362347923,-4.937504813951709,-21.435477595993174,7.393415758818478
7.393570479658043,-1.3577852463967026,-0.3474174417629963,-4.863570656363525,-20.955851746738453,7.531280965737714
7.379992627194076,-1.5673437638640872,-0.3960531483266316,-4.788257846706148,-20.453009398907113,7.822163582887263
7.364319189555435,-1.7718738578531583,-0.44393572679369303,-4.710036210877275,-19.917733519896842,8.255781196348575
7.346600450976903,-1.9710511930521268,-0.4910360889024658,-4.62747839891379,-19.342836628351357,8.821760401080441
7.326889939046382,-2.1644795593356405,-0.5373108728916037,-4.539260794902986,-18.723200452642367,9.509305696617433
7.305245143453026,-2.351711563862064,-0.5827034808406336,-4.444167737936811,-18.05580852571363,10.306949849750247
7.281728027814405,-2.5322696491192005,-0.6271451582200017,-4.341098239439309,-17.339761745757066,11.202391525823405
7.256405331323213,-2.7056672665767714,-0.6705561406143948,-4.229074324181075,-16.576266812385697,12.182422947494079
7.229348658657446,-2.8714299347006285,-0.7128468838562055,-4.107250094706134,-15.76858883035108,13.232947650228802
7.200634359310439,-3.029115823004139,-0.7539193848032669,-3.974920618203846,-14.921961714735923,14.339085696369667
7.170343201080398,-3.1783354401514985,-0.7936685909853054,-3.8315297612401493,-14.04345294405689,15.485360917700556
7.138559846678882,-3.3187699695920676,-0.8319838885977069,-3.676676152063144,-13.141782385850691,16.655961959614924
7.105372146982962,-3.4501877934505747,-0.8687506501183383,-3.5101165324669945,-12.227098118879267,17.835066229518755
7.070870269048456,-3.5724587746393675,-0.9038518154430082,-3.331765870171807,-11.310715208834283,19.00721344084031
7.035145681302062,-3.68556592672771,-0.9371694741447263,-3.141693735763404,-10.404826124049938,20.157713409799356
6.998290022034785,-3.7896141879682097,-0.9685864115023604,-2.9401166016654106,-9.522193808202555,21.27307121512346
6.960393880155102,-3.884836126050235,-0.9979875775190145,-2.727385889514176,-8.675840282778413,22.341411892315367
6.9215455188946,-3.9715945288780192,-1.0252614364141561,-2.5039717705910225,-7.878744956447714,23.352886650231135
6.88182957360582,-4.050381978442497,-1.0503011541200664,-2.270442904088711,-7.1435674783827166,24.3000433357534
6.841325753821396,-4.121817653226324,-1.0730055831609535,-2.027442470731177,-6.48240987819041,25.17814568802532
6.800107577289133,-4.186641752008228,-1.0932800078682652,-1.7756610138509237,-5.9066317756203555,25.985428902193973
6.75824115976905,-4.245708069764431,-1.1110366180067743,-1.515806724828984,-5.426730532281249,26.723283102116834
6.7157840790714065,-4.299975375087244,-1.1261946852550642,-1.2485738938078157,-5.052295314479058,27.396361215859798
6.672784325320534,-4.350498328232034,-1.1386804241931423,-0.9746102816492177,-4.792040141135409,28.012612880959182
6.629279342038214,-4.398418729643389,-1.1484265270096345,-0.694484152839626,-4.6539160911694415,28.5832504578433
6.585295154741781,-4.4449578905550835,-1.155371368538031,-0.40865164826119293,-4.6452967884032725,29.122655665430294
6.540845575836229,-4.491410858439116,-1.1594578850206427,-0.11742509160688996,-4.773223544840817,29.648233878981333
6.495931467251838,-4.539143093887525,-1.1606321359367116,0.17905724718292337,-5.044685843670156,30.180214959174897
6.450540036312963,-4.589589952324226,-1.1588415634648823,0.4808593967746724,-5.466896511156892,30.741380227989684
6.40464413678972,-4.644258917435795,-1.1540329694971356,0.7882731990545693,-6.0474938476237785,31.3566575252486
6.358201547615362,-4.704733855912033,-1.14615023750659,1.1018397743070554,-6.794555809530066,32.052457375202074
6.311154209056242,-4.772679414007333,-1.1351318397635195,1.4223643480590762,-7.7162274182314174,32.855500601490284
6.263427414916168,-4.849841688189648,-1.1209081962829288,1.7509193540739791,-8.819613002060283,33.790671838700526
6.214928998034272,-4.938037818210251,-1.103399002742189,2.0888260724609844,-10.108321099069421,34.877057644640566
