th1 (rad),w1 (rad/s),th2 (rad),w2 (rad/s),a1 (rad/s^2),a2 (rad/s^2)
1.2391567745803522,-2.790025839569808,4.396947541436495,-1.3716360946554722,-9.118763895032508,0.3249802274644182
1.2112565161846542,-2.881213478520133,4.38323118048994,-1.368386292380828,-8.873781544815834,0.6563740267117961
1.182444381399453,-2.9699512939682915,4.3695473175661315,-1.3618225521137102,-8.586085810137066,1.0537656568948988
1.15274486845977,-3.055812152069662,4.3559290920449945,-1.3512848955447612,-8.252980723168344,1.5213988859488343
1.1221867469390734,-3.1383419593013455,4.342416243089547,-1.3360709066852727,-7.872259705974879,2.0626836477813764
1.09080332734606,-3.2170645563610942,4.329055534022694,-1.315444070207459,-7.4423648692215165,2.679942501782842
1.058632681782449,-3.291488205053309,4.315901093320619,-1.2886446451896305,-6.962560969084161,3.3741410071413505
1.0257177997319158,-3.361113814744151,4.303014646868722,-1.254903235118217,-6.433119041340711,4.144612367245615
0.9921066615844742,-3.425445005157558,4.29046561451754,-1.2134571114457608,-5.855502174593103,4.988790798929784
0.9578522115328987,-3.4840000269034888,4.278331043403083,-1.163569203456463,-5.232542953980556,5.901972487640306
0.9230122112638638,-3.5363254564432944,4.266695351368518,-1.10454947858006,-4.568599013026352,6.87712727426693
0.8876489566994309,-3.5820114465735577,4.255649856582717,-1.0357782058373908,-3.8696702425000002,7.904787725208879
0.8518288422336953,-3.6207081489985575,4.245292074524343,-0.9567303285853019,-3.1434590650956054,8.973044077581148
0.8156217607437097,-3.6521427396495136,4.23572477123849,-0.8669998878094904,-2.399354493252851,10.067672672754167
0.7791003333472146,-3.676136284582042,4.227054772360395,-0.7663231610819488,-1.6483222226382392,11.172420825835985
0.7423389705013942,-3.692619506808424,4.219391540749576,-0.6545989528235889,-0.9026874806630648,12.269461798815808
0.7054127754333099,-3.701646381615055,4.212845551221339,-0.5319043348354309,-0.17580515983937453,13.340019400703701
0.6683963116171594,-3.7034044332134486,4.207526507872985,-0.39850414082839386,0.5183772148435873,14.365143407753298
0.6313622672850249,-3.6982206610650126,4.203541466464701,-0.2548527067508609,1.165844802428804,15.326596336561112
0.5943800606743748,-3.6865622130407245,4.200992939397192,-0.10158674338524978,1.7530962496499332,16.207792144228396
0.5575144385439675,-3.6690312505442253,4.19997707196334,0.06049117805703419,2.267735098110669,16.994712007362
0.5208241260385252,-3.6463538995631186,4.20058198374391,0.2304382981306542,2.6990193037326926,17.676715312642298
0.48436058704289403,-3.6193637065257915,4.202886366725217,0.4072054512570772,3.038315486777747,18.247168241514863
0.4481669499776361,-3.588980551658014,4.206958421237788,0.5896771336722259,3.2794114785058524,18.703828711711882
0.41227714446105596,-3.556186436872956,4.21285519257451,0.7767154207893446,3.418655016680925,19.048953213250737
0.3767152800923264,-3.521999886706147,4.220622346782404,0.967204952921852,3.4549058678359557,19.28912403466089
0.34149528122526496,-3.487450828027787,4.230294396311622,1.160096193268461,3.3893097627648245,19.434828732500694
0.3066207729449871,-3.453557730400139,4.241895358244307,1.354444480593468,3.2249214631775374,19.49985154351125
0.27208519564098566,-3.421308515768364,4.255439803050241,1.5494429960285805,2.9662177567237102,19.500554248364324
0.237872110483302,-3.391646338201127,4.270934233010527,1.7444485385122237,2.618547297593251,19.455129688477555
0.20395564710129074,-3.3654608652251943,4.288378718395649,1.9389998353969993,2.1875627611236172,19.382905359402923
0.1703010384490388,-3.3435852376139583,4.307768716749619,2.1328288889910283,1.6786730680469766,19.30376011884357
0.13686518607289921,-3.3267985069334887,4.32909700563953,2.325866490179464,1.096541715013681,19.237698103477197
0.10359720100356433,-3.315833089783352,4.352355670541324,2.518243471214236,0.4446440397727014,19.204604536506206
0.0704388701057308,-3.311386649385625,4.377538105253467,2.710289516579298,-0.27511625761604536,19.224191450891784
0.037325003611874547,-3.3141378119617855,4.40464100041926,2.902531431088216,-1.0627412827407432,19.31612931595386
0.00418362549225669,-3.324765224789193,4.433666314730142,3.0956927242477548,-1.9204409100985318,19.50035354057003
-0.02906402675563524,-3.343969633890178,4.464623241972619,3.2906962596534552,-2.85292326563448,19.79753189179533
-0.06250372309453703,-3.3724988665465228,4.497530204569154,3.4886715785714086,-3.8676940445925094,20.229677801275233
-0.09622871176000225,-3.411175806992448,4.532416920354868,3.690968356584161,-4.9753792931846075,20.820891580754726
-0.13034046982992673,-3.460929599924294,4.56932660392071,3.899177272391708,-6.190072133479883,21.598200406660204
-0.16494976582916968,-3.5228303212590926,4.608318376644627,4.115159276458311,-7.529674145375638,22.592437180426394
-0.2001780690417606,-3.598127062712849,4.6494699694092105,4.3410836482625745,-9.016141711159792,23.83902632976501
-0.2361593396688891,-3.688288479824447,4.6928808058918365,4.579473911560225,-10.675425996736314,25.378388599400555
-0.27304222446713355,-3.79504273979181,4.738675545007439,4.83325779755423,-12.536651079807083,27.255351960931097
-0.31099265186505165,-3.9204092505898807,4.787008122982981,5.105811317163541,-14.629586690172822,29.516293603197145
-0.35019674437095044,-4.066705117491609,4.838066236154616,5.400974253195512,-16.97850542514045,32.20141157741692
-0.39086379554586653,-4.2364901717430135,4.892075978686571,5.722988368969681,-19.58863832937626,35.326930523444226
-0.43322869726329666,-4.432376555036776,4.949305862376268,6.076257674204124,-22.41796120979514,38.84720106708833
-0.4775524628136644,-4.6565561671347275,5.010068439118309,6.464729684875007,-25.32121882075455,42.57849198660416
-0.5241180244850117,-4.909768355342273,5.074715735967059,6.890514604741048,-27.945823133781907,46.055966167480484
-0.5732157080384344,-5.189226586680092,5.14362088201447,7.351074266415853,-29.559937599698767,48.29581942192432
-0.6251079739052353,-5.484825962677079,5.217131624678628,7.834032460635096,-28.83921991418912,47.49803938026097
-0.6799562335320061,-5.773218161818971,5.295471949284979,8.309012854437706,-23.82237334204179,40.98022740586893
-0.7376884151501958,-6.011441895239389,5.378562077829356,8.718815128496395,-12.618924148349597,26.15280626492233
-0.7978028341025897,-6.137631136722884,5.46575022911432,8.980343191145618,4.559167493937146,3.3292774479712732
-0.8591791454698186,-6.0920394617835125,5.555553661025776,9.013635965625332,23.46072237523692,-21.608061950016044
-0.9200995400876537,-5.857432238031143,5.6456900206820295,8.79755534612517,37.82304075380149,-40.057352190481794
-0.9786738624679652,-5.479201830493128,5.733665574143282,8.396981824220353,44.58747317484962,-47.91793541833464
-1.0334658807728965,-5.033327098744632,5.817635392385485,7.917802470037007,45.246787323671015,-47.37152111714236
-1.0837991517603427,-4.580859225507922,5.8968134170858555,7.444087258865583,42.769159719605994,-42.5666010828885
-1.129607744015422,-4.153167628311862,5.971254289674511,7.018421248036698,39.294651032909606,-36.45074484697453
-1.1711394202985406,-3.760221117982766,6.041438502154878,6.653913799566952,35.873948578275325,-30.447196883279076
-1.2087416314783683,-3.4014816322000128,6.107977640150548,6.349441830734162,32.89715969377269,-25.068044721104012
-1.2427564478003685,-3.072510035262286,6.17147205845789,6.098761383523122,30.450493509601035,-20.412886784850347
-1.2734815481529913,-2.7680051001662753,6.232459672293121,5.894632515674619,28.50294250508714,-16.426681376035223
-1.3011615991546541,-2.4829756751154037,6.291405997449868,5.730365701914267,26.987998339037365,-13.011233465455165
-1.325991355905808,-2.21309569172503,6.34870965446901,5.6002533672597155,25.835562972463382,-10.068014444286774
-1.3481223128230584,-1.9547400620003963,6.404712188141607,5.4995732228168475,24.982670664953314,-7.512132569788718
-1.3676697134430624,-1.704913355350863,6.459707920369776,5.42445189711896,24.375811844519745,-5.275070034571069
-1.384718846996571,-1.4611552369056655,6.513952439340965,5.371701196773249,23.970218383183575,-3.3034778324457603
-1.3993303993656276,-1.2214530530738297,6.5676694513086975,5.338666418448791,23.72826159045323,-1.5569000273863212
-1.411544929896366,-0.9841704371692974,6.621056115493185,5.323097418174928,23.617780940540356,-0.005478011581642546
-1.421386634268059,-0.7479926277638939,6.674287089674935,5.323042638059111,23.61062315800189,1.372043459919616
-1.428866560545698,-0.511886396183875,6.727517516055526,5.336763072658307,23.681463201234273,2.5899658141123525
-1.4339854245075367,-0.27507176417153223,6.780885146782109,5.362662730799431,23.806905526311755,3.6569961193607923
-1.4367361421492522,-0.03700270890841467,6.834511774090103,5.399232691993039,23.964844103913915,4.5773956015054695
-1.4371061692383362,0.20264573213072448,6.888504101010033,5.445006648008094,24.134058821329386,5.35199348604424
-1.4350797119170289,0.44398632034401836,6.9429541674901145,5.498526582868536,24.29402975619914,5.979129218018136
-1.4306398487135887,0.6869266179060098,6.9979394333188,5.558317875048717,24.424953274368065,6.45556876908446
-1.4237705825345286,0.9311761506496905,7.053522612069287,5.622873562739561,24.507942473454477,6.777421204720887
-1.4144588210280318,1.1762555753842352,7.109751347696682,5.69064777478677,24.52538841493435,6.941060609557277
-1.4026962652741894,1.4215094595335787,7.16665782544455,5.7600583808823425,24.461448272430385,6.944036645159355
-1.3884811706788536,1.6661239422578826,7.224258409253373,5.829498747333936,24.302613428558068,6.785936019597532
-1.3718199312562747,1.9091500765434632,7.282553396726713,5.897358107529912,24.038297136868707,6.469139525746081
-1.35272843049084,2.14953304791215,7.341526977802012,5.962049502787372,23.66137088946553,5.999408319508386
-1.3312331000117186,2.3861467568068053,7.401147472829885,6.022043585982456,23.168574653918363,5.386232082175121
-1.3073716324436506,2.617832503345989,7.46136790868971,6.075905906804207,22.560731712675924,4.642883037081298
-1.2811933074101907,2.843439820472748,7.522126967757752,6.12233473717502,21.842715518622015,3.7861438660872073
-1.2527589092054632,3.061866975658968,7.583350315129502,6.1601961758358925,21.023143017832748,2.835712016629897
-1.2221402394488734,3.2720984058372955,7.644952276887861,6.188553296002191,20.113802876895946,1.8133224618415285
-1.1894192553905005,3.473236434606255,7.706837809847883,6.2066865206206066,19.128862362392073,0.7416684086333237
-1.154686891044438,3.6645250582301756,7.768904675054089,6.21410320470694,18.08392664380715,-0.356772868929765
-1.118041640462136,3.845364324668247,7.8310457071011585,6.210535476017642,16.995043146233282,-1.4608898737693548
-1.0795879972154536,4.0153147561305795,7.893151061861335,6.195926577279949,15.877747744128044,-2.551949365508722
-1.039434849654148,4.1740922335718595,7.955110327634134,6.170407083624862,14.74623886008883,-3.6143811589299735
-0.9976939273184293,4.321554622172748,8.016814398470382,6.134263272035562,13.612742968498107,-4.6362790406565555
-0.9544783810967018,4.457682051857729,8.078157031190738,6.0879004816289966,12.4871058890816,-5.609599942382825
-0.9099015605781245,4.582553110748545,8.139036036007028,6.031804482205168,11.37661453814232,-6.530078920622679
-0.8640760294706391,4.696319256129969,8.19935408082908,5.966503692998941,10.286028565451558,-7.39690457155405
-0.8171128369093394,4.7991795417844845,8.259019117759069,5.892534647283401,9.217783738185434,-8.212215533751985
-0.7691210414914946,4.8913573791663385,8.317944464231903,5.810412491945881,8.172320052423984,-8.980483693299034
-0.7202074676998312,4.973080579690579,8.376048589151361,5.72060765501289,7.148486517728983,-9.707845638312271
-0.6704766619029254,5.044565444867868,8.43325466570149,5.623529198629767,6.143979370784078,-10.40143389951706
-0.6200310074542468,5.106005238575709,8.489489957687788,5.519514859634596,5.1557787223112586,-11.068746760704537
-0.5689709550684897,5.157563025798821,8.544685106284133,5.408827392027551,4.180558109197236,-11.717082584338318
-0.5173953248105015,5.199368606890793,8.598773380204408,5.291656566184169,3.2150504285760455,-12.353053473751684
-0.4654016387415936,5.231519111176554,8.65168994586625,5.1681260314466515,2.2563612339025676,-12.982184607004573
-0.4130864476298281,5.254082723515579,8.703371206180718,5.038304185376606,1.302225920094318,-13.608599931343639
-0.3605456203946723,5.267104982716522,8.753754248034484,4.90221818606317,0.35121090082978007,-14.234791811499358
-0.3078745705675071,5.27061709172482,8.802776429895117,4.759870267948176,-0.5971392491870108,-14.861471115471948
-0.2551683996502589,5.2646456992329504,8.850375132574598,4.6112555567934566,-1.5422061427913691,-15.487494427843652
-0.2025219426579294,5.249223637805037,8.896487688142532,4.45638061251502,-2.482251147898409,-16.109865937118787
-0.15002970627987902,5.224401126326053,8.941051494267683,4.295281953143832,-3.414416575698688,-16.72381245010884
-0.09778569501661849,5.190256960569066,8.98400431379912,4.128043828642744,-4.334773566716364,-17.32293043984671
-0.04588312541092783,5.146909224901902,9.025284752085549,3.9548145242442767,-5.238416090804107,-17.899403646174015
0.005585966838091191,5.094525063993862,9.06483289732799,3.7758204877825365,-6.1196002154994025,-18.444288266516683
0.05653121747802981,5.0333290618388675,9.102591102205816,3.5913776051173696,-6.971926764257196,-18.947860104652808
0.10686450809641848,4.963609794196295,9.13850487825699,3.4018990040708417,-7.788563628074006,-19.400014283209146
0.15650060603838145,4.885724157915555,9.172523868297699,3.2078988612387502,-8.562501398813087,-19.79070358089192
0.205357847617537,4.800099143927424,9.204602856910086,3.009991825429831,-9.286832906078729,-20.110396655699358
0.2533588390568112,4.707230814866636,9.234702775164385,2.808887858872837,-9.955044061455355,-20.350533073065254
0.3004311472054776,4.607680374252083,9.262791653753114,2.6053825281421847,-10.56130066173224,-20.50394898857761
0.3465079509479984,4.50206736763476,9.288845479034535,2.4003430382564086,-11.100714038943932,-20.565246326647646
0.391528624624346,4.391060227245321,9.312848909417099,2.194690574989932,-11.569568174070263,-20.53107994720727
0.4354392268967992,4.275364545504618,9.334795815166999,1.9893797755178595,-11.96549244363917,-20.40034184928825
0.4781928723518454,4.155709621068226,9.354689612922177,1.785376357024977,-12.287567601583573,-20.174228705052563
0.5197499685625276,4.03283394505239,9.372543376492427,1.5836340699744513,-12.536357644419926,-19.856188241136735
0.5600783080130516,3.907470368608191,9.388379717192171,1.385072187563084,-12.71386629057674,-19.45175007121055
0.5991530116991335,3.7803317057024235,9.402230439067802,1.1905546868509784,-12.823423134165248,-18.968256204215166
0.6369563287561577,3.652097474360771,9.414135985936312,1.0008721248088268,-12.869510253778806,-18.414514314671873
0.6734773034997654,3.523402371822983,9.4241447071844,0.8167269816621081,-12.857544415395227,-17.80040196360759
0.7087113272179952,3.3948269276690306,9.43231197700102,0.6387229620260322,-12.793632499670803,-17.13645177710236
0.7426595964946855,3.266890602672323,9.438699206621282,0.4673584442550086,-12.684318232020265,-16.433446150397106
0.7753285025214087,3.1400474203521203,9.443372791063831,0.30302398275103753,-12.53633685654257,-15.70204587310601
0.8067289767249299,3.0146840517866944,9.446403030891341,0.14600352401997743,-12.356391495373646,-14.95247103532488
0.8368758172427969,2.8911201368329578,9.447863066131541,-0.0035211863332713644,-12.150961148613035,-14.194245688191385
0.8657870186111265,2.7696105253468275,9.447827854268208,-0.1454636432151852,-11.926146218416644,-13.436010953775813
0.8934831238645948,2.650349063162661,9.446373217836056,-0.27982375275294336,-11.687553606806125,-12.685405362757615
0.9199866144962214,2.5334735270946,9.443574980308528,-0.40667780638051954,-11.440220216445356,-11.949006618355213
0.9453213497671674,2.419071324930146,9.439508202244722,-0.5261678725640717,-11.188571283281755,-11.23232592841447
0.9695120630164689,2.3071856120973284,9.434246523519082,-0.6384911318482164,-10.936408438879475,-10.539844460588911
0.9925839191374421,2.1978215277085336,9.4278616122006,-0.7438895764541055,-10.686921667489154,-9.875081138249321
1.0145621344145275,2.090952311033642,9.42042271643606,-0.8426403878365987,-10.442719242679292,-9.240681601068713
1.035471657524864,1.986525118606849,9.411996312557694,-0.9350472038472858,-10.205870123316735,-8.638519380300187
1.0553369087109323,1.8844664173736818,9.40264584051922,-1.0214323976502877,-9.977953983457235,-8.069801891480408
1.074181572884669,1.7846868775391094,9.392431516542718,-1.1021304165650918,-9.760114893622795,-7.535175491427172
1.09202844166006,1.6870857286028813,9.381410212377068,-1.1774821714793635,-9.553115544570451,-7.034825413798013
1.1088992989460889,1.5915545731571767,9.369635390662275,-1.2478304256173436,-9.357389727693885,-6.568567783530441
1.1248148446776607,1.4979806758802379,9.3571570864061,-1.313516103452648,-9.173091509804268,-6.135932063408752
1.139794651436463,1.406249760782195,9.344021925371575,-1.3748754240867354,-9.0001401413689,-5.7362331933732165
1.1538571490442848,1.3162483593685061,9.330273171130708,-1.4322377560204675,-8.838260212309867,-5.368633358773974
1.1670196326379698,1.2278657572454075,9.315950793570503,-1.4859240896082073,-8.687016926334994,-5.032193796397011
1.1792982902104239,1.1409955879820575,9.301091552674421,-1.5362460275721774,-8.545846618435377,-4.725917352143201
1.1907082460902445,1.0555371217977036,9.2857290923987,-1.5835052010936095,-8.414082808387905,-4.448782677858448
1.2012636173082216,0.9713962937138246,9.269894040387763,-1.627993027872194,-8.290978183721453,-4.199771030294603
1.21097758024536,0.8884865118766101,9.25361411010904,-1.66999073817514,-8.175722955032166,-3.9778866411517786
1.219862445364126,0.8067292823262884,9.23691420272729,-1.7097696045866577,-8.067460038870871,-3.782171586921819
1.2279297381873888,0.7260546819375797,9.219816506681424,-1.747591320455876,-7.965297510233728,-3.611716018938526
1.2351902850067646,0.6464017068352425,9.202340593476865,-1.7837084806452612,-7.868318737064715,-3.4656645311190015
1.2416543020751172,0.5677185194645953,9.184503508670414,-1.8183651259564513,-7.775590570036272,-3.343219354929643
1.2473314872697632,0.48996261376423256,9.16631985741085,-1.8517973195057478,-7.686169917279441,-3.243640984572724
1.2522311134074056,0.41310091459143816,9.147801884215792,-1.884233729351475,-7.59910898927521,-3.1662467543049733
1.25636212255332,0.33710982469868606,9.128959546922276,-1.9158961968945247,-7.513459456231384,-3.110407816420533
1.2597332208003067,0.2619752301363722,9.109800584953332,-1.94700027505873,-7.428275720527261,-3.075544903740785
1.2623529731016705,0.18769247293109959,9.090330582202744,-1.9777557240961379,-7.3426174711531305,-3.06112320457556
1.2642298978309814,0.11426629821956828,9.070553024961782,-2.0083669561418933,-7.255551655994497,-3.066646630624765
1.2653725608131772,0.04171078165962332,9.050469355400363,-2.039033422448141,-7.166153981490433,-3.091651718428926
1.2657896686297734,-0.029950758155281018,9.030079021175881,-2.06994993963243,-7.0735100275979885,-3.1357013718491085
1.2654901610482205,-0.1006858584312609,9.009379521779557,-2.101306953350921,-6.976716048943522,-3.198378625720329
1.264483302463908,-0.17045301892069614,8.988366452246048,-2.133290739608124,-6.874879520267535,-3.279280588370938
1.262778772274701,-0.2392018141233715,8.967033544849967,-2.1660835454918335,-6.7671194754410635,-3.3780127023050546
1.2603867541334672,-0.3068730088777821,8.945372709395048,-2.199863672514884,-6.652566684079046,-3.4941834472761495
1.2573180240446895,-0.3733986757185726,8.9233740726699,-2.2348055069876454,-6.530363707706754,-3.6273995976075355
1.2535840372875038,-0.43870231279564015,8.901026017600023,-2.2710795029637207,-6.399664878146367,-3.7772621353987605
1.2491970141595474,-0.5026989615771038,8.878315222570386,-2.3088521243177085,-6.259636243882485,-3.943362912720511
